-9.303609840127452,0.4609128516945087,-2.3543198036888313,-9.017354539961927,-4.059099933422291,-4.823500331939577,-14.840695620759655,-12.989054161625301,-7.841727863745597,-15.645523352358682,-20.105863880850986,-17.662070142966137,-25.7106307884965,-30.875708609303537,-16.90220433135627,-5.935493738947468,-8.106097848291634,-6.266506563571375,-7.607394577193017,-22.866562321607603,-29.12275030565687,-20.281261620949298,-19.765146845866177,-22.326952756997372,-12.138878876673402,-6.551741967281588,-12.633705041647985,-11.812022686857812,-11.157963766468107,-24.01229918241716,-28.666042493290128,-16.194411703296108,-9.66846307611026,-8.91393642086037,-2.3433505595487985,-6.066914139541979,-20.18454624698231,-18.57583883632327,-8.133575452637453,-9.18175904513958,-8.86171472011153,-3.2913288066397324,-10.121794017862097,-17.21298539983087,-6.93654248929376,0.5416350191923869,-4.986459222403859,-5.709862528975991,-7.103327391662696,-20.60805159866913,-26.088431464486312,-18.359931211758095,-19.102086887427,-21.890816553493003,-11.05265105649777,-3.472716583863035,-5.468859200754369,0.3750870885053845,4.34319213214731,-8.345015622045276,-16.672817368424216,-11.776012743174668,-12.38601054184889,-11.924038615278118,1.862590004445443,7.325402819094697,-2.3577820216678456,-5.177089397123666,-6.460621099257132,-19.231740887522548,-22.80716238850374,-11.94930229221373,-9.81926880524952,-11.069445792237321,-2.9779613837346286,-4.465900760844435,-16.915816921309073,-15.960101844755773,-9.377591090278774,-14.26362678783748,-14.244618973561256,-5.951074501027607,-9.614340801721738,-14.899156245026457,-5.651940030632669,-0.5052825786227162,-4.274808090589925,2.2425849927723625,8.299864381557276,-2.800365383665545,-12.296128523540194,-13.008155082466011,-22.799567595462257,-31.81433201730654,-22.99265510152225,-14.38021099534236,-14.068602229631956,-5.239580126168832,0.8310346219612192,-12.206087532635575,-20.75608714061566,-12.662466880315126,-7.880820504445592,-3.7920307383786764,8.841631315264438,8.680370790301971,-6.477199044863986,-8.612222316559636,-1.372040647028877,-2.9130665002882443,-0.3142334167517873,8.184737235368198,2.0271232279438323,-6.903185969447546,1.3124252903508111,7.940274654895626,3.5530117631427887,6.647269380008295,10.516975294146073,1.8385663064094535,0.1510451329261433,9.831358946215003,8.630398732587178,3.493001170314324,10.082418326684538,12.225540633739056,5.63702329728064,9.550765987739274,15.596278801379647,7.4171785938323715,1.463636339709192,4.480994988099749,0.021810321965066493,-2.0622510626061024,12.041720399532602,20.466294833847662,14.270563535078601,12.82420910007526,12.279331923026126,3.388996473754081,5.866653515782927,21.33285320067391,24.093686080825485,17.03243402441148,14.12390617454446,3.733104167304883,-8.36743524455363,1.9103703471031306,19.95243026337214,21.408155772393343,17.382438627758837,11.50461548102573,-7.803618902748349,-20.406576521421442,-7.888422618864274,5.702962752131241,8.337394280163744,15.38098679038966,16.974277182101613,1.4646519864347116,-6.6677661157824195,0.2604947883827018,-0.40028523007159955,-3.5585628315456455,4.917373282227116,6.4408823493334495,-3.9932126919163133,-4.547523467408904,-1.7648784441436858,-10.726255126058364,-12.591071593775697,-2.0402532994841125,-2.05416196577571,-7.9325216603795266,-5.211112017864247,-9.873575965754231,-23.405757993294674,-23.096189090618424,-17.114159884494477,-22.837532702446016,-24.255933016219497,-16.24365001362502,-17.719059206712302,-20.87834840437435,-12.797479550751452,-13.211035874354703,-24.804167265664105,-22.33494491460043,-11.151663758875184,-8.200521162114597,-0.42252805753290845,11.466788510272623,5.699739313848825,-3.8236336343933437,4.710096002881995,12.210485926536673,9.062085294630457,13.093193434175044,14.325991863422786,-1.9255465371540073,-12.071985054765165,-7.2448641394368485,-9.36898867859455,-12.90166332828311,-3.82119861415533,-1.636635831107836,-11.46088297670775,-10.228626856588072,-3.276747386596036,-5.5379077638562055,-0.29509776841916135,13.87654571996369,12.457352727065317,3.154750298328754,4.472435412423442,2.5038370641766083,-3.2858517233324624,8.052282676855208,22.81593798569089,20.587307158984423,19.259268405926417,24.676326467248273,18.0755149929458,11.221393097377197,20.183288930898467,24.747106774433306,20.68222640730941,28.456103323732002,36.127078710734224,27.084914222185358,22.232498907843024,27.804819071235084,23.915897346481003,20.997855482696288,33.608349553598444,39.03909944999891,31.626770635966047,34.327973318476786,38.79419270938263,29.630046389476995,26.991929804729562,34.33675296192872,27.63147541306803,15.89470444109036,17.982327370250992,17.20889040553906,9.38578181565504,15.18643083489559,23.510210322049105,16.030089075688327,12.33693465085939,19.359105474515932,15.91293954233085,9.429767618839303,14.093161658618808,9.626776936215979,-6.361214419963858,-7.10142083955863,0.4255824086544182,-3.6543071607229343,-5.396946552719627,-2.076883822213823,-12.720764316233902,-24.17010494234965,-18.145299925776662,-14.303562007389857,-20.445250805881834,-18.35248333783273,-16.707277965966515,-29.310647089964643,-36.50026372714487,-33.01785664459214,-37.67701265296953,-40.672569959285134,-28.786597301583708,-22.202135505431194,-25.170559249053575,-19.837127733416857,-18.098214181326384,-32.122144468457705,-38.37463091621013,-30.863346758576427,-30.143028794762632,-29.92825425217132,-19.792343504950004,-19.16813424515556,-28.564452620371657,-24.611526887469182,-17.836817769393797,-26.347539419029538,-30.98328922270936,-25.547485283181466,-29.580216206106172,-31.89885606514038,-17.214785685349266,-8.028353525818652,-10.458670973243102,-3.713832673259653,1.0187897003930433,-12.240840863693093,-20.631116699002703,-16.02241506431869,-17.32860325450258,-13.495266509251067,8.602524400981771,22.31186184245534,17.73205189894731,16.51261447575749,14.4346013596282,2.5324173715701934,3.186282398431624,16.086320197226254,11.802864277874178,-2.101087953942584,-2.5250031031076534,0.19035921444939524,2.6757339321731113,18.66455431024774,31.212194427923208,23.03987627895743,17.33510798977973,23.296299816809743,19.705957200688083,12.045420320776122,15.5375981571964,15.21497433910066,9.560321388899482,18.033074349041044,26.948874393824656,17.043613817591986,7.6944362180617825,7.070637574748952,-2.0851955522262466,-9.180455153125418,0.5891094824961476,6.5212379758805685,2.3276960311712465,7.566381353952959,12.9349431833193,3.72478332309505,-1.0221680438303533,2.373170221578489,-5.323419917645526,-11.981293515190949,-2.8896838203471322,1.2834961969538767,-2.990403858993192,3.9725220823941965,10.379597543889021,1.2705398376143204,-4.090097207001155,-2.254479851287238,-11.65994546085009,-19.243459366675083,-9.383242722056439,-3.4806894451443755,-7.682828377080356,-2.781553030763722,0.585925772240515,-12.079688506773376,-19.44620746482802,-15.16153530307906,-17.5929112964508,-16.396462580644805,-0.05218740628664165,6.976761524004665,-1.0004899657587925,-1.448499136723972,-0.44120603037556705,-9.457521749193921,-9.987321508268272,-3.168750620390451,-11.024706106345427,-18.9448301247025,-8.140761213967256,1.44106365636128,2.0898990776003386,8.305356713374914,8.340839320113826,-5.586229216462523,-6.421008247746338,8.09244748691579,9.588438995100091,2.488510199054761,2.121161971387088,-4.82160397159886,-13.092070434488962,0.7661737107321809,18.558584815537493,17.00989580723484,15.28192815745144,19.93010438283276,13.4367401757731,8.778984503350765,19.856371308906617,23.427809223353332,14.033042351315045,12.652245243057402,11.554700170406694,-0.0702429018590971-0.6042193126019675,11.976065424108167,12.531029794327733,6.048040133374791,6.797250922190271,1.8309340546076638,-5.420947780928203,4.919781967489363,16.084826487405007,7.978798328298923,-0.4590457612803027,-1.8888416119066902,-11.043953479384934,-14.142742645754677,1.5348140946897564,10.70460934088796,6.260954242332742,9.376809138333572,11.492234157274961,-0.2462492410926176,-3.7943709140134847,4.157903113287066,-0.14593274092269226,-7.545816358176243,-0.8893942876295897,2.3758446611430784,-1.1817088120176633,7.085022730872025,13.487685576544486,1.6705714315919522,-6.827199499379302,-4.675902766147541,-9.050676104404197,-10.66763262551715,0.6380011148795797,3.856005062602457,-2.443973302192735,2.8417813764841595,8.605704812092064,0.11326919248414669,-3.605553895325066,-0.028859141913146757,-7.939657187258026,-14.551226151135042,-5.701167795208327,-1.3057924749563858,-3.0223384924358525,8.716673449203505,19.01492907397929,10.287647587009484,3.166830397396084,4.121516328916337,-3.4840546420261993,-7.350443844616354,3.512521963973043,4.553220318541395,-7.054542097811517,-6.363688665241543,0.18848870225934533,-1.6814788190788632,2.6799184157987193,10.622723048863822,1.3641287179996446,-9.40044246100201,-2.617332198408188,1.9053681871360029,-2.7649249826138425,-0.04179390349511625,-0.3053440412237787,-13.743978178630936,-17.415155664717386,-8.303734200409249,-8.431896421192485,-9.813960461802372,-0.569565626791642,0.24155244520589503,-7.653861564303261,-2.6768155825367472,3.88989250096011,-3.1967786507529645,-5.2222377650828635,-0.10083489818049518,-6.819148191355257,-11.017420529176567,2.136234647732709,8.96398461104429,3.564705258696557,5.833353030186558,5.012774574848593,-10.600160171629263,-15.143346219520566,-3.37518235109731,-0.7332697900622818,-1.94988376399537,5.175416001817345,1.8535613180758808,-10.110326724709173,-6.597970341665955,0.09651138758335964,-6.9185256230539665,-7.645746990376305,2.486440097621695,3.893796614606379,4.943390892010518,14.593237427847326,11.715406386068484,-0.3270595811211541,5.0883015274894134,16.05103653661808,12.27755765390571,8.79711028364478,8.265767117149114,-4.607938362055223,-12.192747810145772,1.2694884923792173,10.564139952680616,6.735427296103418,8.621628958350877,8.166029175328577,-4.732614141723056,-7.87581445013946,2.0467600749510217,3.71292380796705,4.232662748237487,14.01417466457312,13.45213773706041,3.0839254377569736,7.065442804014394,16.09687439089098,13.4798685853849,13.466595150203588,14.541272006663924,-0.4386773609020045,-11.577943987650086,-0.20730348267804377,10.572272773226441,11.186704793310145,15.141125872576703,10.78322288528539,-7.851967990435693,-12.49715414609482,-0.14065495741973333,2.255256816612941,-2.551658315099424,-2.5206179550816747,-9.17088942274435,-16.078949901599394,-4.644585687983939,5.216604645760367,-6.810590878077817,-19.125729121925463,-20.76548059734519,-25.815072931639595,-25.959588541521562,-15.28928025751753,-16.897702133599438,-27.169198845453717,-19.87785181240174,-8.364109640112332,-11.70507159280909,-12.742002313249465,-9.00466807839005,-17.537014704198647,-24.30749395907475,-15.552178792338701,-11.481028349867888,-14.531777765339495,-5.261501717603986,3.336968278024625,-6.076109167491767,-14.476892259490908,-14.28961394446382,-20.076739993248275,-20.587664836544604,-4.848472868592697,4.931917633453433,3.9021566425930807,11.816764451705387,20.46366761263716,17.317375364298023,20.329316992000233,30.99576083987389,31.65891126632849,36.99844907822014,61.10807064501943,81.90512114705975,94.95812155952527,114.94822336325169,123.14422852058183,105.97167912693034,90.99922028302156,86.95708878273493,76.67357943127162,69.16591339819948,69.7177673204738,53.62915616446415,25.72738388310856,16.56664390575452,15.911589369338836,2.1032444056631325,-12.040102751396399,-24.393641615920572,-48.40251183641605,-63.96007076698118,-56.00510205361962,-52.89516595126103,-64.19326620371233,-70.39407158217713,-79.22872463027956,-97.95445766714211,-101.4486427838469,-88.22705379208331,-83.58797818239789,-82.2837703924487,-74.49588728788055,-78.38180475287278,-88.9575432274567,-79.97043172863985,-63.31280866842248,-58.932139900351316,-54.70212270462517,-52.81908522178898,-68.72242462246935,-79.49958968275119,-64.89335198801831,-48.14474450152502,-38.288340828496644,-22.395055211318173,-16.32926299682874,-30.062549475493256,-36.29489583998015,-30.473434322197264,-33.28442644962063,-33.4958073956706,-19.782096047049556,-14.947233278738755,-20.18629556512451,-13.13590513651615,-4.315594554793046,-6.395222564976111,0.32583793580167697,14.460641610343059,12.55819195580592,5.088660549456359,7.249003149266279,4.37271994922326,-0.44300026268571724,12.487725958063157,26.292441137840758,20.467576988613637,13.020747252232866,12.974786762806099,8.561183120905898,11.181797108909354,27.654182706937377,32.815489662365174,25.317501528546877,28.918934087124846,34.47567666998527,27.956737939945924,26.10174827077648,28.921943448891987,20.615159346795025,17.671574743795087,31.5302995870838,37.779713601608144,34.3284266640601,41.48734408572747,45.74147234901636,34.334381479060895,30.144802428081626,35.32286492364711,30.517999942402632,29.27218212884167,42.00272294067238,43.088417388188525,30.378606173437895,27.45943796475747,26.35724095357849,17.65717159986072,22.681456497839836,38.332942591171005,38.597050691980726,33.249580550487025,36.40104820222316,30.837541027425836,18.84566204116691,21.24664460189835,25.33506506364494,18.756480840509283,21.360071643985204,31.795688868829153,27.374847667731864,17.763803931191987,16.987026929222182,12.214067757521315,8.514578421409276,22.333127754634777,33.33882118956266,24.22516850587758,14.980781124138536,10.15213957197185,-2.69281312562737,-7.024529077293037,6.81962340912848,14.493520898807542,13.48795064229529,21.344272408718222,23.30667448798877,8.29099887600644,1.598360799297946,6.442861042420545,1.9621995571629927,-0.7661948818988678,8.203692524542292,5.635900448328474,-6.896811861601698,-4.132612488216057,2.871474522451251,-1.4604864063148337,0.12460536992661386,6.022002939299874,-4.167671270962243,-13.53259214743797,-3.133046663142764,6.289973799309202,7.647709611635025,15.420606751079509,15.013817706464344,-4.093724610418107,-15.140018935424594,-11.623764472065986,-12.588326964328555,-9.457960552090006,5.807911528749015,10.723452499855188,3.989206341043514,4.976453282071298,2.2612990773651847,-12.883723641110851,-15.84564601426133,-5.55393291120197,-4.717746622832387,-3.512858762625737,8.294154652479577,8.03497219904258,-4.440186673163117,-6.0208249763329516,-6.451906182717206,-16.258747475354273,-13.407349342489189,-0.1013427067750774,-3.1299842127163586,-12.518038392193588,-10.56559356365857,-11.774155532016731,-15.627432996296655,-5.319793289753028,1.7701459498690824,-9.594035192485244,-15.992924421477468,-11.820786656570604,-15.875268665500544,-17.64497910347948,-7.14091757598231,-7.4739282391753905,-18.899969374065037,-17.8103569601831,-14.109514061755604,-19.402359552986972,-13.92971904655127,-1.5010147103854448,-6.082491939494912,-14.910240062296834,-13.651197210689539,-19.183043562433433,-25.975343707757368,-12.604923171649547,2.2549497885064183,-0.6464700278857878,-3.2062339087147964,-3.138605300924678,-14.589531805907892,-18.81845900163681,-3.9988435966056817,2.2378945732182896,-5.650435287226932,-7.296942240787562,-11.895544896211334,-27.28859502368554,-29.24694498362472,-16.78085384925911,-13.414812869241436,-11.990238226158253,-2.623128903918547,-5.257207111168657,-17.728252850356817,-16.09403240839852,-11.3989661389368,-17.553842102369366-15.765165815051157,-7.633041736725664,-13.88647896732002,-19.76230200668165,-10.407529440260571,-4.707709247105527,-3.5517373556086906,7.466974302344598,10.904960342037564,-3.541723956584402,-10.962027394865927,-8.190941997109835,-12.728221917898162,-12.557082947615264,-0.33854258155366956,1.270659803497718,-4.738925533128133,2.3653062580053836,7.49833245859452,-1.7992013708513586,-5.131898462540179,-3.8422210060455866,-15.257392807211529,-20.816391857026286,-7.328345469248082,-0.05986272997020342,-3.533850504007649,0.6106588336087015,1.087915622456911,-9.768922140406017,-7.508306466118263,6.003570508106568,4.994029869124012,-0.8151289488636546,2.1431988494848992,-2.67729938820597,-10.680628874697803,-0.9735118573865034,9.413615340441908,3.5462566292700224,0.9791117735039613,3.650607179754562,-5.846194771498064,-13.123227996652535,-6.076410541500218,-5.363793060437665,-10.728867413262366,-3.135639888398526,3.9817705247702833,-2.1797829640796618,-2.6424381461142716,4.167523275247402,1.5342877526502923,0.8401496925922813,11.136380860534967,11.336589149185968,1.270123506085477,1.3941808109565512,2.740890109812897,-3.154158676309697,2.7500002521981197,14.93946238293843,8.889726096451653,-2.3150820796510594,-0.6498607426147434,0.7402329608259263,5.029748455143167,27.4148258732966,46.160375633791745,45.7328699535483,50.68257751778672,65.61259002884239,72.37791058405375,81.6223532395812,100.46852885419217,106.48401910020851,101.46206139692848,103.69137158995551,96.20134073379397,67.91671152289396,45.369851354381865,33.760271863468915,15.645933878903541,1.6779375088142194,-2.400790353004833,-18.971223969834895,-41.556805202262474,-44.99483945587254,-44.20941807379389,-56.77986028849506,-65.30200837724995,-67.73006012535842,-78.31995801337808,-80.98063606717511,-66.85370594360653,-63.26909938597039,-73.6402859886625,-75.7660896713069,-76.74796521386594,-83.22663171409886,-74.38842303467146,-56.84666044487459,-57.40900690694264,-64.51688016186701,-62.671518751987435,-65.90705299633235,-67.87864770656903,-50.48668245816956,-34.739663091133366,-36.76053535493044,-34.99936794960773,-28.186534235430816,-34.43171587831411,-39.373749851370185,-31.043474386528448,-29.96578520733725,-33.96862083525425,-21.21279718095135,-6.245970091091513,-4.8088918827965115,0.673810897024631,7.535603273558456,-3.9956853181081646,-16.465185279274085,-12.451848459342205,-10.31790821851892,-11.259147703448804,1.0168734126865822,10.627325852119746,5.274796710597647,5.651938873533205,11.32309446235188,5.7679351160693,6.666851821032902,25.05475129727295,34.704806897719,30.99708494985282,32.04317071702747,29.2683600918527,19.720407175950005,26.50110279952166,41.31463330759578,36.84337888953018,26.690210674347487,27.044911388953814,21.935244095850187,15.947466939607693,27.73754421826461,38.44770511749592,32.95319441190466,30.823228279232154,31.150630623336056,18.08647030266044,11.539317779061065,26.08540257599436,37.6113184778775,39.793936198236004,46.737218317601815,44.828507084011875,27.4246086915592,21.25682102985861,28.04628898773298,26.474784267334012,26.217301073855666,34.6910730421561,30.54917761991217,18.500420060844156,20.936913732187836,25.124372645605586,20.048168354594736,23.883439043189338,31.722905435664,23.725592372756942,16.489490277368734,23.754504394024085,24.690035411434202,19.728681933226827,27.55284857469644,31.917719465450737,20.49516484130313,16.837423732451086,21.48659020694392,13.279241891320964,4.964242332651267,9.13645895260414,6.306332876231899,-1.2468770847577955,7.251460967758092,16.906337899718785,12.485781130242927,11.927092498890518,15.289315365551941,6.750965220000955,1.8716496576944637,10.561801021412329,10.270894099260179,2.3494071039919033,7.442826841879927,12.396742316685057,5.64809550617373,6.095021353788716,10.555309471007178,1.2546224022814236,-4.307511612921251,4.89051082017308,4.6287345390002255,-4.820222301299696,-1.8947744605202776,2.438839608067821,-1.6212207396277174,3.6844045762604773,11.59151684017262,0.7319097235504497,-12.569507189384735,-12.651352814691137,-15.02319893020079,-16.00289015267465,-0.40137691841989476,11.358542305537926,5.693870431976214,3.7258227742838796,4.853524205556978,-6.735762741689568,-13.437857621202541,-5.326547564204394,-4.89312330119023,-8.981059689054604,1.869254787546331,10.054213124175114,1.868396736316666,-1.6128408604126623,-1.0389888731468697,-14.466562650498279,-24.712923634170608,-18.13374647577726,-16.001124307686403,-17.794616173575047,-4.349841304018209,7.28666679102005,0.5213046449286773,-5.010602297970522,-6.118313970652692,-16.769050150670843,-19.14013077169786,-2.6348535219708973,4.889453428602086,-0.9284343637953216,1.0564177710734053,1.0673710026865177,-10.116931744278837,-12.273597338380725,-8.908156648559071,-19.171151375100706,-25.110823176828625,-13.263251548282058,-7.181401834959088,-9.490515738816974,-2.4753664831761695,0.5821666250759101,-9.142280429551016,-9.543677861220576,-3.6957513017712333,-12.489761489439594,-21.258850871687528,-16.31305783066031,-14.289556950808443,-12.505277137961565,3.4750362296074693,12.931676301120456,1.7480699655045395,-7.025777979893659,-8.859852805328748,-17.11190631832287,-17.392921061056732,-3.846742327875776,-0.12908224212888486,-3.817809503600298,3.400077032871766,5.236938636235654,-9.006379058077298,-15.543793152731173,-12.3222368040547,-17.063103178975414,-16.869318466702396,-3.7745371383377027,-1.9013281497999195,-9.944746549458543,-6.302142288299645,-4.753190483971726,-15.637596201306382,-14.432824276464864,-3.126557197005273,-6.883329409396943,-14.785117969383409,-13.531189600171807,-18.46206398469284,-23.41659487366429,-10.925843517360354,-2.0502875663771394,-11.050474409721001,-13.822468463824706,-7.790184795403693,-11.24275147287279,-13.35038395652024,-7.881974614429874,-13.623041871774998,-20.63385781077432,-7.507785540884566,4.987627971514938,0.4352597139747125,-1.5636393172000285,-1.8437755446609267,-14.881380918329594,-20.60964194201506,-8.317970716518714,-2.5178204052475825,-3.383720085720344,5.353953486922615,6.242570231800139,-8.694266302520862,-12.270186144140848,-4.8621047527560854,-8.779495008222606,-12.311681940643998,-5.6256599247172385,-7.341932440455168,-11.041434162483002,2.179283711482964,11.965964561873827,3.843820039799914,0.553797308882821,3.660105851181454,-3.4500309020150373,-5.425692171545997,6.537310824458581,8.815542055058888,2.974899080777071,8.570093000283157,10.96929813264979,0.29001876123079473,-1.0577465753879425,5.374339217862516,0.19200500392167408,-2.4370189104495696,6.975304400660502,5.775200397015258,-4.06298917434475,-0.8757900690505651,3.529465950852548,-1.7760206764738942,2.0785272736356872,10.916108847645472,3.081862066189961,-7.177071239010694,-5.959966358078372,-10.581720012646175,-16.971633638323496,-5.580267328363526,7.480385422311665,6.451526842764353,6.389696153331594,5.8599891064268235,-6.9062549351999785,-11.177016901798098,3.769007911477135,11.544881307539297,7.281492055102434,7.887582900288337,3.705339001966508,-8.579044190492146,-5.427850026230929,6.4436691732501234,2.3862826691886445,-3.716938478026441,0.7008702380963889,-2.7598632542823345,-9.493481356654168,-0.7951852168535494,6.859504778581767,3.042034248805778,8.999195274640188,20.63767955439741,16.542871588282047,10.856945275323394,15.82296929828011,12.898681426522874,5.6837341884461665,12.860657849733608,18.454725789892425,11.738496258279987,14.182843951924335,22.343586770335286,15.127642611366646,7.020434109220364,10.678793282406426,7.910685925582823,1.8334419330864908,9.749447816371589,14.569870805205507,5.192251663295514.263979350762318,10.909313275147763,5.382243276251579,1.1679609753566063,8.384827491933043,6.433893410145562,-1.3319319308216246,5.026447981494178,10.811546303648958,4.887760549391405,6.835470827514406,12.765082005398487,3.7062819381147345,-3.3644151674395544,3.978283654253971,4.3027352580779255,-1.8276940926784189,3.519486279811585,5.99195121906193,-2.711728518027223,0.00562048117684677,8.992663828650283,0.759861516538674,-10.325109476972637,-10.863117900631602,-17.330070577913027,-22.861552528992867,-8.710652649853829,5.0796454928353505,2.5780657341422883,2.1181166294737563,2.958169511715287,-9.181656207360621,-15.245135497428214,-3.9938428525588163,0.4100841654883643,-3.3351028472109965,2.245016007016157,2.7702228777834423,-9.288623846008578,-9.621650620614682,-0.7045014028903189,-3.7529371019406006,-5.1654684587988715,4.864981610575602,5.240257933020445,-0.2362706791276783,7.469171887726341,11.86925107142629,3.866647823973338,6.7620163287151875,17.042463419387442,14.114469212929503,12.56662361793938,23.12057150980092,27.837585003656073,33.245164879616205,57.543347406654945,80.3670784507656,85.884270002674,92.38599569680619,98.54964263694782,89.24838000663553,80.88058269787604,80.39259624933314,62.54811809141506,30.231572052344223,8.432242254348647,-8.779994685344208,-26.04689438340918,-27.048504250774613,-25.311993888089084,-44.91405219687725,-66.58636773042343,-71.19033108966833,-73.78937034359849,-74.89214578162843,-64.9650534867331,-64.48909981587475,-80.65608973636245,-85.72234530457281,-78.30789570317141,-78.7455929604293,-77.34362065024922,-67.25974398348862,-66.84979434122026,-68.70389334644078,-53.5162551148492,-40.120335984791126,-42.567331014759915,-40.414551042055336,-33.30306227218672,-37.25364805408793,-37.718799833586026,-26.84212258425555,-26.499697735592253,-31.702999193219938,-20.738443348516792,-9.629479584698212,-13.037813175102043,-12.723964762150642,-9.172262027820189,-17.081122053568926,-19.674527213720125,-7.862563593241957,-5.064283090369265,-9.438524472519614,-0.6190922486886716,6.730065352174297,1.2608014419104565,3.1861618179802247,9.006836156580645,0.7234398182362725,-2.9751380426460474,10.069835047386178,16.298516207693307,14.609695100548656,21.52676049176906,21.984101699480526,9.522291706139839,9.573428189439992,18.796867662619658,14.09203640039843,8.191737079442447,11.96391484128539,7.419668747961488,2.0470700112685294,16.415516034805208,31.273546027987088,30.69267090391705,32.0913845480579,32.46494712750586,17.391928002714103,9.23106679541878,21.296428181148624,28.200968988320295,27.013846856786177,34.30941883827447,35.329810566629654,23.20475460707884,22.842826292621492,31.11566711554637,26.268498158019902,21.912782907103804,27.272187502873216,21.739814458895623,11.593879279506858,18.545169412637662,26.671449293836638,22.470461876105155,23.725320117334476,27.269635073629427,16.872645427200688,11.348819711634563,22.418752247114135,26.102809737893107,21.585226157836615,28.04957620463835,31.562844122641543,20.997460488614486,16.735958497195938,16.699348146708946,3.6994811826204783,-4.5677387143159205,3.56090941425864,6.178929233695081,3.422715984957093,11.728106372460134,16.55336353646397,9.516315198946945,10.460985952780957,14.474654024326927,3.321192863664322,-5.8634838159578955,-1.102234029808837,-1.5316046930190648,-3.8385479902107957,8.683591048918027,17.822663742470315,11.756726385011168,11.434194572801703,14.247454111132543,2.3461727429572092,-6.466547048500584,-0.3904874676532568,-1.061078548203076,-6.266343718438294,1.834282608407325,6.881779998885075,-0.32709323894188325,1.4542709747454463,7.26554867993654,-1.0545631700905433,-4.977684781711424,5.841499473142293,7.924948876951776,2.244297892351951,5.8606224022483,3.9108168393627287,-9.511276894804066,-10.530169359840162,-3.5170076004716786,-8.973393704714733,-10.944621768895052,1.5408996462969258,5.3557797935176366,-0.25211760569488373,2.3695866445249347,-0.04456235877083281,-13.82004591706337,-13.695112258415463,-1.898608271252932,-2.0054587836145217,-3.910823532389306,1.2007448444987685,-6.027008450619062,-18.38800146851128,-11.85980953854132,-1.542275919489486,-3.0926367029548176,-0.4153178779659774,1.8487233109009158,-12.854854306572884,-22.67473532733146,-13.300610812365829,-8.973457705746341,-12.274673503427636,-7.053510716910921,-7.8984479303930035,-20.32404429134471,-18.10978326446673,-5.5874321945399315,-7.564618093129439,-11.602478433133289,-6.839765923740812,-11.77102442419883,-20.068264977065272,-12.456053981409283,-6.487017970642011,-13.125381038803361,-11.058272748128406,-3.9108143362778223,-11.340676177956748,-17.544870131897493,-10.429090860792954,-9.072482234346104,-10.476595809938742,1.304967016883178,7.186473449617673,-4.314340585839017,-11.31583237747087,-14.026221624650798,-25.811715340435992,-27.876928649478906,-12.084316247837528,-3.4169829461692443,-3.429771801736238,2.2262603070586904,-0.5484764115402241,-15.035131693270314,-16.656268821736532,-9.500593660090026,-12.959432027757286,-14.534142320280688,-8.694104883712885,-14.301323191797753,-22.086525163169966,-11.96616773658712,-1.6095797810021248,-4.061091303540313,-2.9316975720739373,-2.041995361385148,-13.560422172780342,-17.529693795899718,-6.592958171029682,-5.34511002373896,-11.283827563328783,-4.585403172114376,0.18847623740351038,-7.807136878319616,-8.863331355861108,-5.4404998318512625,-13.28408359794567,-14.549732133355896,-1.2318651439004542,1.0696330799688678,-5.851170258423665,-0.8856637460375505,3.90275509051037,0.5140325177880745,7.2174138449548515,15.587234522662461,5.57451051444691,-4.527763389496711,-1.0499041464088004,-2.1319470873796833,-3.844531273005698,10.059376228827706,19.364587170451752,10.725506741578426,5.8163889566504805,5.553950717720555,-3.4635099698008456,-3.3038076696426266,12.162510643624952,14.27870808535689,1.617232793841103,-3.73443616228307,-6.572656417499616,-8.701707340614526,6.829390434354941,25.68808426404456,21.623796380814966,9.21408479620452,5.036535024616013,-1.1783084962156503,-2.3144518292740255,13.84584149319096,23.971204757278585,15.81947408717088,12.04059591703464,12.46620536591554,1.9518435399337246,-3.7998627864724903,0.8825007918603194,-6.198918332127023,-15.684595219398522,-3.223527113266024,13.893808495224937,18.908489204273977,24.787666869415542,23.409078604558513,1.4962410885440782,-13.141152710592648,-5.194326227644914,-0.47246130787540536,-2.4777514560771543,4.317171219601858,5.922451083352079,-3.8486324995784886,-2.805374973706636,3.800317197923935,-3.8155184865253107,-8.789070384360189,0.359222255092269,2.2520834622640233,-2.25995899253983,3.768928118978322,5.372251649966851,-5.937150949724711,-7.835750361979265,-2.851556373088395,-9.271212893529608,-11.416622994516512,-0.6763166629632114,0.15324468355994747,-5.5133203165313915,1.8410361089459784,7.064195253810191,0.6343117777468121,2.216641926005688,6.550850269244502,-3.5894809906031604,-9.056271966925166,1.2546821000597905,4.1352522193542764,-0.540337402686049,3.7498639464672627,3.324626572768558,-6.117312004647551,-0.02278413827588155,14.606310777954798,11.421264490944143,2.2863878853810555,-0.38025413385138185,-10.872855723676086,-18.34282555775213,-3.5290486224082134,10.416264043270385,7.675475559666246,8.402182143606266,10.090570670641764,-1.859707068857606,-7.287728540101701,2.35286243031417,2.7846436148700384,-2.5176011453174,5.574908321855366,11.099096191696024,5.486409851085615,10.237385493631594,18.371871717001067,8.37581221368316,-1.5766937083757124,2.273923425858482,0.9765649495018494,-1.028599791708436,11.485766836735719,16.218762371691223,3.5619980052699520.3375347735631049,3.2277670575349915,-10.145700415951586,-22.130507204765927,-15.833727297881987,-7.32898178026621,5.570636366879258,31.51757218090729,40.74172124951279,20.44872369405509,4.482232178480537,2.883533428156732,-1.3636419063355874,-0.06739734609481873,8.773125211843743,2.843297281816733,-9.079624365191705,-4.23377063920562,0.9250225933506113,-4.697125722509935,-0.5130621773111184,8.34599555963937,2.334685903230974,-2.3492869863307546,4.069976528833136,1.6067350845327808,-4.623974654238551,2.4979730253410923,3.6152441777600863,-12.17080611956127,-19.959282457697938,-17.869514233690833,-22.00200969273555,-17.51597000376553,0.540290001030999,4.661736628439643,-3.079481901244658,0.03112712454833977,2.554884517994468,-3.0847099488084324,2.8770610781555366,11.09630453858702,-0.32370544015695746,-10.907168552492456,-5.965007497067647,-6.424802045253851,-10.095981063518915,-1.4829177196602887,1.4517092257678246,-7.909516335130434,-6.134344188064778,0.1751106293572895,-8.927628736563598,-13.325183581012103,-0.08330935100657921,6.689181179009571,5.511706323496553,14.025060918026208,20.270300817262743,19.473682740194324,33.086765468160436,51.26071380214,51.97437755133957,57.07075021545945,82.053085476023,101.20785999129721,104.48158594207135,100.75899980893416,81.03970963802098,51.39867220520988,39.27606354592547,33.24852700873497,5.864043689294707,-23.722323641747717,-33.86029935927256,-38.23788202414974,-37.50910076448797,-26.382726748759403,-31.058972805710333,-57.006414490950746,-70.47216539177066,-69.66625583209358,-76.04540759468362,-77.04617534042745,-65.3383665775913,-63.8154120407638,-69.37994434896463,-64.03109186904335,-62.436608687732814,-69.20016927556173,-59.89152799039664,-42.27248669954355,-42.972392290863105,-50.993201744458844,-53.01917205358877,-58.19869135086703,-55.05403879944809,-31.976191957654358,-17.532304743177306,-26.653327980717663,-33.7199410605285,-32.14241964294343,-33.05941643641902,-23.905603964071275,-5.588998776813405,-4.899185758737392,-14.860241787908965,-11.657263816170454,-8.75218023749158,-15.300720760264774,-11.004063105985788,-2.0933202703635425,-9.252736982456716,-15.50876437302765,-8.724437997559168,-8.44854134547269,-10.477140985473062,1.0406989517051866,5.640892277483211,-5.7950737284645,-6.400712617593568,3.685878884469458,3.5393064884861936,3.617323029389767,10.949514615905015,7.703630330143395,3.0407859965154254,16.486129362783885,27.210331828912885,21.707187017479146,22.945280622272932,30.76608492830252,28.562905535665113,30.94187776658824,42.20934994851653,38.69791954592862,27.57950685347366,29.5424749163861,28.696945301918742,18.566370606307963,22.256302984975083,32.659463160560364,28.584749792812886,25.53814762148381,31.49244127468849,27.116617795155797,21.51533708406471,32.852302223218594,40.09917587824181,31.94113152872351,30.61750589668992,33.61962186058446,24.45696906460418,20.00289423196237,28.04222900114924,26.18509952498308,18.509691038374058,22.73394518562539,22.929475113902363,12.304231452152997,12.825712887267578,18.93366604300725,12.518384118039377,10.02323341018202,18.680511963669094,17.362490673821654,11.671466950443559,17.45446947997297,17.010656949282875,6.060186508456355,9.21472678646337,18.99558044442436,13.255189895739331,6.9787148387523334,8.798553629878676,-0.2036762577293132,-9.699183649352015,1.7911733945017057,13.912997067152897,12.311036697053485,15.68546392336056,17.72433136588624,1.7291732293695805,-8.659142439275755,0.7343204196076814,6.728141271336589,9.083001839699566,21.85294953224509,26.49091971579354,16.34873347213733,16.04499651688693,20.871989103997997,10.802105109090824,2.9494822210561296,8.482778073863635,7.250651581106808,3.2739875033019286,12.045144105573574,15.11819315884735,5.777343168526993,7.093951592891831,13.237917225349344,4.109084585593774,-5.0371319743816425,-3.408876117461899,-7.0711364237428045,-9.5627773137937,2.713752389644622,7.951278070085699,-2.866064066235004,-4.560712327316035,1.567205656519234,-2.0669061242988045,-1.4523059892483512,7.3026171205432355,1.1486109910881765,-11.31931995181507,-7.4905821492974365,-2.2254648622744693,-5.165096583710003,0.9255304166770979,6.7991920727208335,-5.3263086764093455,-14.578499766114012,-9.379659115752446,-10.60925569218776,-15.353248184617714,-8.364930491106811,-5.6067150925704645,-12.038245902529725,-6.156815648734348,2.770610485626444,-6.529248943992913,-16.39260459047155,-14.691936742833882,-17.904629341665885,-18.919492715903502,-4.058060407979295,3.5083659458703638,-7.069742904717707,-13.24372248996089,-15.447095996375271,-24.46274753980222,-21.402841006687282,-4.0092845874703045,-0.4036733335162266,-8.142253126612625,-8.12681342685961,-12.157836056220578,-23.190945685199658,-20.503273596162984,-14.516865752614713,-24.65066920945354,-29.957922332773645,-19.383040253422642,-16.015123049608754,-18.44443254215736,-12.180211006478505,-13.854798011256369,-25.43992061448484,-19.610722434764885,-4.258858585072714,-5.043461764857377,-9.460731728929964,-8.428533130868388,-18.00353312098023,-26.875975936418197,-16.125185302734145,-6.525624042288229,-10.249840802694992,-6.8560813127774765,-0.6832162397099868,-9.20422142326191,-14.492015322155025,-7.096057286546898,-8.678123946938015,-14.384345340351386,-6.444599816893409,-2.1706570284537223,-8.871918845582051,-4.260370371847185,4.747535453978951,-2.321716666709743,-9.570625865411177,-7.712641416604701,-14.142244169840414,-18.90330882156659,-4.8588263999316705,5.118344903114737,-0.20903906427697505,1.7006890569452642,6.398130300620856,-3.0954640326404945,-8.935681359169806,-4.804230738728562,-12.432026698309606,-20.616612573193464,-7.104183750502141,6.811815483146486,6.405282017615063,9.299260869592604,8.173236745368426,-11.733397103509322,-24.78543830827786,-17.249928729650954,-12.102602965029927,-8.834967920936592,4.384782299761337,6.447840933452783,-7.892157431938222,-10.311162020379463,-2.1345317821773886,-2.8612706329920696,-1.5229175280403613,5.496756465617492,-1.2485268058968502,-11.989493989288631,-7.31401353248794,-3.9651929440348037,-9.164803591569576,-2.070901404146632,9.849319929759181,6.811274602911856,3.148780770860113,5.451326473690853,-3.590900745774667,-12.556394528623935,-2.331367263821887,7.6289440821391405,6.779229164152042,14.163098742272416,22.24473866669625,12.336915640739555,1.6727678883309895,0.06376003828044019,-9.730588679496778,-18.69231288555952,-9.096600804166348,-0.19685389672313658,-2.347356687118931,2.9359197844876124,8.710981541553755,-0.12097199651912138,-3.7984330169583993,4.891945245499812,4.491810782901595,1.2180632582073303,10.51022955531915,13.533798781516014,4.67513629665897,6.741417831734356,12.90971093010887,6.217749303988066,5.574900263769799,17.13946934061336,16.42638494192152,8.21280762661769,10.805732664717048,9.341284066025967,0.39649064095566366,7.3849183187111125,21.89964286220435,21.322283098878415,17.818019738821008,16.93084268257799,1.230367051914393,-15.579639290316361,-10.352037796554004,-0.023881772732321505,4.2445241290723335,17.171058080189532,25.89230323668697,12.064008189548307,-1.3762308943773416,-1.801512176929108,-8.305608392123702,-13.316171204265943,0.4026906171604656,12.470776732934729,12.555425073917775,19.689674134950714,24.828752785189756,10.890759183529415,0.8254008714384262,6.894073921312174,7.6217440903528395,4.738609470164546,10.85919075642063,8.854038248125281,-2.8314950308486404,1.235532604417012,12.212113920293103,7.119989055465233,0.8125581595212603,2.676959496584363,-3.1671966789238257,-6.257871617183344,8.370891588421092,16.673907207945163,8.9746113650359129.381589152594827,14.471197109524056,7.648895120274273,4.555349146255269,9.374730674574378,1.0330929928840016,-9.988519904424995,-3.1724326585828195,2.3981079126511746,-4.3081281217329055,-3.3980161790758205,-0.009148149324363475,-9.131643548610331,-11.174058408455679,0.055261867765999284,0.4866096533480806,-3.691587035629707,5.784918246334978,10.181893184488223,1.0225749252179455,0.06204378314905257,1.6686965567237635,-9.96507717394691,-14.460469236082414,-4.289269938455911,-3.946167630242335,-10.04541644443181,-6.18003109627468,-7.566558238817431,-16.39144064491508,-8.798324884996926,5.333115525521146,1.4823737024637618,-2.5428067216507815,21.783601345149712,72.6695071467082,131.2873045644077,175.17601632166313,180.78262087599433,139.62435473192318,84.59820874361816,66.6847096516986,83.31325292220983,91.5674755758049,86.40620792091372,82.47206012010965,69.34873155863775,52.840405859546536,55.17616452977142,57.38247469551955,36.2700380486004,15.9630227016387,11.268151506545319,4.506926091766168,2.0750243171183933,17.697422971523384,27.779139484737556,18.847595059099064,10.746920443590867,3.0796460511170727,-14.159404403726576,-21.265800139711857,-13.117317282804867,-13.787668047470557,-19.191445057520692,-13.458676872906075,-14.45643905211984,-28.761636229118068,-33.26295248775048,-31.455776263305765,-38.181953193475344,-35.69200514580518,-19.199499027980963,-11.718061067537342,-6.481755439174669,12.527569650675995,25.326709340812037,25.1573141201427,34.982713989020375,48.320102597058074,46.947159876398885,47.35158958334277,53.250658719376844,40.06715914851598,16.797562298819955,4.73791360740221,-12.65721414260244,-38.720608220444184,-47.893528151894614,-50.334938084407085,-70.87983901128611,-94.69540042452508,-111.26669039718644,-134.49278517740623,-150.83541653086147,-143.19501689279247,-136.96282675097038,-145.51354728940726,-146.75966136005255,-143.16583419482743,-150.14960506066802,-152.18054738817472,-145.46804287773443,-150.9742614049415,-158.79194477909655,-149.13016315618907,-137.69047884589045,-132.00177688818945,-117.02027636951897,-105.30980616090463,-113.17766171816822,-118.96034324220935,-112.63813017882998,-112.24454079810613,-109.52531593266555,-90.58553007967065,-78.35951204111112,-82.1905558985749,-80.413055699744,-76.98807160738154,-82.98584214939116,-75.62675082028775,-51.16716740623262,-40.100161126259636,-41.6694066475629,-37.02930357441061,-36.71175544900734,-40.92242336461171,-28.695294686499146,-12.41323903482667,-13.378839733921618,-14.744301893222689,-7.680190720669709,-9.410363542637308,-11.251369449543438,2.6397733360392834,12.91134015639606,10.333696317546936,13.44081006581872,17.005100949719797,8.942473295158605,9.514355844398569,24.235838338218606,28.8385812274426,26.940693541798783,34.52586386111206,36.34931524926985,30.279831311096817,38.50513738382644,49.45704373979623,43.97507088405211,42.2933640523908,51.537623376215976,50.79159233253905,48.165809481203816,57.66906275864467,58.81539354941188,47.949010839851994,48.6697938470958,52.08968132330612,39.89425155944408,31.984416691499007,38.96409026084872,42.368014202533146,46.826344600867834,62.348562840789064,65.84184873540197,52.520302445833465,50.13608335458466,55.39829208066484,49.94609508135596,48.28528248206855,54.39423142267378,48.479363963686865,41.875790768797536,51.743156770008106,56.50503935482236,48.558688595407894,50.2335838124276,55.023620068149484,47.42397315299615,44.90801883028696,50.44998606691347,42.457274434988605,31.787197548187926,38.59686782916549,45.857398310565074,44.78323962660812,51.50924465098714,53.8014023376787,34.137189929420565,16.50027401779601,14.97538693405505,12.662590771280822,16.496116564128993,36.42660472072715,45.90941289254216,36.971931402782246,34.132809926588294,34.23897902342422,25.258867830663938,26.2989151590344,39.54502448286276,40.76240956697302,36.75432216424524,42.07519765989095,37.589481493607366,22.65044797856261,25.315037057909553,37.7790177978985,37.72261798112834,32.397828522933196,11.56933408146042,-46.0086833161834,-107.66028914135595,-133.15624459958963,-132.04684096674634,-115.43039770112125,-83.54740620477475,-64.1101483624733,-71.86993710949679,-75.36838477906042,-62.45627908856064,-54.72117517813568,-46.97604323267696,-27.19513567649507,-15.541650174952903,-16.836350922589293,-10.981101043383614,-5.903270574620484,-13.69938196963192,-12.48271902593643,2.441379732074946,6.845017101888972,5.5490998441523995,13.477552857287948,14.72681746634391,7.873606736756116,15.871343030981494,29.540844120661436,30.191377718549404,33.78059790638923,43.16991466468754,36.86078256726768,27.74944580954877,37.61886095994697,48.27390283487504,50.3639549070588,60.317394904164594,66.08216994141907,50.96959896383784,38.30407487411732,40.00747624013433,38.34185935838957,40.78900169430276,58.92806739843066,67.80652373051663,58.59341428760196,53.77251163692877,49.660999073928025,36.24855645242718,35.27136900161655,48.31612904984155,48.750623234296526,42.13149862674922,43.23786278325604,36.80221425392159,26.425899049246546,36.82207909198339,53.092557877439624,51.48607867992369,47.505904012709706,46.88276138390995,34.39856320444356,26.83745737259975,41.06307130330435,51.755846929902816,48.905132032819225,52.1352567297182,52.82049188322377,37.72101381547426,30.16317394512626,37.35568513540262,36.87163110396165,34.928357186403026,45.19927534379387,47.079177973051706,35.9157346649817,35.25828638075757,37.8854647286267,26.814876194688267,19.761157008858298,22.484266818582878,15.185006796374463,7.260532632623585,15.085308322248272,19.492652605158735,13.926402850749358,17.50928278075371,21.23243853007122,11.349545589172287,8.898457766983492,18.8044752736803,18.22875985296385,13.22975830153169,17.271421145804393,12.076710843898418,-3.5130314134891405,-4.874267386137962,0.187332465354225,-5.418559445802009,-4.097985729368593,7.073192433507902,3.5275676972195145,-6.617241225392554,-4.020888498571917,-4.96887363026303,-14.394457596692817,-11.258808685014596,-5.192969486400523,-14.539452841406323,-19.935411351562866,-13.720460257250119,-16.396737928823974,-19.134681700755976,-6.86594179914636,-2.5314782818584067,-14.053363009035513,-17.861912008789634,-17.710413251067557,-26.281762308450848,-24.560590332967877,-12.47713759079955,-17.4374873598003,-29.57834689055229,-26.704613284572794,-24.407759386071348,-27.79307774029857,-18.98273322429457,-11.432086751258886,-21.33459200034985,-26.373869846667265,-19.842276491719794,-22.747730900258404,-26.780314766517307,-17.857669814675702,-16.031650672259783,-25.126683373729588,-24.170734367262284,-23.178990233706962,-35.99451678529343,-41.14455963392405,-34.20067670661855,-36.30072419601201,-38.37275492239723,-27.329991488380095,-25.216929083229886,-37.046395687619686,-39.57556478264304,-38.48754927085206,-47.04813416729896,-46.35229287891585,-34.81002254895653,-36.90754872455544,-43.56025256457872,-36.179958979710605,-31.592051625295813,-34.47661411603966,-25.83835074467917,-17.329296843866558,-26.5375578942734,-34.80559390997736,-35.42442950467342,-45.363274560679535,-51.164844637760936,-36.23524553477513,-24.73394772433405,-27.857443604798636,-26.536574652361033,-25.951118087119255,-35.88874776586254,-35.51087976795983,-24.54605187238915,-29.931492694930583,-42.71574654591356,-39.93653910451465,-33.421161472728414,-28.397730739864837,-11.641928978208627,0.07410036859861524,-10.540482330407174,-20.705984271132518,-21.534228358864862,-31.61824480063085,-40.27801538206266,-30.338818451719398,-20.250923088195005,-16.584713355160613,-4.22667214446434,0.7463291092324976-17.667746881162323,-32.337353782062685,-30.664336595983144,-31.815543928281482,-29.705611001864092,-14.84807254135153,-11.758303187143643,-23.697194899954923,-23.589913684538004,-17.298240677020942,-21.417943580131798,-19.567446591242227,-9.77236606287014,-12.91029773940675,-17.844383737493974,-9.216338677137768,-7.943004598468375,-18.462611823367222,-17.43746219205314,-11.429977945522115,-15.327840218310934,-12.70874647273795,-3.219717869329142,-8.354104826155096,-15.778844097540045,-8.58709524166616,-6.631433855473791,-13.529298644024651,-6.674779637005736,3.7636766509603286,-1.289923055332277,-6.3453125561692225,-7.230572493413054,-18.554238620702144,-22.475327925423045,-3.056298793939069,11.957834622055973,9.348033780669954,7.9101662220929025,4.25104454231129,-8.899911489710497,-9.88498522019792,2.1384157900181764,2.41952386275407,-0.2846394547098474,10.63728869576782,16.277221512405752,11.027810777931787,14.174090418046013,17.408397371610178,9.56441227322373,12.745375538674766,30.637029268433288,40.44023394022851,50.12797590906821,74.40273775747214,93.68240188586401,102.60010836057779,118.69875099373573,127.81416641129685,113.35851099493568,98.05217303305803,90.51312983574473,73.83839212576655,59.00513104645567,57.792900007475595,47.91973413843246,26.52972093652001,14.93685608241846,3.0901529577164717,-22.0154943399305,-39.86604832348934,-46.69537653255138,-60.68325218219161,-70.90667102930881,-65.80178980068685,-66.7024967655287,-76.73337983717468,-76.06907612070394,-74.96262629819067,-86.50378837087085,-91.04356387467566,-85.38615877477511,-88.41584675264109,-88.88182807613548,-72.60970190771496,-60.67961789354861,-60.296729474871626,-55.64122915852598,-58.492122464576525,-76.74345885683256,-78.96878121168602,-57.731193886323425,-40.99129843445584,-30.29285769917462,-21.10636167070167,-32.19848949497981,-50.88305371676115,-41.64596480919839,-17.585187221399455,-7.177711163642684,-1.6834031478347384,0.22230343224613058,-13.927826456099096,-21.554189296926932,-4.486828435175762,10.3477398283388,12.884244400830227,21.658175464214345,25.626327408830047,11.86635917558599,3.6419253332502937,7.517463207767584,6.112729063272463,10.716895531634613,31.464614347296965,41.710901524326395,34.72599820590846,33.6343247785746,34.05055607880342,26.002369168196793,28.377983244541788,39.15896841786055,34.61082203462196,27.930431849187293,37.00756258164981,41.54890228188549,36.036090281454186,38.664406580167814,39.20202606655185,28.893500090881794,31.42784458920651,44.47297876654282,39.43380355937494,25.745107478260522,24.29698075671999,24.83616688278195,28.428744333789655,49.12805288618595,64.92659381708567,53.93963305433313,37.558636050569646,28.583713876187726,16.492085310445443,15.644862427154596,36.65190619445972,51.03480516435156,48.97930824009437,49.45536669498112,43.76677499715928,23.738180840323224,17.632033873751418,30.546576634155514,35.92300842277407,37.0712796550847,43.08622280560586,33.82082138834731,14.534792726310796,16.69971607382286,31.426673149753512,35.21246627116471,38.23982128647948,40.6183535385632,25.345565085607774,10.278792079099189,13.873710891724581,14.428219132782633,7.339377362304058,13.895203710483113,23.842989451232377,21.88153645718523,23.30200956419777,26.578004932612668,14.701576258242781,5.968253053298172,17.18590081097703,25.22686464254231,21.607575491786356,23.281546248472736,22.115585896453915,10.0519335405378,9.831376964233398,21.257266097256398,18.19798869127815,8.886741515764523,10.20544048882121,7.783894612665128,2.7681166539520796,13.40117711190272,22.672665237378894,12.874954562444778,4.167227975211873,2.397153908156729,-7.107305969882901,-10.084728163429046,4.117330751363665,10.408898470482752,3.779674418212286,2.829959081402207,-2.199926053968866,-17.445050897149727,-16.347278500329345,0.7011871715091456,5.652478390397689,3.267347884778424,4.183995492954464,-6.805595546532151,-20.441739396263312,-10.992708706432472,3.673824828669289,-0.06191225818875168,-6.092726004049675,-9.353715662569419,-24.16001748474443,-34.47753755977733,-25.818145567124464,-20.6783299101446,-23.183146696506473,-12.491658250254387,-0.7901624224394292,-5.409590510727905,-7.3044331370521896,-2.6766238403841713,-10.871571332001334,-19.463102869298723,-14.072278879315512,-14.479131308210633,-21.266739297731345,-14.77220537926417,-9.683384539120947,-20.068640517814927,-23.452246629330173,-17.028959331295557,-22.224950608003276,-28.24623958946576,-20.47300447557225,-17.19329139529298,-18.875413476276165,-6.201930527837354,4.142008104941933,-5.440770677627991,-11.564544352486323,-7.480332325075296,-13.08797045559117,-17.114847119286736,-6.039211288254131,-2.2423080319792987,-8.462115686454524,-2.811404865213674,2.294350472179418,-8.958683615846141,-14.657366015649211,-10.33266491492358,-16.86396206954002,-22.62533688287744,-13.702150797493234,-12.84718721268889,-22.879482269422017,-19.48639303820878,-11.35236006764603,-14.6788243898053,-12.521521218412165,-3.684976547936304,-8.25530536017261,-12.947042041603599,-2.592905170103552,1.0020873216240394,-6.435792045129361,-4.383662330819339,-2.5326515456402388,-13.66029752758814,-18.529372765991155,-15.634467272382299,-22.84111427500028,-25.575552945169648,-11.486818251015512,-5.398884246122357,-11.557251077351435,-7.964371412817858,-3.380079014395219,-10.604149500036122,-12.180496295950885,-9.750871664026015,-22.444310921383725,-32.41618442475955,-20.621099976432987,-7.887874950244841,-3.290951900144472,5.331119827554489,4.9318062854703335,-12.162469091153817,-20.06777670590246,-15.826805296271093,-19.13213382162844,-17.926263358598767,-1.9177818171248209,5.82425643109322,2.9500594660309316,7.034143567382544,4.948512654856062,-11.113439946016706,-14.312762221694701,-3.935485898741815,-5.306687055628744,-9.210875408002511,-3.0591026160440276,-6.504933235746083,-16.64165373629653,-9.267033213312217,1.3278686655443095,-2.3077735956748406,-0.5801103289671399,7.787626987290452,2.874293508826543,-1.7924445883600595,6.3167624527399155,5.645049941498975,-3.3385701258322746,1.8562094656872605,9.357173268110705,3.712754748410215,2.4624452737117988,6.926163241529461,-0.09698901806445726,-4.019584364639808,7.159170139288516,9.297866545739192,-0.7927362194310001,-1.2494859183291078,-0.12807195934781962,-6.91514308323706,-2.4205012046433807,8.941295969961526,3.410809087863605,-6.243901810958141,-4.05116242717907,-5.47099691880723,-8.266403253397888,4.093776523702409,12.342563751349743,0.7405561709907804,-7.1060655070337955,-4.415359882084047,-7.9317635463632055,-7.232616745320319,5.871471950256532,8.014758445728624,-0.33895454691281124,4.400923391418456,11.374045956133019,5.811473491974165,5.160594952034114,9.481800712122523,0.4334744062771376,-6.991770832489989,2.3535206163007,8.134800134135677,6.873034704913861,14.9502520781289,17.338387449185696,1.9492325906886476,-7.016091070235974,-5.44484650671572,-12.562013414214544,-16.134201855344436,-2.1986885590432452,8.942237926167605,12.549165459049354,23.384148966466995,26.03850438718292,9.089339641580988,-0.8855623920653601,2.973268253325374,1.1360718113301302,1.4380809767599991,11.537160660721646,9.081636433983855,-3.946229781750169,-1.973623211777984,6.1369536019614275,6.5789611388058615,15.148413803298775,25.726666997241164,13.980616976053593,-3.02950717101364,-2.823416695798711,-0.7495774241934704,0.6704584293886104,15.432924018652653,24.006254725317714,11.004768085518743,1.7960712343237724,4.1409145380871495,-0.49319968353601107,-3.111090042186178,5.949231280696561,5.030378703868461,-5.474398168883204,-1.9710611655606587,4.588634609480289-1.3086954861979039,-1.9764194205576846,3.5702555723483744,-2.1660393180910407,-4.958921892257947,6.7857925399418555,10.88777405298677,6.156214905604329,12.160637695295192,17.010294693766088,9.76520912252573,10.13995153229694,16.022998633225082,7.248928120618915,-1.6518205388725284,2.842524627557432,0.3233127286087627,-8.487457197694507,-1.8147867098159822,7.743635929140085,5.858268562974474,10.328802917522296,17.633934504674034,5.706461285599967,-8.585748747045777,-5.912025242336182,-4.295959010240887,-5.395661049202169,7.748462169758362,17.612121578567134,9.083350499921107,4.51547068704593,6.565819637930237,-2.5252736693326017,-7.231241290719075,4.3597561942915215,8.593263420140346,4.260384936742878,10.968805539607525,14.460299241470494,2.142173184178398,-4.032877045836699,-1.589133921924856,-7.931383686126565,-9.852701423972704,2.436562926214272,5.1395975106491845,-2.48424467986555,1.6869833992080747,6.096409133760034,-1.8973817680502547,-1.8727764275946621,6.334429691985548,3.591737353270071,2.7301654906144304,12.289734409026579,8.610885905219071,-4.593874895787703,-0.9547357255265516,8.916544091615746,11.21805853477984,22.44249379829857,37.68548410165044,37.34885525621627,39.84440574225118,59.28936325051087,72.46835395430075,77.97244229046947,94.44057923089267,106.58406299467848,99.64654924052095,90.63179947549926,78.08829160733711,47.09431269955688,19.355260695678776,11.849818257824781,1.884930535004103,-13.587599561006563,-16.922369661669713,-23.914627431985814,-45.7865346306474,-58.540325945813116,-63.47535179954531,-81.8488716403468,-95.12624399874639,-86.75730274853564,-81.08730153378004,-82.23886811548334,-72.64180286889676,-69.8898543675358,-86.0073184573989,-90.55968196517526,-76.90064128715237,-70.10774764653189,-66.09352995332713,-58.11605739246849,-66.91794887257151,-84.41359096200068,-79.61177491544186,-62.611209562986204,-52.913774710003594,-39.785823965391344,-29.495524593046838,-41.9176250604663,-57.04085967536675,-53.152207719355516,-45.966999656050575,-37.411996176765896,-15.74996375250083,-3.367040511369703,-14.066310042743806,-20.72485646416066,-17.080973097051505,-20.471235277502956,-18.18585176746848,-0.8673633085499892,7.571840653763788,6.089902592247093,13.401430702224939,14.301052531868004,-1.3886075009458176,-6.810745744409047,1.3678708770519457,1.596546234924822,3.0161062648816723,14.436934469681919,14.93000519057863,7.98253046620793,16.39193033935581,26.012171433774874,22.037482141245285,23.342318239939043,28.33018621131113,18.040363062122125,10.04894111558152,19.777337968096983,25.9542362861099,27.062410115342622,39.91520947300706,46.437414346938766,33.584915409861736,26.571914935185777,27.94261568804044,17.54948061250043,9.779415928378155,18.427901376989357,22.714469494008767,22.025208413041014,34.18660270374273,42.291528798169765,31.12430558396637,22.208449645360965,20.919420861741937,13.242167036977829,12.945364730403991,28.387439913251374,35.04245082984811,30.60091631838135,34.00299500227513,33.647577169346675,20.319009135277053,16.11166943056079,20.151430771999923,12.210695923204085,5.3876033548029,10.710769164302443,8.052797016439303,1.0385789602695432,11.429335060250082,24.01528809245003,23.49576001664974,28.10283231049948,35.20498435086322,24.36655583383893,11.666826334182552,13.178731115662988,11.621964571796322,8.612036565050548,20.014006697154336,26.46190247941813,14.974733734021044,10.371565224978776,15.594225881375326,10.091952189820335,3.6275348446995004,6.891062579039488,4.639160562652602,4.538474054835679,24.070517253309628,37.52793845039055,23.834065174342804,8.34588206984099,4.484834678365422,2.097493985186059,11.20232494312584,30.247584836429915,27.5831912239258,6.27851623329706,-1.6702337230824131,-0.1680871909508188,-0.7117246313185566,10.626779742421261,24.59014069679145,16.412328289862995,1.1739576481653944,-2.9904610396522497,-10.205052663337815,-16.726651320418707,-5.853536159214967,3.092292734920602,-3.669727985312311,-3.8553588994968644,2.6870402690798043,-3.4850461665730528,-8.493843248399468,-0.861081589744451,-0.7781743264843164,-6.1050721577348135,1.7892241043039898,6.447363322641239,-4.334594401361714,-7.967879490848421,-3.952763750469622,-11.31315771061468,-16.289407754994393,-8.50161585349149,-10.061491075658235,-20.06463346379905,-18.577225984892713,-17.789117724894016,-26.164725161086036,-22.427483590296056,-11.117942559951391,-15.510543160821772,-22.927716213612957,-19.70590116916749,-22.18338356433798,-27.083141777940757,-17.879700266485237,-11.829699266739189,-19.728070651646423,-19.04702000210596,-11.28677438100219,-17.242626882433132,-24.26053216594402,-21.799358976409003,-27.716154029338536,-33.791803095302676,-18.38722859231428,-0.9954982504800522,1.1751608381388938,4.723634081009291,5.61201938801221,-12.40009370163369,-26.76336382134981,-20.226862603824678,-14.72138992885504,-13.661508391342817,-2.3654952709728922,1.5931211094191537,-12.568543429819519,-18.635733824316784,-12.872328978864484,-13.811549354436636,-10.040309750908955,4.236103630591733,4.720338809221326,-3.4561302863822596,4.06330351976923,12.846741546761189,8.248303385776719,7.359104049488314,7.894470658193515,-3.8879900867153934,-7.214303717272497,7.69892855783423,12.664173972534417,5.152889262975323,6.614871109453849,6.482395321207999,-5.030286904657979,-7.251577380418158,-1.3462278853785643,-5.463975782765608,-5.234842878536119,8.142821133506338,10.099877586875774,1.1164790312418775,4.2940139481183826,9.570371773838394,5.138767885509952,7.2902662607276945,10.61288632909756,-2.8788589339169537,-12.37845394357463,-2.220879380047104,4.3736449015334316,3.701253819262076,10.15871808037072,6.9471841068745395,-13.587838068311992,-23.849706483828484,-21.069218532626394,-23.550011571340193,-19.396290257650417,-2.3705521180673887,3.0401535925265817,-1.7582824073093124,4.303546004177275,8.805759597234905,1.309097332085642,1.2564662251416163,4.821605985775961,-7.089503366124436,-16.8271561703058,-10.178297886308687,-7.457221889753338,-8.474544220993117,2.419798214004354,6.820324099153485,-6.00346035957011,-11.112656933152142,-7.9411857843694555,-15.617878107093562,-19.6650436921495,-9.474754464140494,-6.593848819054579,-10.411912303857854,-4.049214488347781,-2.672515089772241,-14.17167151348573,-12.94406954105251,1.055469670895187,4.071863386597887,2.9621991015692997,5.804741159531955,-3.8093758806644265,-16.070519153063064,-7.65006465173621,3.678323212166889,1.1292246537839565,1.7166545304034675,3.245160770424868,-8.961613848823141,-15.469592755912824,-5.032367220751956,-0.3357181590308911,-1.0770866869495843,8.876323247743546,12.126107212145373,-0.6409638937812216,-3.839243061493074,3.2840965527734154,1.5168166872747322,3.862702499739268,17.186755508866973,16.572524928301025,4.762375094615933,5.148936194097541,6.257863340376803,-2.0149345277705137,0.30880156298027384,9.263600474720782,3.975383427662812,-1.117099332927556,5.679428061933153,4.06843051727699,-3.1280064325002788,4.521142852564559,12.818491786108549,9.088831735765648,10.246321589644172,12.473155567076294,1.069666995450845,-3.440477795786205,10.080508294323081,15.450173060620346,8.728939320781432,8.07229334705117,4.751354484777796,-5.261797683359679,-1.8425061756152799,6.124363689384178,-3.1773274965907783,-10.959551658055176,-2.132888288192004,2.595004790013475,1.5976799383729208,8.839743106574028,8.843949076197367,-3.6353233184202534,-3.1771762054268353,5.776708585657296,-0.4004998437107812,-7.7777847671798135,-3.7711740817881423,-6.857275177555753,-12.55954876952129,-2.768403601175235,4.036394662567291-3.6681325409279255,-2.374831244752957,6.576247399510371,2.5577795023334566,-0.7694614723668963,6.485158498478136,3.449779257268733,-4.995411105156417,2.6231654754165126,11.367225566089228,9.073900544403593,14.21177076852371,21.934871875546584,11.95861999357574,0.19702079228451996,1.557494753254682,0.982866927482565,3.710774193067055,24.687092176183533,39.8357645443954,30.98160938674758,18.13386019079535,5.902108235125684,-12.91194637725155,-15.940306021335402,3.336921146780436,14.1119484185675,12.584341015517795,15.836077182799498,11.424548596221248,-2.712607434309592,0.7785896635732996,16.255085746687058,18.245402956091507,17.517975997825904,21.110417343232,9.470091774628397,-6.160938411944849,-0.948642742207773,7.282855161966382,3.548329825267354,6.9225264002370555,13.63782974076494,5.299389823533333,0.6165740516121143,11.079821961905468,11.613762879686053,2.9695439507550985,6.41266561949181,8.426428219289166,-0.05153641033124856,3.1495981380149525,13.829392345154044,12.11060381829908,15.380287466379517,35.97323780742224,52.134978791780384,62.76598024779766,81.5962864025787,91.60324367293703,83.97966080125599,80.57401935312996,78.21901389810984,57.79055531384566,36.514054254891036,30.582378483747984,24.35762354264389,17.588011846670746,18.35317154390537,3.37932571901766,-33.9933631948318,-58.43034071325624,-60.81877527768215,-63.37720224737316,-66.24659545002433,-71.49558979404775,-96.23946475912935,-120.34791393754494,-113.08125136805303,-93.36454167715263,-84.09328195988678,-76.22786423757775,-74.75379586500142,-88.6363111589695,-92.75555110667234,-77.25689030449831,-68.06133039341302,-65.56762615758404,-54.70012357880097,-51.78502233781868,-61.39759045097605,-57.92521855915093,-46.844022738990176,-49.172895198933965,-47.0264249437264,-30.235862902363202,-23.074359100155156,-23.642407278309477,-14.506128308477749,-13.067242785213736,-25.36646575857398,-23.34454360207372,-10.775113839733706,-12.320652593908132,-14.604665830333834,-6.440806006973686,-6.775986847460079,-8.832732626980182,6.9145916401659635,19.59662726532899,13.936519935048949,12.00317250693432,15.420406753223407,9.261361436630471,9.621627543068415,22.982761266660845,22.94683582515028,11.707103089620333,13.536500296766992,18.808348154559063,17.342998550878754,24.931166413660357,33.98698797660204,25.087738332701992,15.803899829952492,20.22880846593303,20.177094949290897,17.633047088062934,28.57485781219213,35.400032343629995,26.61739486974966,23.21557549554729,24.165620950041898,13.696856623251524,8.375100779497885,16.650993325858398,15.90798608400486,10.903729340532728,22.54285065617815,33.532480513271445,31.109721176360217,34.93369975524603,39.70287843527632,27.683707583211568,19.5863203566611,26.700693864102195,24.746909649171645,16.369419150655443,21.890569428851638,25.13485409750335,15.429916366705612,15.605322665123378,23.002213257913002,17.059205210829287,12.632095607614973,19.527487643218254,16.102561017410853,7.924974522689969,16.93024257768606,25.95104387783619,20.398534518407246,18.688061141056828,16.844911542954286,-1.4346960943147131,-11.98679512068235,1.2356281944810927,12.529926850923742,18.614953376212668,33.25720516228441,34.63813066681795,14.865145963290917,6.318928709663921,10.812433019193312,5.360831899319276,2.37947140007866,11.548823145210498,11.20682657689709,6.460480858948147,17.456922643402965,24.030189169437126,12.272611552708415,5.634920470693833,4.978703348991119,-5.092989606318406,-6.782625539679017,8.105631823190075,12.756029496753996,5.706324824573292,5.639332423909853,1.5575537108286996,-9.819375297876894,-5.135305326018484,6.854143522457213,0.7967753189094045,-8.288278545293219,-5.625101916488219,-7.304201151224621,-9.666936703147925,0.5593228971603681,2.9638412360267816,-9.244486003393028,-8.713584972983401,2.5478149350943626,2.8419948656500567,3.197712089467064,10.154794548344483,3.8383107651047967,-8.590720396295612,-5.998481470593474,-2.9962927895338884,-8.929541117278648,-3.4651402539840768,7.932811730303783,4.498411321011059,0.3607396010058428,4.831650586317289,-0.9351607604667445,-9.977072069272422,-3.131323170613485,1.7973033740783515,-7.371784371509806,-11.215495929967366,-12.180144869154296,-25.334658244235506,-30.984618819979495,-17.730569569374957,-10.128235703403684,-9.23051054734124,2.7814647974337623,10.268685921093336,3.2358754761579718,3.391761078750708,6.490961260809765,-7.16900156142511,-19.947632553392427,-18.66066914399845,-21.530103852932477,-24.01962811524367,-10.50225620742061,-0.8030377880986217,-5.541201555551396,-3.569350614674649,1.1376634630453897,-8.612009623455966,-10.905582813815764,21.080554201915277,78.07886604864343,135.24632125529143,171.30505116407218,170.00452281095554,129.7492604074509,81.68316107563416,69.26662414350092,86.09548485998826,88.86740567270854,75.30605872836914,67.55023157374816,56.54471009706578,40.2398035567702,39.68980381482334,42.54005503042227,27.731256853932713,18.39249645275791,24.93272236509562,18.699028773344896,2.434180221490583,0.9217220559223014,2.182565966137407,-4.09394086247979,-1.6917349175335066,-0.1714475887905208,-17.352320782811244,-31.00100619609802,-28.253184327524497,-31.392196261230925,-37.888040897523545,-30.967372139431763,-29.259553662107162,-41.43986918822016,-43.02039315871031,-37.17267226146063,-43.51424037486171,-47.24455998152977,-40.801216806090565,-46.018232521183194,-56.96554434354237,-52.933338722024885,-49.395286564516056,-56.458338991154605,-55.210700514160635,-50.633213027380236,-57.62985651537847,-58.39559594775322,-48.44182972087539,-52.82859385946765,-66.09979772149764,-66.94221777078738,-68.08646384044184,-74.78683339322787,-65.7096300375891,-50.85938390748929,-54.055537695771505,-59.431286383553264,-56.693327574738205,-64.63664545506634,-73.57968155014736,-63.09910413802832,-53.57161747398163,-59.09372315199795,-60.68162215080217,-59.625685393954726,-67.42095141549605,-64.97391470150092,-47.7631668066305,-43.64665434159505,-50.987720296824676,-48.69208536524998,-47.60816690676931,-53.83007657079322,-48.470860360559556,-40.59821387937862,-50.426541160027284,-58.232813095543236,-49.72994094024149,-45.26360153717868,-43.77681558642961,-29.69511637068877,-21.605266296739014,-31.159264068047634,-35.02493420157562,-30.957392782408817,-35.128653196268814,-34.0228968760282,-20.823666272696595,-20.02121206394034,-29.443975106466628,-26.888481715520115,-24.107583172281647,-29.420230551663312,-22.023253482419754,-8.43214128526245,-10.968042839349396,-14.605698917865578,-8.856314585887564,-13.705213879150214,-22.250551242397353,-13.894474018937245,-7.955473891530605,-16.99186015993021,-16.253758449927854,-5.054244220580612,-3.359167849626019,-0.1882495395558017,10.162223331951083,5.720330266809306,-5.7798828182136655,1.108880590850518,11.291604645970299,8.065526955191727,9.173838031585372,14.64896267858112,8.724864397038996,7.1483607545212475,17.682437055095992,16.58248214832062,8.263702524255908,15.101554538618831,23.23832569277517,21.46988848354856,27.386210546124264,35.10140085432285,27.369052752349162,22.312372341007034,29.48349265083467,27.042820740914873,19.267209842719545,25.24428149305001,29.575526814645322,23.60633084213086,27.12570175674403,32.40200886808831,20.935942906677887,14.748761778042594,26.608776858810714,31.978360973464483,29.239743775267122,32.66193110804605,27.92867963185634,14.428272562577332,19.7336696856875,36.261665764554834,36.92413854513464,33.20599035456402,35.77522869005095,27.726142913215483,17.885971781677842,26.25822893615186,34.05091109067512,29.320008162897196,31.7961219256756735.96263765095037,23.94449544948444,15.050928730229035,21.29611671618482,21.554539369366314,18.494726114965573,29.438595848384686,37.10327558668359,30.85689114214889,31.251262506309345,35.03363763303611,26.36298375575827,22.716228013646035,31.83425203351563,31.045684547061217,23.636851423999527,24.339355013179105,8.856935646705367,-34.75336402395408,-75.7488922270836,-105.3977770421917,-129.48475538369766,-124.90987466880176,-93.21857908765895,-73.37231316222403,-66.77957242263561,-51.253231639410984,-40.50567243550233,-42.98484058177072,-36.584440005960126,-25.1729254585483,-25.77489124541405,-21.279444970997215,-5.29484004848308,-1.0911242850990626,-3.1783270275780637,8.80248525107983,21.12978523482113,24.663215211483987,35.60856290360082,45.45876037804589,37.88071371573038,35.488560490339665,52.04703175204634,65.21237547605033,74.01873423760797,93.30585757932023,108.41397224319114,114.00212783561932,131.67416725240093,151.49575226093071,148.1994880538469,138.02837952116477,136.5522997265887,126.68210330854029,110.14020059827695,100.69075392647594,83.11119666233931,56.479130009109845,48.14346583083347,50.839659430179175,38.829198705519524,22.740003426653125,11.45266116704553,-9.601343257122853,-28.232216400192222,-24.588588121872636,-20.230683504603558,-29.618176223776025,-32.881065955462184,-33.785019797480075,-47.88155355961711,-53.648820011798755,-41.442368630126055,-38.66968808680291,-44.020685902140556,-35.07084886506361,-25.374642570713583,-25.432718199706976,-15.625299881364107,-3.7976375736789603,-12.721065450840138,-23.431066141029586,-17.997497367497978,-13.284055912108157,-9.016504840432123,6.646335983646478,14.616762786411396,7.862052806215781,11.446018822374294,23.016520192254525,22.239931601545592,20.35710266539876,24.295498252029994,17.422968872978867,10.047256152164188,20.979011360517084,30.131522747204748,26.737657555248422,33.109158662380935,44.33161429143043,39.93504265925654,35.32063213946788,40.16573289770959,36.03585278507052,31.621781192559276,45.84346509169978,57.19553981721593,50.90957089560013,46.529442779545995,42.33921909845354,24.961996929407505,14.276622592618477,20.749064458632745,24.569749505955716,28.82452921944101,46.016866109953426,54.76473622760085,44.64249598058111,38.532762633156345,37.45766802620951,28.77815004985577,28.074690422414196,38.24499625075252,33.70706005020712,19.8818318835405,20.19059736997347,22.785328679717708,18.862631675044828,26.132961411874504,34.802380567335895,23.616460849195125,11.726141167309077,13.117970916439052,8.976501423031422,3.005402811338312,11.63847653385958,16.8382475672449,8.327557834977508,8.192213378199744,15.020764075482269,11.5164437195058,11.593899972860127,20.35901539875545,12.825630160877544,-5.624444077910891,-9.104968170314217,-7.351256044635319,-9.610154726078552,-0.8501781704931495,5.57000955421032,-11.88287210151731,-28.750681714618352,-25.70964827589672,-21.96243515727611,-18.691364974766675,-6.783746973283034,-8.576950300616256,-28.01214826290327,-33.171286661878405,-24.35504460570597,-23.738391189746714,-22.303217086256055,-17.131945338502597,-27.517719982991625,-40.70047689504244,-33.79438602420515,-24.016610552871512,-23.882202697508976,-18.87223875939353,-18.19318946558011,-36.95099196139254,-50.73133865985955,-45.09281149719297,-41.887045244409094,-41.50503180370794,-32.06591321249597,-32.97481026901505,-48.05852271506936,-48.76082448557605,-39.32061627828635,-42.92457228774569,-46.72184514396025,-42.267801167257716,-48.20887313130611,-55.634194343610496,-44.232281646818564,-32.54875665759119,-33.54306403245097,-29.090440848550195,-23.42586997229327,-31.79712577797955,-36.45177964318242,-29.86540906596558,-33.63734478450639,-42.003258763672605,-36.198473743566716,-30.973787569779713,-33.38839428022741,-25.407440864555987,-16.305742619979398,-24.740178566452045,-32.35291937814448,-28.29226031946277,-31.040682048083813,-33.467013808548586,-18.73304915131938,-8.855687806635027,-16.110519697518342,-18.0451545557683,-17.918340630430862,-32.44758559944022,-40.0790957499409,-28.492574132038463,-22.116559766189923,-20.81079071670978,-9.348322773315482,-6.609242878926657,-19.52665559398502,-20.853962222573042,-11.738885467083884,-13.18606026926588,-14.679789316943115,-10.641544682514517,-19.381398355344032,-29.76424351298035,-20.2799631946369,-9.441158690068473,-11.136257926585257,-9.791326705564263,-10.252699829187575,-23.379418045356765,-27.245540429387756,-15.752842515707638,-15.789479543033544,-24.99355425849666,-22.161263150100652,-18.304318524881612,-19.52393799241765,-8.151749908906421,2.8154431355030054,-9.09188911949892,-22.783747452830383,-22.360468397781624,-24.739632575266796,-25.427701640077494,-11.36375672253648,-3.9091948448963203,-12.147263482772049,-13.145700881008842,-9.78946711926125,-17.829883982882546,-19.082217264126164,-5.807612432070204,-2.453816229778661,-6.842198379764593,-1.1778292042252052,-0.9131449898270425,-12.170269796752544,-11.29585458518067,-3.6994963000252303,-8.814825174855926,-9.399379989368029,2.772083443105447,3.7427252974245016,-3.802944152601679,-1.2079712336901132,-1.1123686525196443,-7.31743569552438,2.106211681501698,17.569418041420995,14.571535241295575,6.19134200649447,2.9612581904817996,-9.652091642608099,-20.14089684176144,-8.257623599591,6.742492702788741,10.353718247733257,17.437358778518817,20.496834246339425,4.971541816571242,-6.166389870154362,-0.9779761042772743,-0.5138195179141236,-0.42554899502492877,14.353285681366971,22.377223782118957,13.690372433694304,10.72656787988857,8.827637038391494,-6.64606879960046,-12.443715116069036,0.11213414614553319,4.20005348189726,2.4648844086690564,12.127962490798105,14.613876421685628,2.7667077242060705,1.2090684270354632,6.213551040524219,-0.24463968342425568,-1.9151827753020836,7.253964989697572,4.03201232064337,-3.9102817244400097,4.982945804487942,13.59036529795873,11.620924991401266,17.95337282146481,25.221953460037735,16.82389556331212,11.966129656840762,18.867875788856143,15.938160259323462,9.380469226316862,18.06448046463322,23.624164727106354,14.659534962228847,11.778231476042127,11.32722275407124,-1.8058300093571757,-6.332192219041154,7.64233086874236,14.811755442213169,14.515593437416097,20.72831799961697,17.00174325291991,1.100851720159402,0.9756718099692114,11.511710570655762,9.91499399766236,9.130996974166008,16.66343550164863,13.192512460664176,5.629087815749852,11.28700430378042,12.683353865166781,3.0205670655827395,5.827301722001211,14.660135619224082,6.949956316646494,-0.5529241855354299,6.669160402908262,10.564481703675579,12.846895924054557,25.78131466076514,27.662683829697464,10.511680183472684,3.4406224189993866,7.664274502281336,2.696573964164182,0.6849608371105322,10.79886353886557,13.65215373233002,12.386299802377476,22.202461152431013,24.767235089928633,11.704630381237148,7.6484252479399055,11.719557627630454,6.287342614259369,5.228572516059539,14.736072213176195,13.268069598510117,6.2507650478854835,12.23233204955298,15.66129339776432,9.303912875312028,14.05151253816935,22.13119257631032,13.06623108605872,5.38433747432167,11.566556949341471,11.403799408143827,7.817184723432261,15.806535588789032,16.91927748614914,4.989605557335441,6.087571557510751,16.178100865714345,11.881699386972599,5.148206517964505,6.555061173467601,-0.468628113167604,-8.556229615477111,0.6455693053424518,8.376339670326033,3.7683261386257523,7.89688436765626,15.5694949005455,7.92267959945415,1.364923261377509,4.903507925425651,0.5804340896252831,-3.3363970121211683,8.006466607512474,12.291977155421527,1.3240710379667648,0.20321686668049725.691952207977086,0.41533444272070685,0.5109874001949035,9.688870583580673,2.741380975237077,-11.180023921113705,-6.946833022871018,-0.6333613066512798,-4.214768103960072,1.632194851202501,9.436835247188094,-0.33735905625297935,-6.788538194572752,2.4723204512547508,3.4192745727117595,-2.7457203077121304,2.6604603484571334,4.520530682323329,-5.66456235821466,-5.770505836289464,-0.10530433228330516,-7.993261174190431,-12.692537045934156,-4.370390955970172,-5.3021506797287135,-12.01563550876082,-4.798377951941867,2.811345749779854,3.0174893329809915,13.562316733574292,23.657693962838536,12.1954302256675,-1.013896610511019,0.4029426014369273,1.9215493041654186,8.204600538765748,30.31120299339147,44.80645597929124,42.98232491749364,52.04188895695417,73.13683565262191,87.43518701492113,101.97357094877644,112.58989333683046,93.33702662662893,59.11231877988273,43.68131557135677,37.780765812021514,27.174332217605752,19.15716433674336,0.8274023307097478,-37.12701333154823,-60.691822134788104,-52.790085090725896,-42.21567065349153,-39.04342013734449,-35.717352395076105,-48.64437941206219,-74.86286461007569,-81.31923784401538,-73.44848218118497,-77.29310101389632,-79.80859423782971,-72.20923498821259,-75.7144670940792,-82.33584494594314,-70.51502788352116,-60.2501850023178,-64.41813941718736,-60.77410332644931,-54.015984200389525,-63.06285136538316,-67.89628757444612,-57.25380181064946,-54.23421201804165,-55.83770644731709,-45.18780490868797,-39.89880242401713,-46.58994960561003,-41.704358153656884,-31.63498033027102,-36.85861336440531,-41.12165290194096,-34.875919536445,-35.688120815760165,-35.00022389301621,-17.543155255252053,-5.538680008780313,-9.23488563352149,-7.333885410356827,-3.5390093662704345,-12.045295511312306,-14.599121957323492,-4.3619320238551955,-2.5222840590493094,-3.9138929208944426,6.183004233415691,8.62424667367986,-2.742111346241672,-2.919502259460249,5.77696968801053,5.817913195854134,9.710388466573326,19.75309296980093,13.253981121856958,0.32005063807010625,5.515610234139523,15.166715133888355,19.34720893364906,32.730826402804425,42.241284188583236,29.082977987375628,16.85389443324042,20.624364785064554,22.478607528394736,26.477557892830042,43.52453810058616,49.92960365161402,38.17830976585724,35.00505222175716,37.85360407696096,27.875202469451125,21.30838445488484,26.283122089248494,21.563914513677666,14.948499750552504,25.578859840430994,32.44056337710145,24.307239311841812,24.33052385096572,29.356312466741684,22.874727814252417,22.970512671210408,36.16084626613108,36.83565262125524,27.27697886880167,26.729874116103147,24.303116689062698,17.534291093527052,26.48492999251107,38.001485374630235,26.686762574601588,9.356599986896665,3.2880978143490918,-2.076164231137919,0.43339231620693364,20.065131847348177,29.423422577018982,17.595985633940813,10.810520007992105,9.365415636763277,-1.0352908158849656,-3.039256537112971,8.531993807832173,10.503208831280048,7.8274385094210395,16.208528493208583,16.930912062359397,3.3671500025423153,0.3701931177413318,5.150785099869668,-0.35160416477194456,-1.2089689710524412,8.226301185630081,4.934536473901371,-3.890197995029314,3.2682300032268077,9.51041581156061,4.672220649956048,8.607480916017758,13.13546867673834,-0.25228695165391457,-9.662052348180913,-2.8799396336915835,-2.193145405921301,-4.521607342130724,5.349121436592409,7.765587534531971,-3.3939680342241916,-2.244626650530278,6.128764742060128,1.494944276503165,-1.1410446192666486,4.450078837996971,-3.3277660978390533,-17.04667011241658,-15.111789851356837,-9.94831767722022,-8.554988028622997,5.204195709055793,18.198434478307025,7.775004595850218,-7.564874879816909,-11.03635304502463,-14.874214668976583,-13.767614477720322,2.6757479406831672,11.470054457738168,3.0376061310737064,0.24738054907730356,0.8599528820588667,-9.25076886614533,-10.841323299339706,2.925417119124752,6.9658841668300315,2.884460346965553,5.556435976122522,-0.5297009144040414,-15.170084580793372,-10.616887327663061,4.5821301728113415,4.554998790597285,0.3589558464600442,-0.40756722831741565,-13.901884089312851,-27.135285875182838,-17.533157228193353,-4.247703257638715,-2.0679886440367765,5.527586525777033,11.837693211453164,-0.47469489756231553,-11.22034346704604,-7.05914172457149,-6.944904243112558,-8.321652094898067,1.6217528960809107,2.928540347970903,-11.143841531992955,-14.059657383205018,-6.073413102789287,-5.7829143395977844,-3.8780443255857397,0.8489996961724224,-11.141451770344101,-26.436801910388034,-21.28361380849679,-12.86142460989133,-13.98568139395449,-8.389584030804237,-3.4207931803418457,-14.465703265538426,-19.550436565795394,-8.251349890537055,-4.156567299483079,-5.300314974539934,3.895482899127471,5.89980546218275,-4.9834570374595835,-3.1494365919500216,7.03543380159263,3.711593719154185,0.1026837142408451,4.096862525383777,-3.983042548034886,-15.995494519289263,-11.529834616782818,-7.21385395834025,-12.602166396919982,-9.110067657230205,-4.169558424894933,-13.495345550692237,-16.88488997421088,-6.676205741241587,-5.857319084336074,-10.391441594684238,-4.014219607552166,-1.8266690989536147,-7.793459028355507,-1.116398742112247,8.4131386690143,1.2252826101730636,-3.9119011845756364,2.541865156962855,-0.4312443014861498,-6.915021958920962,0.6131935379609184,4.037562669241877,-4.151066297579472,-1.4309737013234045,5.696002776087066,-1.5664226475720597,-5.766964756702639,0.25470697958808186,-4.983471298843967,-13.746885826985176,-6.321279483634826,1.4743557626758244,0.35598409063258996,6.290604210897966,9.429083630122756,-6.6353115820837845,-18.428671671770395,-11.73256443046332,-7.249257788621154,-4.098298343539337,8.823127161404406,10.680784382379784,-2.8880438514416387,-3.9094665066564316,4.43024521935533,2.2397315019413533,2.3410972383342274,8.855232635364374,1.1871460021858766,-10.669435979779864,-5.806429146725182,-0.05123925929968909,-1.7162599497768474,6.739543027262535,14.983656526304639,4.265727169467538,-5.6260767556673725,-2.8852474089096214,-4.5046533026909135,-3.272390781257556,12.69484690495393,17.409210056286277,1.5870995258140628,-6.439966889562502,-4.737133830298461,-7.714424293947275,-2.0342867812529413,10.435975517621884,4.295208674011283,-8.184888480424014,-2.657605999330693,4.1868038557882565,0.8794746137026883,3.3405496260120455,4.597421308709383,-7.1352026406258755,-9.457491879240825,3.241135350970586,4.287792037547502,-3.0249527975432473,0.26172127281182433,0.9637756590083238,-4.863358691518597,3.558106178246335,15.556589433454365,8.876542728152776,-0.5943816449028734,-3.02914344857633,-13.977954560210133,-21.649706080730986,-8.062057136577174,5.174831330204088,5.212219374315182,8.447123086294566,7.500864680061634,-9.664922166527795,-18.26341720002639,-8.747986536139267,-4.491349260529678,-2.5917357482605476,9.0055363156393,9.192316323034246,-4.99674488187167,-4.408072058793465,6.391880727182332,6.368396877779313,8.922988142649839,16.969418500510745,8.084094202763804,-5.794376122495457,-1.3898449340510122,3.6956094906796344,-0.672510795758245,5.386672747959105,14.367286751601734,7.197281649526465,1.4080228041269554,5.478565683786636,-0.2949598643646416,-6.563459129151183,5.444224977949219,15.080049071346028,10.26203271479346,9.613318842141531,8.313887401465749,-6.048050483036764,-10.900574583164719,2.126300454979229,6.537971500213374,1.590985694835968,2.9232397888071384,-2.051381355811504,-13.247204333990792,-6.319255544088475,8.245133100823068,6.012969381401407,0.3667733308648342,0.6505861320315776,-7.880743365276917,-14.586485321910539,-3.21615746773849,5.6460960942836005,2.379865622598924,6.1531104347840919.084219400191666,-4.680434425365396,-12.759868535061655,-4.676922521139102,-3.2050675719563793,-5.660402334810637,2.3614805134923875,3.3322643775914162,-6.685426080282788,-3.499309084734098,5.742483601358722,0.43093648326302914,-3.388514649557089,3.440906236909477,1.8577974285930194,-1.7604588783512074,8.305664915753377,13.155954625826762,6.456606753602443,12.070502103283838,24.402516426233902,24.38212629456821,28.797697850321992,45.90764672639226,55.42537247215614,64.0666861509532,86.38219681005616,99.0949197847216,93.48096488003681,94.70994316269278,97.80710087740208,82.1389804531492,62.81990996349903,48.58259749471775,22.65977634878785,-2.3674162223080533,-6.501715166944742,-12.247734662930375,-31.92365929604479,-42.63571076879874,-46.740885479081726,-59.68675817772422,-64.71477336739942,-57.191473627502496,-60.24957734553128,-67.75835150696739,-61.685618847097786,-58.030495685496724,-63.268650923344325,-57.533999103024655,-49.07346269060459,-56.133371646772574,-61.6815989864499,-57.9091152946029,-63.29897236216624,-69.00437854433027,-57.7842208229347,-47.8489073790322,-47.20119680014882,-37.66705439798102,-29.806515791859674,-41.660550939256886,-51.508500058061905,-46.73396569338696,-45.13026769424807,-40.16229124081189,-19.483041634955764,-7.701834629503964,-14.272385040749784,-14.788018723582308,-12.310851916578134,-21.706093288757362,-22.46059530412658,-7.725323221266182,-3.1706286004614888,-5.012248724367277,3.420599655174248,3.773490945123327,-8.867998020537488,-8.518843217105516,-0.2300995801891621,-2.9834584315394315,-0.5704327814412771,12.120913767491755,12.039912457642508,6.748509367818169,15.27017295043443,20.554976516944983,15.689769213992706,20.928894824145843,27.73244978751835,18.4637845210068,12.764129676487698,20.14325501570646,20.07150816998685,17.329509958993878,26.007545111592528,26.892110180269157,14.863262658771852,15.47842482225945,24.883109034768708,23.49320846051672,23.63415001988347,29.26450542726924,21.018322501453852,10.797543534043843,19.12376997836948,26.505381568267488,22.078964086508606,25.106535211548685,29.62471069389948,20.129121051767797,14.551127744092156,18.71986174797819,12.10675109112228,5.3669259154625255,18.382322433518677,30.14560672776693,26.809313192070313,24.972525088885,20.141362041044346,4.487432090832159,3.7952085068471724,22.806392229822176,30.434453025558746,25.42281420752966,24.506916526281156,16.80215808628981,4.278957008540132,11.051144201155468,24.55328012879265,20.33073937503676,15.155174186201021,19.15359125248424,12.570940181223936,3.076465314714165,9.460649094626152,13.35211789298095,6.654145142833423,11.269789504487788,19.13498860726866,9.45398115980977,0.869314292893973,5.3149825694479,3.1437012043452413,-0.6340011352194281,9.06472118086855,12.145800423311305,1.6685805515938474,1.8745453081433465,8.074096260331993,2.0652847196293047,-0.9437143499441056,4.970501234520333,0.3407251127309441,-6.0087640706394385,2.931646086052166,7.799078919173614,0.12555924776290572,0.1539723234224626,2.030306713746891,-8.67087056762795,-13.177752808188881,-5.492894156323809,-6.105420223627658,-7.302561531654973,5.824126311554741,12.103317219142124,3.1900972376764773,1.4012964761122357,3.1674124390532477,-4.999667923572696,-5.006347646491006,5.607269250052738,2.1782449450402748,-6.230102410506905,0.9311552337195366,6.190990523291959,1.3405241566602148,5.11636909497508,8.281220129117479,-4.463480824507967,-10.435520148004104,-1.1501452091130853,0.1683656221944525,-1.3893520979244993,9.153429969513894,11.152625067716697,-1.9438838889631453,-5.622565905910555,-4.299451689368976,-13.399149462742319,-14.090967400201762,-1.5713832392278961,-0.8472608637567236,-7.736887468495381,-5.681088024739211,-8.978679637542083,-18.394138642654315,-11.03325720178661,2.1341141297753716,-0.8861964988400457,-5.604641728820964,-4.880700896389114,-14.35557214061443,-22.243396273718588,-13.299041536473398,-9.299067943244806,-16.950436738707594,-13.41010483631177,-5.613907638332446,-11.628813338573032,-15.373484023211363,-11.219990089723318,-18.538327755535146,-26.523539582773253,-15.714144227737826,-5.7485209227994964,-8.112806270498243,-4.899875335380767,-2.7361894297482463,-15.35471824686001,-20.473373636211925,-9.80708798992696,-7.74563832566133,-11.487862126636378,-5.311833777542918,-4.604612064726575,-11.450219446855263,-3.452975859953481,7.499029416187751,-0.6256928329318532,-9.833813554634604,-9.658701325598496,-16.754855498361557,-21.34138631737647,-7.9484066762599435,1.1005723690506515,-3.4657204971644164,-0.3317388805625128,3.587390126330065,-7.837219710403123,-13.191199833817757,-2.799071967180443,1.3475607246714034,2.281534991826325,11.19979043649664,7.525845305875283,-9.849818525187974,-11.475455295699824,-1.92420913783398,-2.0608324647883105,-1.2343817855243528,2.1403036148756813,-9.316221476897615,-18.838076568169672,-4.864198589454951,10.418253056693244,12.563336547484962,16.081352787565002,12.153745249330452,-10.28416797428229,-24.457397562361187,-19.31100020784507,-16.676361906481123,-12.795249124698614,3.9656553168032733,10.97583117589423,1.6827606908643369,1.563283876044794,7.329171289883835,2.427351766092573,1.7801784679715074,8.229753030908986,0.8779854648035714,-8.521121923123237,-0.4055695473575396,4.82035284387684,-2.1667036330212053,-0.6846308151931884,2.9157948868975687,-5.03308604802187,-4.464201205412894,7.292895684721654,4.981621273635207,-3.152230664050172,1.7747864655907453,2.236311734147786,-6.682606437710985,-2.374591288590618,6.06887632823763,-0.4283831570566319,-3.4611370295670247,4.371048863689804,2.3884041655269654,-2.207973503845887,6.04617320639959,7.839535518456883,-2.3624425264288593,-1.0111580309065955,6.227524857738791,2.351348148481469,3.18316281340655,11.988119220163028,6.7806944672730225,-3.576051203064547,-1.1298954565188635,-1.9594466847836136,-9.025534338199916,-1.214331462851601,9.396944233888808,2.0027124246712575,-5.717461671244387,-5.283056880733698,-13.339663275255717,-18.32877131019313,-4.928934098305703,2.915930826885215,-4.365399066127139,-3.1031494941153346,3.236594875170934,-1.2967270056060696,0.03803255256994609,10.334213051971362,4.97514222027549,-6.244067916896698,-0.08544152139500394,6.843827015957712,3.560954269278735,6.075898924388684,5.370337336122143,-11.18584088875378,-17.6202626028629,-4.33378598489054,1.8897000771649977,0.49584251708000115,6.1888509588267375,5.0806303427688775,-3.73842167720432,2.4430144284540827,12.606079939710485,5.990770660161113,1.0914739782080318,6.526525478506696,1.9237637317188816,-4.828751821257809,3.615288126619338,9.241151584080262,6.342390929515833,14.812745947606134,22.842001983290395,12.304440340169442,5.082815829323389,9.993122965093834,5.405709792711944,-1.3439287658101031,6.170043222183921,9.254527267356801,2.9181544515933835,8.248974384112636,14.289740152041661,3.058733339407426,-3.881855041069082,2.2821225203553523,-0.2846791058781486,-5.2229042509680195,3.5586988643413555,7.73595462905258,1.4680591885644758,4.776707174318531,7.696506877490492,-6.186305017427023,-14.598799626176977,-7.691945192272531,-7.15187030741748,-8.902264174845012,0.6366168861475074,3.0649326112768396,-5.2154894791993796,-2.0507676467838234,3.7759718064272483,-3.995782073752095,-6.156254042176484,2.7819249310874086,0.7818487505619278,-5.125387324955145,1.535013309975981,4.1263520352117755,-0.9631570049302849,7.3452341116613855,18.462553807059706,14.336447949757416,15.41418917876488,31.244737230382935,43.60155616747912,59.876566134290165,91.1300051308034,111.46937364942481,109.76208277954021,108.84893240126917109.05584674816089,98.48755770312191,91.64438916879237,87.64867863870558,61.87057422498576,27.803882328586738,14.856063880338262,10.784623865706081,1.607570211266785,-5.828202258397138,-25.049675209074994,-60.96662891736234,-78.43632805529607,-67.96483184920619,-60.436552408653505,-62.4665915877212,-65.88473131677247,-80.93279405198932,-98.52685917685955,-93.69897151668188,-80.94975054779502,-83.76186490847581,-86.92175353884906,-83.42538614901883,-90.28464391219228,-95.64765416061176,-81.32394308738317,-66.97664478740664,-62.514286550284965,-51.60367652639074,-44.65870215887026,-55.16477138653498,-57.15158304164138,-41.41589774313974,-34.34240478826231,-34.923659007994026,-29.04435846508399,-31.30427018117132,-39.723539198540166,-30.314132530989134,-16.568898764845446,-20.56927994220005,-24.87748405640961,-21.937416554698878,-28.50466846191633,-32.08478125691867,-16.690508030766594,-5.378619598406429,-7.863968915763965,-4.098574540714425,-0.3710725714798173,-8.916128884399507,-6.603479681224242,11.977410872470017,19.13697050790058,16.632127311568542,20.13168702868412,16.891704684981335,9.171667077805903,20.105153892419416,35.43145432081727,30.2606139213373,19.882732874113575,16.121136817955087,8.828064343805803,10.53341966068722,30.30258464127331,38.56103501664714,26.308116839170047,21.407370015796147,24.365704929778882,20.92575564861395,24.821250763083953,35.161897553515516,28.598963486318546,17.21914082651905,23.358334763510086,30.95627022667179,31.592787814626906,41.624150514690115,49.0227817823574,35.14510492314015,20.586174716072946,18.70215124920687,15.954756847071707,20.21291151348175,40.176707356384355,49.39250761653905,39.002949677948294,32.464924825193435,28.499571158218345,17.32065937892062,17.569414886072625,30.633998787863806,32.59888669296899,29.66994837621892,36.49970413080445,35.32405450518873,22.91376984341551,22.069115768471335,25.432191661671144,17.548563344998904,16.811867673028683,25.84673803102377,20.56262097710996,9.429086991099396,11.253296258806552,11.254103786538334,7.498830626337605,19.8239759037991,33.60799757353023,27.510435516742795,19.659501178710457,18.583185451152247,8.213180242505773,-0.36151948405609424,6.8666126241211405,8.433785461601417,-1.1462428384002599,0.06244923240383171,5.268575746135109,-0.4524139294511178,-0.7318317507659087,6.003334950058754,-1.827106798234503,-12.924742182639317,-7.751633683958715,-2.3780809312915996,-2.368244411937079,7.402128492484745,11.506325769266988,-5.22769988563259,-15.937675986133275,-8.887858469448886,-4.8949939575338,-1.052840100709615,10.677213853548054,9.362530234452937,-3.814749822010149,-1.6841724486069665,6.379708045441249,0.10986475867463241,-4.425653939199267,-1.9250523816164633,-10.326805514723311,-17.962524881852335,-9.662796561031925,-6.264621383114748,-12.383425660212826,-5.9709742219867366,3.6225621423942154,-1.3053030312542195,-3.5261482184856585,1.6473282894823575,-5.767354858792618,-15.188887119772343,-9.106475033949383,-6.179940189385479,-11.944379046547553,-6.0007962105001145,2.0331038168336755,-4.008151077864152,-5.827215629959613,-0.5441381943576551,-9.467079872893136,-20.06182905876383,-12.53272118110868,-5.000049446764777,-4.591441323294993,4.790157577052884,9.427044400531011,-5.678244660309403,-15.143109999558535,-9.332747155328434,-10.22972796600249,-12.880228413137825,-4.6598413327854304,-5.263898577732493,-17.457228221610006,-16.441296503323628,-9.305900291711922,-13.822875850997107,-13.444525008911636,-4.4687046639098575,-8.988164672235639,-17.965882139117216,-13.248369501876564,-16.91090741429922,-52.382595912427476,-108.68925345830966,-163.20163018282156,-198.36345098527897,-199.4158373184844,-163.24842124767326,-119.76215078804572,-109.50235613271718,-122.26792825853941,-118.64699357522412,-102.83664303908041,-94.75255982441058,-83.14404620174139,-69.84296275032077,-74.1115223731978,-78.9582549072866,-65.0242161067429,-53.493594830346865,-50.23016661298664,-33.44473169547155,-14.058890808029993,-13.645395765471383,-16.976047753999502,-14.972223948682053,-20.3690315576384,-20.455861934819236,-1.432578530110697,13.994281567126187,17.740879879942298,28.175063880676284,34.88098264877401,23.42163627898794,17.29155677885799,30.254305003711988,55.244376978985954,104.81024678516812,176.8195456756096,227.8513206400869,235.26399190030912,218.45690648988995,191.16235768872713,163.01212762122262,155.41603604933522,160.91507834631958,151.4439907684095,137.74124797023052,139.28692722959806,137.47541858226634,124.60322825114908,119.76416369839,116.30677388243564,102.4908478520914,97.74009570067213,102.57812682002283,92.54250696741234,78.88562785931504,81.92452770786403,82.15445522711715,70.0594036631054,65.75737315089876,64.6090262009848,53.47649478874695,49.27339618818564,53.657911354463366,43.794958177732354,29.01614777937742,28.60083402761513,26.032050394788634,14.379128705596626,12.160137233930088,11.581520677034398,-0.47184848043763417,-4.541387915754399,2.617038953641382,-1.5864622213882544,-9.424915411773597,-4.48599838789874,-3.156207642846164,-9.875967158391955,-6.572918101181289,-4.539252507863561,-18.65660040519494,-26.63328189986874,-21.034131710490563,-23.371122943794674,-28.05646262524934,-22.780050729531922,-25.80778194400522,-36.708628713761485,-31.133363494362282,-20.989501695751404,-28.38523576552075,-37.9508787448787,-41.20254939184783,-50.5218940186752,-52.695898485974894,-37.02851104894079,-31.165452468158886,-43.730028665030886,-49.79156381150176,-49.86916670187677,-54.344096621400055,-47.91782494450088,-34.884759576766626,-41.1820452930956,-55.45779607178764,-55.43526289312454,-54.20366716087371,-56.33674733906863,-45.641807455885605,-35.724123123237035,-44.11344651029424,-50.314873988826214,-46.84448909868371,-53.05823045280121,-59.2619347992579,-49.956739174518624,-45.125848276668506,-50.60315593740119,-47.126032089583944,-44.78825101547128,-56.41784338870365,-58.936238934042166,-48.392811256520666,-49.293411481459124,-54.50194204700009,-47.892380705055835,-45.12039656347032,-47.16623846575064,-34.54140376618389,-23.300077772501478,-34.76726091314375,-47.3119526498438,-47.11585986367333,-48.43508393944411,-43.53755133690909,-23.764796776685497,-15.246919122189276,-24.784767202354498,-27.225727502225062,-26.138479830342725,-35.0458640214061,-35.44787183081297,-24.382565288753234,-24.138609456378088,-26.029164683605547,-16.063501746463174,-14.125353681184405,-21.5082295622186,-14.701978546422868,-4.165009423651369,-7.703799303209026,-9.137815083227094,-5.454643778491178,-14.445939435693996,-22.697806306213362,-13.713455404863055,-8.719305584052675,-14.524924832957579,-9.630426781263552,-1.2539061729880556,-5.252341256970175,-5.436892639641954,-0.39092229465730277,-10.91906062044983,-22.153108696213135,-11.261579454205732,2.9923388363327517,7.918657710158795,15.734839680753682,15.173336298084376,-3.562110724449834,-12.85863913638595,-4.462601537077045,-2.080240078654705,-2.238428023676579,6.138243786123839,4.511037155336821,-6.634742215104103,-2.673605654329032,6.705068927795335,3.9125368233893143,5.379172886791323,12.332450851342243,3.627965941142776,-7.482328907466679,-2.2842822001425107,-0.41303862540319053,-6.330234391451475,1.620732169188826,10.928153363556984,3.0019233830658494,-1.4322660003245047,3.365648700019148,-2.9412664464553333,-7.940157725405401,4.743500734951293,12.525668021941595,9.683503389680126,18.48009769002161,28.39075193459098,21.812828452078406,18.66167865190366,25.306474464177683,22.643578450166274,21.911809419078494,38.633872386736215,51.33616944953944,53.73100770091219,65.97524775951236,78.872307538104,78.135748392302381.35698126610933,88.03055755511198,74.75768903754339,51.236864432347396,35.58661398033008,17.316961719184373,0.6197463317998517,3.7202116401202985,7.266178721749042,-11.082913156651582,-32.44990291267063,-45.16017534320293,-58.881797183638184,-58.79679361194707,-34.905128496463774,-17.229036500987004,-17.447050580351902,-17.24535835015331,-25.007657850804858,-47.67595771174622,-53.35823702167493,-33.22513404866731,-15.932705757718677,-6.02427243279292,-0.5664406646007425,-19.115308513106285,-48.01126771691101,-45.23703237205251,-19.360973563546636,-3.5076483820144837,5.249545544913682,6.098635485795734,-13.231028762483607,-25.913502893302077,-9.649991053430675,6.035168814289753,5.043267192790587,5.542233470626105,3.0951939337312657,-8.203161142163154,-3.650065727563126,15.364321881811202,19.473757234652723,15.338534659166928,18.760084691261294,14.767976111189054,5.858557676650156,13.957283533493694,26.579032718400153,26.510041220154356,29.3137500369006,35.83437262757397,26.91158981911316,15.236296875393911,18.394992511816685,19.84761735033664,16.379344254780882,26.396716862557664,37.13163123039599,31.21155102684633,26.599765327629314,27.691303525935766,17.325753037504445,10.5237052064235,23.821498872964895,33.42019491572111,30.415421292369643,33.177851905923134,32.195923857438,17.62919851082953,14.578263779692408,25.165651112698807,23.457006040714063,17.55854250294789,22.934211783800542,22.069733849734234,14.785963744317321,22.929455881698356,33.53898429801452,28.629761380136586,26.44318126139367,30.063852178441643,20.267195004396065,10.316904724467086,15.728259747659719,15.975050229140013,8.687501825548207,15.93868487732172,26.807991356918915,24.18810380623559,22.844292961567938,21.336919537802466,1.962737385531721,-14.019385173125716,-4.106573013820285,10.185448154709992,17.31795817392696,27.70791014455782,25.138284226290914,0.8894412242134973,-11.995373087664465,-3.244707499647244,2.3202779728709295,6.61421393717844,17.570164825105746,14.131801472514091,-1.089454943972254,0.4110876848328413,9.182672221032666,4.101251970514046,-0.7286346124214163,-0.9799407434754135,-11.753908000029506,-17.951955855088613,-4.1107074906419365,6.38574324339861,3.4979663456818963,4.0995633254964385,1.2571135492787788,-13.679365074401098,-18.529434482150474,-10.58917334847607,-11.301100831282666,-10.804225866295953,3.9059683570612824,10.782542064659639,5.831407065635134,10.083084716265818,12.461066486845013,-1.8382718883478004,-11.049084526463634,-9.2178053210399,-14.454106770058846,-14.65266986051852,1.904214167535419,8.271513156522348,-2.5418352370778132,-5.756715349727934,-5.237255362603228,-12.706889546703248,-10.336635159506239,0.31002611514174117,-4.54047872657147,-13.128508590591467,-8.606599028387919,-9.96086605508509,-17.878407108662753,-8.40241089473168,6.1045242928486605,5.60873346351004,5.758268961761558,7.244694536772344,-8.953987344723794,-25.490480059808466,-22.606173928469367,-19.885119410922623,-22.285223109132797,-11.591476451069262,-0.866718322475498,-6.840654452844702,-10.885786652018906,-8.43944960935265,-17.06893198295908,-24.015834361311683,-14.491035751146981,-9.032265982904466,-11.06927435746074,-1.1009577900856975,7.545439992055177,-0.3357210732386351,-2.6158900552296807,4.760958695477331,0.5836516589372382,-4.720364947253583,1.1185431847058105,-3.5107974712861747,-16.87690577629677,-11.773249602100854,0.32124455718840794,-1.8964938622238598,-3.4141657384590642,-1.112944989995805,-12.052243065211801,-20.103432011107365,-8.58692287896265,-2.1392652971325417,-9.529522148407963,-10.687297428368524,-13.539603213146735,-28.835675378316843,-32.2270772818779,-18.006336856162285,-9.365938779189381,-2.4867744127229816,10.812850475431476,9.197999959632167,-5.582767887580496,-5.598295387947372,1.547079163580404,-2.1150340212422947,-3.2063869017967033,-1.5006588547549218,-13.137475398397216,-21.482523531310058,-11.037862911045812,-3.577043871042256,-5.027528193514138,1.212010952292152,2.9184222923776275,-12.227762533024347,-21.77106912511276,-19.304517183801398,-21.398164832329748,-18.39831940611073,-2.8609770484373476,-0.5575806103034466,-14.03940026074157,-16.058799488288805,-9.484974708948187,-7.919679618003485,-0.10076110546182537,7.827686953060481,-4.938254186306811,-20.307913253578523,-16.536237566031392,-11.555057152131052,-12.073638462173925,-2.7130865912383744,4.017070982979875,-4.169555524054417,-5.851992641116023,0.32550995981812614,-7.592682295101289,-16.91051823920641,-9.53959172800198,-3.302392183082975,-2.7252260698788193,7.966741150657285,12.669658489630605,-3.7912602673651064,-15.007746562387963,-10.809328569580535,-11.172680932634773,-9.250106848277714,5.029464148831308,9.15083192953278,1.5402864348080731,5.460639832746807,9.423809184710803,-2.442190719814513,-8.213259790817824,-2.1298397712473807,-4.786830817513664,-7.378782226871795,2.5404069407053687,5.1932999767382135,0.04878338265624871,8.436391403296602,17.02201433645738,9.298439207744059,5.491273932739372,9.435263438211173,2.293446378635589,-2.6782198145938865,8.263796147669714,12.720707346557685,7.046478721463898,10.265565412467343,10.22203280657224,-3.4665182363911757,-5.953480993600499,4.513102008854275,3.1033341794742237,-2.0135282196531907,3.0107581039390046,0.7723271796337161,-8.154657572226089,-2.9645005561593947,4.289074632958041,-0.45609139075309457,2.8282842028672475,15.015077415887845,12.168489014477625,2.510502288534904,1.82694711404948,-3.0907111769860682,-9.11965974814016,2.947483061155361,15.376951079155754,7.241814984192541,-2.9136222411069452,-5.742782148289572,-12.706924344750806,-10.802218891550377,8.691611321187649,18.39370073394041,10.882125136378423,8.766404576489409,8.467819339949822,0.0485757510550906,1.1343640607041168,10.750802670445491,7.077881988128183,0.8004228216555194,6.806916801650898,7.229486932295163,0.6567909625519395,6.4793557278429565,11.725705032507406,1.6959284485908386,-2.8286910702620673,1.6788366826621086,-3.462299671580295,-5.0816329937964,9.510844580594322,15.750099543318159,9.055678465173049,11.331532295185934,12.672110805248991,-0.1452041719767756,-4.48644195260098,3.824463788701325,2.2665948958656115,0.2599078263829271,11.245713081151923,12.495933997383771,1.2528584399449705,2.6363615985468676,8.711679297031644,4.61191280293732,7.57304490424075,15.960568726934513,7.188734195868459,-5.035635372367987,-2.836390822362314,-3.933325080289979,-10.098386811457075,-2.1566461307105116,6.9471324649967405,1.7012837760257025,-0.7034246813285564,0.06205111129795049,-13.61144386019951,-25.020191338821483,-16.947845335178876,-9.564791890401422,-8.287857147337139,2.7631332449806623,10.124842851337954,1.6817260959011122,-0.4132769614312244,5.577538150786557,-1.113786028007799,-7.449756370130859,1.6709267120517257,5.89959340821213,2.3571550113289654,9.710085495131159,14.454547990419842,2.2650575606863788,-5.573569942915401,-4.331223456354509,-10.628375639137536,-10.952081276318447,5.73603282944664,14.013500181105128,8.755149467833576,10.590562912893885,11.456468112485819,1.8003114010607524,1.2503045828378467,7.51111765798842,-0.809935934094832,-9.420470128874651,-2.716302646348093,-0.07560857392884845,-3.7225424590057,3.4795804982108782,6.945207737535839,-5.158511904778103,-8.362781302174469,1.1709482651707406,2.004372752117564,1.8650310396682923,9.811051131810435,5.456919353077528,-6.8758325473787805,0.26562287426441156,14.978418516587901,16.956078105395,21.1643323137698,28.470240246906616,21.931496521870155,19.149956792596022,35.85425335163147,48.57801169062297,53.446127079945796,71.69881402303804,89.69518960555129,89.3869085806667689.6716475389316,92.89038749130357,79.67755572428173,64.60103540199418,61.12043046174826,45.72855354049858,18.96888024219856,6.470920985415091,-2.660820461054082,-22.882998646684516,-34.7748459305768,-37.47792853362249,-49.98647948587887,-60.41969083266903,-60.1247233874816,-72.8344336597587,-93.94966908244268,-92.2927311360157,-77.34113627364096,-70.34740673985506,-61.84136640623717,-58.96609753911459,-80.09480999991658,-98.4195103842693,-88.93305110294054,-74.75927564552134,-65.69181685766854,-48.7538889001661,-42.14061773859845,-57.434452046602374,-63.83123394497278,-53.08770480292022,-47.326592167676445,-40.07336156361328,-24.58127776579206,-25.6893106311506,-41.45331317382599,-41.9749636275399,-32.85642055949394,-29.23728032398492,-16.92065743123832,-0.4159524447653906,-3.5858548614586714,-12.951102449208152,-9.580082712924309,-9.799090511668936,-13.592924406891271,-0.4825046202616443,14.495588190889581,13.630020718419491,15.393118408510045,20.422987977367622,9.093199977812004,-2.1008629593716304,5.195895967849324,11.642148132688515,13.512511904545836,26.779726243291233,33.87546961826208,20.024815451248955,11.612250867450372,16.80367871761378,15.467804548380006,13.943006447687345,19.54309033919236,12.010816135323747,-1.2247005532083204,8.961615263973906,28.228642775825406,32.21207897330805,31.292624287588396,25.353807062797152,5.086818572111778,-3.542805529019854,13.946409114867945,26.886827374334402,24.42543922753167,24.7009046814718,21.678837853888,10.796105870879742,14.499351867739891,27.85607657175564,24.407941281557278,16.32313695528162,20.029487058294528,17.546371336305672,9.519472117664433,16.081049381904226,22.693189597232386,14.915052994794944,12.92005514625728,16.73304798244086,7.233848968781206,2.0643989904827102,17.561744452096967,28.93829232974489,28.19858014304183,32.34217899903722,29.88677529359346,11.994207640984307,5.168822894909187,12.425350094894402,10.610779342389407,9.979768168062812,23.049858453644884,27.810512137763563,22.351396966053205,27.20570649842864,29.913113539665353,17.53729732113598,12.614485030755382,18.382435151311782,14.558218612516864,12.61828938463991,23.89226138306755,23.997065911507626,11.009389104418116,10.10517312546984,13.672187174107213,8.494347158861114,11.518712338776272,19.211980549141757,9.009061757540737,-4.208250064724551,-1.9026709931986652,-0.5929678071133597,-2.2346129743915246,8.50388412051096,15.002604322544574,2.679148704453884,-6.4357768675749485,-7.5908843018255405,-17.461999929642527,-21.810321538140382,-8.414634773022167,-1.146444855865617,-3.889132463523654,2.363844285534983,5.515865728862361,-4.627313165901159,-4.772785805482716,5.08345445822429,1.6579393922893475,-5.405830098834092,-3.017546834964403,-7.080024223863699,-13.742681633213786,-3.0173466906319515,8.021751692502374,0.9017774012422195,-5.497162221160677,-5.951041179359086,-14.796044867624236,-17.644772091604317,-4.277074000460946,0.11253876676131802,-6.593863299999758,-0.8798457304738085,6.750596494892902,1.6875496540955526,1.9742077128117903,6.200372635817445,-5.154116411075778,-15.289969299855944,-8.385226496986444,-5.46098107619349,-8.815316675305683,0.418585126276267,8.859836425986057,2.4573779990382874,-0.11964589397926917,1.258668512188424,-11.137331431568139,-20.31805684146434,-9.736605703713252,-0.6016690737307537,0.38103347128047327,6.377485136356633,3.219608312119074,-15.82446682501039,-21.21440047353894,-8.45036534342366,-2.65204141318578,-0.939136139555115,3.485880647388696,-6.896379161492108,-23.411963130206612,-18.61691169332417,-5.646655965436896,-4.522960764063544,-2.642322557874329,-2.3006807944316696,-18.733482046421656,-30.774515588906908,-21.807405177684906,-13.909865872126982,-11.187935467804476,0.5601283430795405,4.906019175462828,-7.538590516810764,-11.740431210638812,-7.249859797410397,-15.129644965404701,-21.433671343562082,-11.665874059488168,-5.938947857232134,-5.874556539264845,5.414077083658336,10.357052735518552,-5.220906980472461,-15.644318411826747,-14.570288026418226,-20.90782371543822,-23.288781657500106,-10.174030661220549,-3.644097988598105,-5.435437587726229,4.022270646436125,9.782083628870213,-3.0539904647051515,-10.295395618044509,-5.277896956407348,-6.728292812308134,-4.414353987216876,10.172003586486307,11.132247429221835,-2.1555010221184983,-2.594890926270163,1.305229859737014,-5.9935657783597325,-6.808717874084904,-1.0428094098975413,-8.220872652382734,-14.122056708572208,-5.768028641609112,-5.640134669082046,-15.01341181227397,-11.575883979782597,-5.119683154710883,-8.506642013050179,-5.151333632950635,1.3645458083414268,-8.924698416553813,-18.76105134105736,-10.449127885560692,-3.442965919767679,-1.7806782756966117,8.134743277227873,9.16993138304352,-7.406143514702979,-13.058020487341297,-5.396459521268868,-7.335041976644142,-8.873820416248975,0.3360271929634653,0.9460460754312905,-3.349704954568127,6.398089712914738,11.55168465440525,-2.399917166656911,-10.939039060049312,-8.923863738871583,-14.267112688108087,-14.981360967525388,-2.015426948111015,0.0991026866545639,-8.081047629250387,-1.897460070774684,7.529641417659147,5.489618947588419,8.60394428306409,13.076156485772428,-0.4530786381961889,-13.275394366030728,-8.368186634563623,-6.051170793622627,-8.571331520089931,1.1192387460963165,8.154033410236005,0.5199920085486118,0.28894023369602606,8.188327790982756,3.8862461767660736,-0.09554900476941786,8.209156636264042,7.866683236726813,-0.26669568582795256,5.624494944393334,12.59487915202767,6.002166761909304,5.073820363794966,9.77271594824736,0.5453075101246485,-7.145671309612766,1.5104878935314305,5.422817497308574,3.113977183240021,12.108187261041364,15.939428254040273,2.8447877259216954,-1.2496733069490196,7.090989980800108,5.826310756948747,3.7335513417343593,11.053561608175631,7.720090955645181,-3.025147076942071,2.876572493734553,11.41121082598892,5.389446863371348,5.040032815500259,12.962774472918976,8.645474221360583,3.3526908146698915,9.003984604553137,5.248624558396246,-5.405419170688014,0.6772243724833986,10.092762918809226,6.664293005170183,7.908000578247969,12.147844106576608,1.7614135304075753,-4.9404195356169005,4.92216496109824,7.87582608866355,3.513067964104603,9.965589081722719,11.526255055669893,-0.26304726170588655,-0.21401044802852454,9.268366081945551,5.837487759498958,2.5032899172925065,9.654600869301829,7.209511110805932,-0.41111679056796024,7.7764854282620615,15.486409678952956,7.669950252716668,4.4349863422736595,7.249770370328458,-0.8049709188836665,-5.481585056989232,3.356987592893888,3.2627573660202556,-5.180143713653083,-0.16271514687857858,7.0542588738426275,3.6827748713232173,6.927048696758179,12.598445373273753,0.2870793132872418,-12.59811690819756,-8.971855942820218,-7.28591826567974,-8.282310153465652,4.452684326558454,14.205456542406775,6.988297533140106,3.4284537845378287,5.2802050955229936,-3.972929434959823,-8.292589983817113,4.357997486518114,9.056959164648614,1.8908864446826366,2.9941856660591624,2.703534945472458,-6.281237361193547,-1.3233208303413053,12.145705201423432,7.790660657369788,-1.451952594411409,0.03555816401787082,-4.686701477872212,-11.410852154505688,0.8507318084339905,14.581738493753456,11.432960096552394,9.083521380482198,8.548642244367679,-5.371485776471206,-13.504214296382479,-2.5090105051187823,2.088852559329543,-2.4380185638154193,4.7866660241132895,10.482433633365423,1.8676187409013512,-0.13706994728098365,4.243156883371528,-2.754391780318976,-4.652653526217373,8.9738581632125,11.709348341613708,2.330880213061528,5.431612835378367,12.382056775716528,11.39023260975980520.700074034290513,37.45608288161843,41.761989188300134,49.41405462651172,72.9750546331807,89.21095605275036,95.77499038976687,109.08645001666113,113.3983830096584,98.23034650512444,87.45925784080215,81.79891919052353,60.63652607702976,37.587797940394076,26.13017499430505,7.9619758162437995,-11.439304245066785,-11.724952320253248,-15.237984225330083,-40.11989774766956,-60.69307807160067,-69.01316616118328,-80.22605852619868,-83.02188375635498,-74.55394738459073,-82.63532043724128,-101.8851241303652,-102.3319120153058,-94.89155996627211,-96.57514448383955,-93.65590849750204,-91.07491926793712,-104.39670972788603,-110.94437781203234,-95.24739568876706,-81.72700229236905,-75.34365123171892,-60.3606694643071,-52.00019521285711,-61.000908203969665,-62.86175616405323,-55.04635885774725,-57.34685298912027,-57.88119047080858,-45.545278214673345,-41.33998938675192,-44.41067154698966,-34.2896811731027,-26.118665785113237,-34.00181611751025,-33.733501197626225,-20.636062081278705,-15.817951704077215,-11.322803112179566,0.7163301997447462,-1.444168524826563,-12.739205601258082,-5.882643477865267,6.4297961636386045,5.334001648405452,6.816735647740215,11.224783778193421,1.819255224632518,-4.752428033412603,4.514651831166905,7.2561181312132135,3.324313427643036,13.754686191648942,25.124822382399827,24.08398553304213,30.25076516951183,40.183464567087526,31.553615876127658,21.03544496025385,24.979515536803778,23.115784118962353,16.536366083463854,25.831210760301822,34.22060241316445,26.294185972444133,24.70345641609164,31.49270163228726,26.426674472328433,22.470488419874435,30.59871107905843,28.279162887168894,17.81185070308033,23.045691863332873,31.31256008147968,28.55497478135868,32.15595440796655,37.90777189480783,27.610853882998413,20.99405114777394,32.09785829755718,37.68244605436915,36.25735548281685,45.030189767083506,48.17120646259319,36.11952784325668,33.349187622813574,38.00326010701951,28.04837874868961,18.027598275028126,20.64527626119137,16.16200864262996,8.535432545384513,18.922880719986306,31.280660691946917,30.13863999274905,33.118426318184156,37.556225439711845,24.905558281850368,13.367434932365022,18.523741784071248,19.336048526858534,14.566625380655037,22.343471397837668,27.767140325604828,19.385768426078087,19.122850444194032,24.90437179723174,15.322333293029978,5.673447534149707,10.854195607116944,11.44231637823419,7.643786518264302,16.665581167188293,21.23810292021448,9.297637183026525,5.605122349020264,12.099237853538044,8.625478083914846,7.4791344640678155,17.904121604213557,16.73659064634976,6.355039586707416,8.750927248499263,9.990242306553235,0.17952874678787722,2.7692611332317023,14.456521938161933,11.23927756344155,4.806471337242667,6.18039346015966,-2.8440164701120016,-14.60962936220336,-5.915417466245702,5.106077296315217,1.0490084715051569,1.5133126793402396,5.906110978477991,-4.9796442666998715,-14.690019586467253,-9.4808532104819,-10.221273097506609,-15.080188871828057,-4.5007032272954195,4.67718257942849,-1.497835057660227,-2.5031394474775204,1.0269248131349762,-8.780518250331205,-15.655053376084544,-7.07261488411824,-3.5138906102590446,-4.468146108577272,5.050602961422668,6.208471264199574,-10.883516164646908,-19.022689470011045,-14.080609726415492,-14.327128034135935,-10.131546337278959,2.2544317724867415,-1.2757850311591654,-14.386885987616125,-10.535354424226236,-1.7665126433046567,-2.9740908511594517,0.4579723929778443,2.627977624315796,-14.294819909532631,-28.921355850980493,-23.788351703124448,-19.008019283001836,-16.177447530901194,-1.9358745827911754,2.9387018694859792,-13.02808611710134,-22.046959589810207,-19.27769035608357,-23.746239944604227,-25.270228683759097,-16.005115046031914,-16.83995917329752,-24.28025800691387,-16.883286487616186,-9.098048747632188,-14.556553588225349,-12.62855872182183,-2.257560897148035,-2.9419399633143044,-5.575851060508713,-2.5117296788658283,-10.765976013513994,-21.56418929212244,-12.43244168152677,-0.7829020136552165,-3.5167471212515866,-3.848256692275008,-3.8957036093192965,-18.11412560095301,-25.42382384615103,-14.32779338036814,-9.953633637765279,-12.81594531294221,-5.688263064888483,-5.494401198226407,-20.938566541014346,-25.346590663637528,-17.74936694035354,-17.652081977846954,-12.209655278597927,4.949862895515649,7.911410791853753,-1.8999958500128598,-2.1469868816709674,-3.7743143611550503,-14.177846373982506,-11.18569881087506,0.3653890763586567,-2.3796705160023133,-6.290287775525886,-1.1498890799808095,-7.112904041146632,-17.66438757082529,-9.737535943833734,0.5228338672877304,-1.4070845141700312,2.10906362344217,6.219254058339626,-6.489004884698346,-14.928753878678705,-4.791471339316307,-0.30974769023012827,-4.805879150073794,-1.0030381787775418,-1.3751465379075039,-12.498882215398789,-10.08477357814526,2.1526494464311305,-0.739599450607991,-7.372187053339661,-4.588664399197816,-8.56582029825644,-14.537537316383558,-5.102570579311566,0.6596746203049669,-10.346203974647036,-15.22360753667105,-11.30334678055168,-13.08208308578468,-6.673688818955702,11.329734574226844,13.634091096632043,2.796644512886356,3.160618531826464,5.090512105154831,-0.13195032515091487,6.233301196280185,15.936563207442715,6.009508850525111,-5.949593620355172,-4.788310897935497,-8.891028544614375,-13.974983704352546,-1.742917815566675,8.733674224945743,3.8934429272984024,4.586949144829733,9.212277931238907,0.7156324784843848,-3.6243331677064106,6.27792298484087,6.7183818522703005,-1.57210511228641,0.6240811300840217,0.7705924714373279,-7.212915163180372,0.2554881818288899,17.822786315102338,19.961095784423275,16.537897040277812,17.400155836906993,6.17688584597358,-5.924355300029305,5.220696616331533,20.089182955650998,19.904227388962013,19.868974803580816,15.144317179840781,-8.122636391548827,-23.382077055184286,-14.05837323910038,-5.226031702544601,-0.736686648502677,13.652631886383737,19.241317950826957,6.594496523015327,1.9436735822028561,5.371079516614544,-2.621634198629632,-6.652284530026514,3.850354512130556,5.737012330248321,-0.08557909416779141,5.985467262083853,9.422007267106554,-0.3210512923856772,-1.9570043440328728,1.1212733386566218,-10.367447562883857,-17.73238478544608,-7.040193381513677,-0.820501086293374,-0.021678534541732297,11.11845122847304,14.5637392979504,0.9719376113266245,-3.3449043855688423,2.090864904760855,-2.3863326967407223,-2.5702098404434883,10.932226533323373,14.311159840125693,8.114347665659894,12.636313070063329,15.300436242862839,7.15383532443507,9.906873251604889,19.067381809898258,