-41.62188623284799,-36.72225327239307,-27.97072070622145,-27.560530077361513,-36.279161016264446,-39.41107207569418,-39.88528053675723,-46.27136060939664,-49.66856329229546,-48.589880802900936,-54.020839818787714,-60.816479226970344,-60.495451935144054,-62.27381388478295,-67.8804527996815,-66.17858326081463,-62.256854221243685,-65.19570003590633,-66.10973431286166,-63.7193134125675,-68.57757816134314,-72.79673668693283,-65.58397257096964,-57.267557623483484,-53.26043353019032,-47.55846784979221,-48.00840932374594,-59.7190559032804,-66.60947782068706,-63.301363959608395,-61.11012843378256,-56.98816727089889,-46.343202975057366,-42.909394415127565,-50.387127145067055,-56.95564007985737,-64.53891380364385,-76.45286094506301,-79.04441366092624,-71.2484675976519,-69.60428809614552,-72.76002167666738,-71.13010582131749,-73.13062202864943,-79.75457441956539,-77.64884043825217,-72.76309346404264,-75.45547585450763,-73.37453355518424,-62.35668552383608,-55.499874896954395,-50.07428128755264,-40.24492147330562,-38.984518870088614,-47.87342451078559,-50.8421673462919,-48.76683608082858,-50.27348548398602,-48.244750487717205,-43.47464877253409,-48.30414701401297,-55.10228416174935,-52.21747298652086,-50.56384924996988,-55.18587432276944,-56.01684407674049,-58.09178794360836,-67.62210363526586,-70.23921329822453,-62.88100065995545,-59.74749836766983,-57.47925782365286,-49.01617136612953,-46.915872513192056,-52.36605279812987,-49.99521695845537,-43.6479202633212,-43.07740581164275,-39.84356712070027,-34.651933291105166,-39.83972984336536,-46.44816301247209,-41.134056089155926,-33.37392146002989,-28.664768023119535,-20.083104308288956,-16.844487464200505,-27.569532225132342,-36.1577868015727,-34.45014608403588,-32.666404488524336,-27.9136597898771,-15.741170085106718,-10.115463784096313,-13.25634257065406,-10.852848586619558,-6.5634147791268544,-9.240313370606207,-8.40263315743473,-1.540283100895387,-0.10308826139054339,1.2678973365891455,10.059708637312085,13.87398751434505,10.012052929419621,11.285153561087304,14.067981059731908,10.946394153740922,12.48426293701337,19.7290677616561,19.366323229008813,15.96532974391569,19.734628924739532,22.438295919713624,22.01370523002322,28.401446340842693,33.601467045976364,27.002330057821062,21.28143741156191,23.385538003941512,24.702814265720942,29.889594235497327,42.868287984748406,47.399731702285855,39.616080546978,35.2094803163466,34.87269045487672,33.00083303340514,38.37414757713289,47.859573176920556,45.708207961065604,38.57573294173434,39.048503084702965,38.9613805073036,36.876773172800675,42.99152474816443,48.22148685215325,42.30368943832165,37.684772307240564,37.869033016819856,32.1129716356215,28.039178737858343,33.94794632546696,36.5297854203837,33.60041906970326,37.65981413087851,41.76710806332206,36.00201969581424,31.74201128007937,32.779977315602736,29.238939401339515,27.5202539812244,34.50561812556016,36.112366682079646,28.644927791423754,25.032741622226553,22.292374921283482,14.08808434697564,12.081952848195863,18.213964666757892,19.847627102641137,19.942306308052686,24.110800866058693,21.409985888361547,12.159220142456316,10.884652674090102,14.515980971933315,14.870905363205193,19.523074363945195,26.363637586298275,22.573255380424012,16.15382727478631,18.193086775894233,18.389943110897274,14.207413905126636,15.731548546368963,15.166505893678456,4.459198746363569,-3.2999701189710082,-4.461714911323985,-8.563725566129737,-8.62188012665256,2.079707046642747,9.550633845305157,9.003457108949707,10.813965590138261,10.773894402264911,2.976664501665623,-0.25366101315468903,4.347023720797892,6.41865703672474,10.550319995878635,21.849754970551196,25.982289032462067,19.267624983074615,15.87543773002498,14.292293770930971,6.964346400379306,4.25896167563981,7.950783070140761,5.272363495865191,1.7201042387051149,5.211953479719167,2.3273069356496703,-8.44980105637936,-10.863435798517022,-7.167340827743271,-5.870698126795406,1.025422013769727,11.586376364482645,12.22936518357438,9.62720798816618,14.434112129974933,17.64775565833129,18.105837584957253,26.796630604706436,35.04679882985356,30.38813941583961,22.818042192521403,18.093927860171565,10.587900959466506,9.262120094451825,18.514861343468798,20.202482291589455,10.321057857156903,3.916155057232136,-0.23804259018824836,-6.739884036803265,-4.42967821365561,4.888624248083712,7.29358870187113,8.569048819863298,15.91038854442612,16.86620383721753,9.973458580571016,9.34826709224577,12.379105399604343,11.714893546048716,15.79059852479704,22.95761758181385,20.143927559959607,14.282047782852077,15.744468730555749,14.266165776909945,6.754844800234325,3.476263293131017,-0.9874427953550027,-12.202120225392289,-16.77280505568284,-14.537789037859957,-19.826542285028005,-26.184578136079832,-23.663018067818104,-22.197879173547058,-22.545626355780918,-14.137007987971115,-6.41578132148146,-9.138583103852655,-8.871862044990499,-2.339832738427032,-1.6747030585770764,-1.1181006033150283,5.355649887153457,3.816744911008911,-5.505057259587893,-7.344526289919548,-6.841338053189887,-12.25937792398645,-13.602042691144653,-11.8791705854692,-19.49798616730032,-29.141467857070662,-31.884651567785085,-37.262908053317965,-43.311592578396535,-37.05378055578116,-27.747810726776088,-27.432507219198378,-26.74594861530153,-22.830964676396274,-22.448813896038214,-16.7520944884313,-2.492355357770318,2.5496020399677395,-3.297008192268192,-3.2009257811288894,1.7107096893307887,4.858741034953972,13.706973620180408,22.89835809126039,17.615322041715135,7.22319701381778,5.184406292915877,3.587679985010119,1.4782802481199426,8.77061780580295,14.893310340899422,6.790303146843012,-4.710153831566712,-12.28440902755646,-20.37441362110632,-20.26031715047275,-7.341165296462719,0.06964417920075738,-4.603701161928061,-7.332500360622018,-7.212434852289428,-8.163712189351942,-1.1526163925706276,9.429738840718503,8.226535634492881,2.4869256053478805,3.8409915336795444,3.604488797754085,-0.3547675867483826,1.6012700898423695,3.2226584112094603,-1.8533229487565244,-1.0101262465988325,5.869433832362279,2.9875845344525835,-5.747825266451869,-8.723221341147818,-10.370103371999477,-9.03644755059389,3.104677287882198,12.656665429887866,6.614093417808073,-2.28939009735877,-5.664876250720749,-9.614150111064038,-7.664511569781355,5.015575917573914,12.434650120070035,9.747506439467909,8.217559420650682,2.820688663641874,-10.340047508139037,-14.093529918071448,-6.076977586029455,-1.9123773533979709,0.545322289019043,6.621240338738335,5.835286604009847,0.7200020270809955,4.179704136895608,7.655414389319895,2.1182302096323937,-0.12785797514307776,3.3891212233547563,1.5793472763728627,0.9174721969844517,8.892229889593699,12.570958837822015,9.615096137761048,11.189755180205129,10.19241048900836,0.40373595283150454,-4.075909561896169,-2.4286941496251853,-7.40271483267807,-12.12498365819036,-8.981638697602012,-9.585810834829594,-14.048458330840713,-11.25047991154875,-9.586634650963102,-16.59613495879682,-20.098086069804285,-20.338721830232984,-28.040262255662867,-31.663801510215116,-20.892652604582977,-10.359929675189996,-5.843045726100927,0.07850042467357987,-1.5065966042217733,-14.15759638765363,-18.104063578236985,-9.414380892310323,-3.1039914831481044,2.7051454234751993,10.361524678700112,5.819406058022237,-6.55830659019558,-7.6328994378081365,-2.1093439830223626,-0.045222745373300954,5.1793684283044366,8.577754796487618,-1.407770768080371,-10.782373096634728,-6.062192398755813,0.8776016360015635,4.744531738482532,10.972680828134607,9.894245850365389,-1.9134229935343798,-6.525933560807604,-0.66731453501394092.852226208612898,7.271723463351713,15.965954236852548,15.94644300643899,7.866447018803153,4.647392948555765,1.116273902076029,-7.351818184145424,-7.929282192377158,-2.0167790628618345,-3.412084494783388,-5.25554827825161,0.7237140868331506,3.399553656353893,2.231524383269802,7.13451546256975,8.997149274641407,1.0914650168211741,-2.3180389274584323,0.9250001097991556,-0.7749599963986173,-2.2363532157017407,1.9942583437126193,0.7232753829665397,-4.347883254968233,-0.23605154104269577,5.343354673047973,2.5135046962707106,1.0149242440337318,1.38041206390773,-6.299132990066191,-11.838854790492638,-6.0088806375866906,-2.600586360287061,-4.590039744739746,-0.7754464197162085,1.4661213305487786,-4.9661786888326995,-6.300563767344176,-1.5308782836467807,-4.031530821906989,-7.306000131076988,-3.179900909356478,-3.2329810945902655,-7.615809189585573,-4.493333947469765,-2.095059839211972,-8.359410267688684,-10.530429180964914,-7.373828030595251,-9.5291010289528,-8.905721016471626,0.3947529696183345,3.7154439793925897,-0.016678799657153798,1.4752557565185322,1.1265944698783898,-7.01799708065487,-9.612105620080756,-7.329741272817436,-12.027139507071059,-14.506637829046463,-7.930101867500601,-7.044827566234829,-12.469018258881105,-10.496617071353379,-6.829944823385038,-7.184518057102493,0.270580724211694,10.880825494467217,7.9771448798623235,-0.07719822952975353,-0.44394676441240155,0.2626453431911977,3.1476949201148035,15.30898243215488,21.137329872149635,9.474790466704183,-2.285639067987029,-5.672169063086058,-8.74543929745079,-6.669865351643399,1.8961090028460794,1.9154229171933903,-4.504317930957413,-2.613162869902551,0.6665573342146071,-2.423540759491317,-0.3077646446358555,6.442444592589904,5.671103310534232,3.7261453645460927,6.609758654401931,4.098846360131706,-0.7011380818244337,3.794336721980584,7.51486573039403,2.047582384491224,-0.049918721457579474,1.9628691415040338,-2.292807421282831,-3.639304875496512,5.057899371587522,10.785042025673633,12.732722251590731,19.521560267400798,19.75011240096574,7.988283553995558,2.162676607951395,5.1414938601241555,5.464890712746529,9.558828738376413,20.453906186943307,22.966040538711642,17.84953887827517,17.954303235210475,16.361163923897713,6.746338111387243,1.848949428836485,3.562710590186977,2.502420209923782,5.851785756393134,18.67813140431813,26.10677676539301,24.261051839508998,24.075674258823152,22.227209463613683,14.59068103836034,12.275744866290356,14.97706108770044,12.772637194072605,13.082282677602246,20.711906730393714,21.781827639075274,14.501206214888306,9.533213504568824,2.818596005778779,-7.350148155566782,-7.673502420456218,-0.6039082541572047,-0.4127631106376133,-2.045243629545322,-0.3015107781335562,-5.959388112159678,-14.620258256886547,-11.299832287316269,-3.867743366578373,-2.9015167101527366,-0.372049902821167,3.023518380829063,-1.3147215259524585,-3.149234520775777,4.20842617638371,6.311423368573186,1.2536907159069455,0.7748580392444352,-0.12449964818005138,-6.409965224728556,-7.015797777603826,-3.377208965693527,-6.689213213169216,-9.13788259938476,-4.1971138020044245,-3.37880347413189,-5.799547136687239,-1.294713782071634,0.7552060924029982,-6.018351538049362,-8.244231680970332,-5.109348247160511,-6.717353888549312,-5.966021511260356,0.989988970260939,0.6036205609408831,-5.786457322068764,-5.1505670840774425,-4.439736304802635,-10.454228653716951,-10.701584388809849,-5.005654377457575,-5.44295596584999,-5.731405732003176,-1.0455736192298393,-4.479047312639793,-13.601843697463918,-13.590190647089724,-11.187148174105827,-14.650866049579614,-14.310881541366689,-12.303990808578487,-18.77651938968379,-22.466812258179857,-15.109389095351231,-9.957002448562791,-9.139935234200646,-4.017227228185171,-2.639079057017423,-8.995389123701969,-8.49110676602682,-1.358351503082152,-0.4285420668465477,0.5207504867834937,7.3685828734023175,9.074604611956678,7.06335000114689,10.615837479625917,10.08670673018434,1.7830342342472245,4.438934879112836,23.61638618786809,47.837375970994806,78.57498329247508,117.39913819691593,151.99866404713248,182.7189182167338,216.2865097866496,237.14068351260764,233.0814163274096,219.21258613975183,208.1613194546618,199.99614008331764,199.5233018304589,200.18800735782918,180.41045207522643,141.64902781171511,104.48681843980728,71.91191385588135,41.30231147084636,18.5854362640103,-5.716613531340801,-44.0678512624559,-81.45922149728271,-104.94095265919155,-125.72567251854922,-146.67476524531872,-161.81924906088062,-180.92753176114186,-206.47031412381233,-222.4231213760449,-229.38819202734442,-239.58736073910367,-246.11436662156513,-243.87142428404567,-245.18262463926288,-249.6867766961937,-246.60905738706742,-241.74629940463552,-238.856562692522,-227.03128043878743,-210.427174716901,-202.23016474219241,-194.29864228313158,-178.98932063708367,-167.65865588411015,-160.31532551828064,-146.72982379599517,-134.65795629079477,-128.6062144725375,-115.06933590851796,-96.23527102242758,-85.19825386941693,-74.45522416139363,-58.67095189486721,-50.33743661215883,-46.81640747394952,-35.71288189266471,-25.472407529695445,-22.31743762233036,-14.54110590358042,-4.331712665716748,-2.6727814070692477,0.03128958200992327,10.976684472380999,18.312618290431566,22.757263649202866,34.534824616939616,43.527375178839804,41.83036639822707,42.59304776854857,47.431233088061916,46.89244705985194,49.52767332590851,59.80581526906334,63.3838116935032,62.28602215160072,69.5504501173699,75.71472616024894,72.9759398271662,72.78124714084926,72.67278446719115,63.47981950570541,58.611605102245676,65.65520746410776,70.90415588953738,73.91241401413798,82.28904235918353,84.74687142646822,77.37357972157082,76.89693350985807,84.22602049029665,87.40486644622078,91.06613348821536,96.83536706740472,92.73219248159734,84.44859465414524,86.39792205135629,91.15049895651742,91.65623419664195,96.2156483054478,99.84505347051294,91.41173721709112,81.55885314993624,79.17201435526658,75.12372430746973,71.86142767235145,77.48811054941794,78.85447814084851,68.96315236694305,63.34493324519556,63.9985626665777,60.588915793372564,59.747853360323774,64.70250475488993,63.01378178406391,57.95990392525776,60.663067934602765,61.149466821429954,52.3355720906003,46.75727854288845,47.01067437002016,46.514776048328784,52.11258654963321,63.67210378501236,65.27709215751759,58.367733312305745,56.34657468889467,54.640704240261556,49.42830875125875,50.30120403949955,51.60841602429081,41.65279718423699,31.716350414329007,30.279348244750484,26.300046494435776,20.74901485003117,21.95409969893322,18.95434837397677,7.151063141808651,1.9957519922700904,3.9501114651290252,2.8634982174625847,6.471256976150983,17.72940821076243,22.29028471612681,21.450405798164887,26.054063381198773,26.388491019598234,16.29070569091504,9.705605866504738,7.624949625629347,1.843873670204847,1.354598679080219,7.948890957751631,6.477280247048333,-0.33969023361294104,-0.017715337610320292,-0.686635884789403,-8.614805924370623,-12.910321691514277,-14.95404599826723,-23.427009986404926,-27.85070477387365,-23.104181425261697,-23.069016445647918,-25.64551855106466,-19.32709699265867,-14.76917321336878,-19.25583360615904,-20.872794903083914,-21.976985424165527,-31.847798271130994,-37.27271424364131,-30.76694686264574,-26.722203345146752,-25.568119888940355,-19.001405389072485,-18.870453026545707,-28.917200508185115,-31.198640658321832,-26.56074260673961,-29.39565247226998,-33.14667373024896,-32.77804034757575,-38.59017354127608,-44.04484737272207,-36.58151316166543,-28.974881070957824,-31.31115663610828,-32.504737855398204,-33.144487151582304-41.06732237576509,-43.90524971199183,-35.61901128206635,-30.5837977310394,-28.615510818604548,-21.238115396847085,-19.393074567707366,-26.872645845760584,-28.74963050960207,-26.684948674188448,-31.230345155538476,-33.4673730752138,-29.670292486657367,-32.729015379994806,-39.93710339503714,-40.777291484937344,-43.26145452586686,-49.7418624840338,-46.992373417531205,-39.751842299699504,-41.619515036164856,-44.41781641849085,-41.691276573142616,-42.46768786432063,-41.8497107085299,-31.731526853357867,-26.83407417451388,-34.1154380110829,-38.12089399992486,-36.397367352969425,-35.90807132200138,-28.19046919424241,-14.042343394444197,-11.39228556277941,-17.50376677744187,-17.264324157089078,-16.57759941131586,-19.972513101449437,-16.25681134262242,-10.045381204869294,-13.386999527549861,-16.39612326505395,-13.647254065369175,-17.964441798359573,-24.98435179746082,-21.415818848201937,-16.974545160073564,-18.714595320936752,-15.719607651899725,-11.176290234337399,-14.789197622046075,-15.976216769061212,-10.391712802693867,-11.752930835830583,-17.323932036305305,-15.856554393356326,-16.480827917622683,-23.14783416878278,-22.50057978124407,-17.97743822136675,-21.089549682017697,-22.272005421936456,-16.519079503154295,-15.718035334966254,-16.32608059149737,-9.015132418500713,-6.175269038848765,-13.71685815493879,-17.00865089194793,-16.321162579856175,-21.690607612538443,-23.455785603757242,-16.278647048665942,-12.921199185977652,-11.578576139040091,-3.4465310667844817,0.1324955166480815,-4.848325723917445,-3.5685800843121616,1.414142854182279,-1.5199869261408234,-3.8917505600489886,-1.709941510418637,-5.576464849743075,-10.264605668171043,-6.374286617823381,-5.070652720426594,-10.558404012687106,-9.42954421365635,-3.6708596375212217,-3.182531643801508,0.3683957582699018,9.344692294510338,10.309294181885733,6.382833251011604,8.58661990702304,9.13881351284611,5.034306616586127,7.7752815379383655,12.608207761907394,9.153084873587698,8.212883541292467,15.226101096138647,17.533528506917484,16.21025949118215,19.545876157002407,18.82500753450922,12.941546102388067,16.033329544845166,23.54183935147378,22.763112148007608,22.02338779944536,26.56196409691111,26.518685098555345,25.570690659570136,30.683933761881192,29.77797294826646,20.018299050314795,15.655147047811639,13.9152162237541,5.616444334862138,1.4977598637349563,5.654069026435556,5.934170137124602,5.251931877944102,10.612243448203863,10.301633846942568,2.8247099853200623,3.798703217518643,10.15237010421144,10.5239557930112,13.268323812003754,22.103337809178406,25.135530922051437,24.63737060244429,28.887012219400226,28.587303239873577,21.892736800287473,22.921232972630666,28.6809490950594,28.050558456184184,28.64800650056255,33.03290377095548,28.966266325306492,20.675265152127967,18.48436123422177,13.066433847538299,2.8667795328432826,2.2974263853110224,6.5394059173740136,3.9622483406042495,4.269069429787941,10.11500300675285,8.01244610228011,3.541156685290713,8.919451574183244,13.146468220358074,10.166146759060572,12.128434186770628,16.36163303760465,13.84687238555604,15.129179186276005,23.16235551448956,22.561315120310518,15.202396349354045,12.62254293821632,6.731945008117144,-5.006132162990069,-8.154039706309218,-5.100895432305634,-6.269919143319278,-4.340524550829065,0.7463961097800147,-3.6826690404410574,-9.73821962761902,-3.8343205183207667,3.398942400887151,3.852535805045097,6.036059655161494,6.936034992841498,1.2209278567451678,1.5205766410245793,9.269895302329854,9.073241951071806,5.06769444800573,9.839625415062338,15.166590467359121,15.435872040629599,18.43061855440795,18.438719257032282,9.7314640294742,9.306418322586342,25.603079925167158,47.098298354597475,74.75559872830333,113.59738528981055,150.74321884406623,181.16328327681455,213.35972902158426,238.02033284549807,240.64093759042925,228.42165567317977,207.81359896378285,176.15622397632364,146.6410570112844,131.3891453033034,116.86905157569333,93.958059572991,70.83333079372012,43.78165838148041,7.6269930725926045,-22.395661356662337,-40.66138899581817,-60.354367993064415,-80.43722819709207,-95.0966025701546,-116.16488293480688,-145.50127185023908,-166.53326760399338,-178.29202109732614,-189.1588445128567,-193.11574594946612,-192.28073719024735,-200.9178530858016,-212.20152862041454,-212.28968945778485,-209.29627357120015,-208.6236669086981,-203.58854475500954,-202.27201033913954,-211.3124301433478,-213.75341930199193,-202.47984386231388,-190.1478386925359,-175.35993668083404,-153.31400929345935,-138.25852238441675,-133.47251066729177,-124.25295579411235,-113.31253428368372,-109.73952647853744,-102.5869752110635,-88.09597008176287,-79.01955802484879,-71.29001435424972,-55.043911434129726,-41.675921282222234,-36.427512781965774,-28.16024987840481,-22.094812137446482,-26.832595574250387,-28.066949509096865,-19.390417566847134,-12.243915497508025,-3.041635085401907,14.297106909955886,25.868804046785687,27.459914665581326,30.687074945694313,30.974523845542535,21.50771713211907,16.631104093448663,22.46444701075765,27.573514564482466,33.74800423537945,46.25141867558691,52.33311394013903,48.65979878141954,49.23537838121339,52.19258562231762,49.11573737293352,50.15747364657987,58.48157759485039,61.83574985569205,63.392448610352304,70.5415496345369,72.1839038141071,66.25888351276987,66.94390626665052,71.49635577866161,70.6296275627431,72.85587714733339,79.19819364992685,77.70635788030687,74.45152506787059,79.15115887491164,81.21985011203701,78.13912027569883,82.11135269332391,86.88314155898847,81.01056795640692,74.78492900028387,73.92356194536411,69.9478928015895,68.62829462891777,77.19465118613223,81.94055509333569,77.63854699395883,77.22218255523869,78.39416044906284,72.29812543681946,68.6542043703255,70.06357915116274,63.82088401579158,54.551990099572876,52.96934313511929,50.74036400235281,46.21594665298295,50.04785081466868,53.96636485893474,46.61740728839263,39.55068495603917,38.49970503755877,33.413346173799994,28.738506927714095,32.79630712436126,35.4079657201316,33.56035615599052,37.64594179132946,41.450284240531744,36.07439419731123,34.10073609332818,40.486995258602064,42.89041618484422,43.312352993721206,48.25987481649467,47.09303305853979,38.1953947746328,34.201743400441075,31.498252856965,23.256227368523795,20.98428059120065,25.898385671161417,23.6541870784064,17.982832374042673,17.85184651979936,13.355398937837197,3.6333330878954753,1.8326840707028775,2.351308542197901,-3.732112564715482,-5.011241921916921,0.45641789266161625,-0.1537208676064652,-1.0474392319670511,7.081459114186554,10.932850210415014,5.29459190744949,3.4649426573645865,2.687979505541588,-5.594788954586745,-10.73209675497389,-10.602279166701361,-17.468595169285138,-24.45461116201832,-20.540404895121203,-16.642816572463545,-18.24582168574287,-17.03786624693384,-18.776722940117786,-29.854242869582944,-36.54080182607191,-33.881577761299575,-33.67374033661674,-33.30661756897027,-26.62909568669881,-25.766204007120656,-32.216761532700694,-32.42809842225657,-32.682780686529576,-42.22081309454777,-46.98060166469104,-41.82438378353223,-38.80178432047497,-34.38207051210621,-23.352788411783166,-20.04003692810121,-26.22815870206581,-26.342188520786255,-24.06008126384912,-29.06319667412741,-30.439569056869225,-24.721087642353513,-24.34840376693589,-25.288051342623813,-19.28980991242191,-18.58937242769644,-27.109843600631024,-32.056353902198985,-36.55102885917686,-47.34128664165797,-51.049690687019186,-43.90816366056399,-40.5411410337106,-39.883072218280255,-34.020985003716945,-31.069412196086954,-30.929028192320622,-22.766396417306616,-15.547415222779978-20.90486985038569,-27.791143644617108,-30.04694068927214,-35.43107490941623,-38.23844170705773,-32.12141228285688,-29.299492586980826,-31.885128960020857,-28.023964344764707,-23.8325811645496,-28.529383852153046,-30.888415422272576,-27.654527584919506,-29.708601959262417,-30.973670447463675,-23.337581591340786,-19.863520627550415,-24.26802960518279,-23.762700747804914,-22.168457380437573,-26.800724377686677,-25.808113226852175,-17.615076872823778,-15.687797106000405,-15.294715663677222,-8.30135526546807,-6.741358337307636,-13.324285529216555,-14.750446243616286,-13.92465015688247,-18.018717579634355,-16.369973792802686,-8.52785468528253,-8.721678103765834,-11.220159540312203,-5.411666184362277,-2.629349102097981,-6.612168429118158,-5.840097228539806,-5.3913120963198695,-12.640341848296888,-15.399664688136514,-11.295490507967454,-12.435472124749479,-13.72750876632353,-6.7033291593549835,-2.3574854809501975,-4.647836991064503,-3.8230937637691262,-4.75847764373967,-13.436297210029922,-16.644359864444894,-11.20354395580155,-9.156238435064518,-6.569783529842548,2.2246607592911087,4.703809896746432,-0.07407084547380594,0.5340187142393156,1.1530683286474002,-4.544979029532693,-4.169259837084349,2.5201511812379542,1.630406703845903,-1.7414670419290972,1.2014732960505226,0.20142731369882938,-5.129369215154003,-1.393541111271321,4.644329910620786,2.293894622130069,2.8286611713959253,9.149704130835419,8.329218313443079,5.0413449390459775,7.940652231309783,5.69932151674544,-2.5579683362011796,-1.1918255202466481,5.4889414289399685,5.912572804632518,8.291106676130568,13.605436070004437,10.24436774261996,6.552837983716401,13.006310118356534,17.04305160176324,15.051771196921223,18.529173210536676,20.62145290877171,12.85610267581895,9.227519599873778,13.644474391718346,13.907964640343238,15.297897267832793,23.602761178484144,23.699781202169383,14.200813741287577,10.921820566558807,10.492396910031696,5.064043741703125,5.5570984761027304,12.855004473154267,13.611864174992549,12.360902472762664,16.67134870065791,15.730423151149534,9.05497349170992,9.108957425763371,10.112929824184876,3.82176874103821,1.020647841133942,3.6864877921938537,1.3187347458232437,0.43882117395181497,8.340168860250358,13.0119588804109,12.458020908887168,16.78661326101954,17.677375855146114,7.168716754566778,-0.10644783341168651,1.071580840061121,0.6856148617110435,3.9113815119597,14.754976842515234,17.60218870405587,10.646246939272611,8.496860820033522,6.8557351982195565,-2.1775486150750365,-6.235573849860163,-2.114650265447792,-1.3074226953004597,1.5356723197913145,12.707848651278884,16.482679754999474,8.472691926330274,4.648377146107725,4.604355669882922,0.7879001018242231,2.7722893100346924,10.155513983334998,8.62294592028122,4.247437129049543,7.637119645750021,8.01066016831637,2.3772929864574266,2.6770313865809645,4.203459115162417,-1.39349610763239,-3.957041262344225,-1.9429007850960323,-6.240465522873375,-9.55223688639245,-3.282465597575067,-0.0045623161904446985,-3.097173384702412,-1.3283262165429768,0.04909769203862824,-6.241540455320359,-8.403318832820117,-4.173433482597853,-4.872996989509836,-4.585630354745595,4.098573711704805,9.026334082734934,9.12708673117842,16.611560160761886,23.239389635288617,19.246644183167327,16.79273703853653,19.99560657926406,22.75245815107427,35.31406438690164,62.980425945141384,90.92306678212286,117.87344647489127,154.824769794439,192.35993532642556,217.99873047259706,237.3226846298797,247.6454108454279,238.46021472062637,221.17240195255982,208.32033081619707,191.335552795008,170.85186472069748,157.4396142672137,140.20738056635003,107.53901531502157,71.33508363039556,38.461218994940495,5.530119904520365,-17.333841616181495,-26.950896094716974,-42.93209456557922,-72.20033543458483,-102.24782467883864,-131.4409658548007,-160.12129698255376,-176.53546102671038,-184.28606149573238,-200.35909126408566,-219.476771416759,-229.63720952359895,-237.7108478954961,-243.10250327565493,-235.32770061613317,-224.54129221228888,-221.9219707630534,-216.78055676411645,-206.51569063861206,-200.61891284797002,-191.91002227834775,-173.93921351230586,-160.86206837806924,-156.25873900934917,-147.7088590608738,-138.35746114614932,-134.74286905103327,-127.28563971623106,-116.66899030578202,-113.8055836263832,-109.33141642241397,-93.29593440682733,-78.46474535066652,-70.41268809333795,-61.487247217846445,-57.165063778584894,-59.40364346226458,-52.822164422366484,-38.02938974592371,-30.408600370080357,-25.92143574100352,-17.131820863501083,-13.103983410591127,-11.965943516415619,-2.8968130237283423,4.687561680318584,4.0906409309966545,10.309523708194517,24.60253464849195,32.45977273715912,37.93795464429544,47.515338456233515,49.77010528125279,46.112852787237216,50.4092559168497,54.15384359724658,46.51166779195483,40.272944370955386,41.10224891465616,41.010970187436705,47.59223224939856,66.28868385073322,80.26310983266305,83.58829908121832,86.3467994205812,83.88428403334729,72.95745715725499,69.1506928251576,74.45328951291735,76.11942151257146,79.08323127884847,88.79720893885414,91.85762841582867,87.92432118971807,90.36445693999316,92.46229159190295,86.14850896856942,83.76798157336489,86.31128289896374,81.0447025856517,74.79611236803055,76.80352484010479,75.55085306427837,69.1272688207383,70.05630801536675,72.16931002942917,65.83924230545857,62.099091925671786,63.16004037126278,57.44986693544813,52.57031425973526,58.125124067613825,61.13189421218252,57.40720059482794,57.92339946815627,56.951529055504906,47.456258666397346,42.46194910237324,45.05053307491138,44.416575393629564,46.446461434693504,56.85536139818802,61.16645314034307,56.38860391540285,54.6581156061748,51.666123335185745,42.11780624137996,38.78848278302927,42.250660630424434,39.370744122322265,35.74704955752723,38.689895556954,36.3918601476029,28.853371072027805,29.028411686404965,29.81463699249654,22.15820311419822,17.536453987841867,18.736072523665516,15.824190206466831,15.279445472821639,23.28028228992861,26.049021849439818,20.707510364262212,18.98689930597766,16.098245738892214,5.861005820306786,0.0949667788658668,-0.546113156976975,-7.728574854786871,-13.761936924197594,-9.307741551786608,-5.59613686885204,-5.612955901534248,-1.7066415672383313,-4.285388373590876,-20.063459237878806,-30.575726263139497,-28.31990513484297,-24.83384759210134,-18.95917562996183,-9.445594066102487,-10.31543179827087,-19.28165334471444,-19.85903579491691,-17.59940769912484,-22.874245212705624,-25.808415352323472,-23.42897065324583,-24.78515298581683,-24.15007222134686,-17.63551077208701,-18.807485010831016,-25.574542439328226,-21.2076280309892,-11.123514703286565,-7.361666088544841,-5.006519993029276,-6.363496463981818,-19.439059522387776,-29.75346941878375,-24.884836713255602,-18.782068590810034,-17.612462878459507,-13.072190309046555,-13.437584273528493,-25.392219296205354,-33.61900879813842,-34.780153435718894,-39.94002153373627,-41.01462382082183,-30.56827894794116,-24.2869137344213,-27.265871852085894,-28.47347898316808,-31.945613964130636,-41.205011877329724,-41.895100187571344,-34.017672161133106,-31.68470264133782,-29.82740051196432,-22.731103088349485,-23.452825871956147,-31.28359281918947,-31.438098673105554,-28.583447310398743,-29.40441377602198,-24.435228609071796,-18.759880245661,-26.779103855495272,-36.98207171912647,-35.40260356944776,-32.11173231658735,-30.773154823072066,-23.73813600555437,-21.108246882457305,-30.507563457915403,-35.68117811812077,-32.06725424629002,-32.76634770221503,-34.06379578564745,-29.581235984376676,-30.08596167694316,-33.68066159390094,-27.149542733823413,-19.34354423057833-21.013817410764787,-21.621811228931207,-18.549953440530693,-20.13791046518616,-18.70657125950742,-9.859148656032282,-8.527303151206088,-15.024811558826277,-15.062370316489194,-13.601925201817018,-18.49821834651767,-20.17642524181533,-18.61241460694815,-23.208243556215926,-24.818285791910228,-16.343968571734635,-12.317158337976394,-15.917412339063848,-15.056242033948998,-13.593354762783612,-16.243939131557113,-11.869011528106721,-3.7869165593500993,-6.490440550107741,-11.342863256565433,-7.454120344625703,-5.8527831510302315,-9.226364452176304,-8.22416934028767,-9.952222613398941,-18.9650898156838,-20.043364973168636,-12.60707827821384,-11.836062674465948,-13.062502168111072,-7.0627022466429805,-3.233930770641618,-3.121563758223647,2.0582045762634906,3.6429576635513192,-4.636318136447242,-7.3950906223651085,-1.7083294967334233,-0.44257265306442617,0.7531112006507096,7.185719466746508,5.955631992319075,-2.638664115092924,-4.876558112973655,-6.4362373627485185,-13.045004575480904,-10.950152062197109,-1.291172247713202,0.36133575241655,-0.22639174842979098,5.093336729839775,5.844387906768142,3.0733143827276743,7.401090325034846,9.048681276116996,0.8469723533513007,-2.416473419410556,1.9725935514120945,1.9637673242164728,1.6509864138960695,5.606223081688288,2.746263678665609,-3.4191188534159638,1.1728683500667287,6.748999113819124,2.223497016986345,-0.17624397670585862,2.705114856079032,0.8909309040919149,1.0475905075361753,7.7365286734821135,7.285278448509213,1.490708811691723,4.77083168939596,9.461130066194857,5.433097596865728,3.049859882876691,5.315317816930216,4.593176130195269,8.169214320362599,19.597369095835226,23.333919275766686,18.393795624570288,18.652695711863437,19.319176090134388,13.61631982902163,12.141951497457852,14.214849064510517,9.214337422094648,5.817963806926576,11.527951047705324,13.545013508600869,9.854328817392954,11.328838229193126,11.771751728047526,5.163175215594572,3.920688190226235,7.833533180407417,4.482568717066388,1.8555589014031613,8.72979872254289,13.387068902129982,14.343933651465669,21.269861625881195,25.361714212875697,20.101675907598544,19.29320455824228,23.319108885871703,19.52921811447147,15.232209165708708,19.17346291298429,20.9581105270439,19.49150737678097,23.820901265761535,25.15877190567068,16.742726136849193,12.201926474336984,13.575162485774278,10.007714020218376,8.151447108102353,14.448861721068873,16.812966762437217,14.606423654498606,18.807401168438798,21.36588611427365,15.053633182055066,13.803287528294724,18.33173980134755,14.659997280397132,10.121353424099336,13.74563405999385,13.52439933498702,9.116475894491305,12.038387719444295,13.3676651050268,5.508226196837687,2.70515886105368,6.520342155447833,3.7095714599099674,-0.4341669280877549,1.0291836876866367,-1.7826212038667,-6.170850575613867,-0.23330403344007378,6.5219376403899085,4.6646233418566725,4.500426870450278,6.561204620130419,1.9571894067544666,-0.154273287746969,6.851866615112087,10.27840323458873,8.82366727189622,12.018416606482331,12.40279328246137,5.4344781949079275,5.174365965401696,11.491105322006899,11.094321275342768,9.917329396852312,16.532923315695434,22.813777524054746,29.64226725496853,46.91801824973332,67.6204750884102,86.99138454563177,119.91276143495452,166.82145008960913,206.73183983084581,231.00935808824073,239.37488350436564,226.42120628910715,202.11384625089104,183.17219072597277,162.30750980269417,128.6721402804319,91.71999611982281,57.0834169448609,21.74501560541714,-4.9677944485181476,-19.40925076909924,-37.71765672786319,-63.34612871253199,-85.15292270386475,-107.52771483756882,-133.44959640625217,-149.24117497270123,-157.35774412217543,-173.3556606439519,-190.9330785598279,-199.77999349800325,-206.57449758986527,-209.00388151089214,-198.98599653977183,-189.9299981871585,-192.15140634303324,-192.44560236520147,-186.69577603570613,-183.49984686574388,-176.017877619649,-159.2242348851208,-146.76486506330218,-140.69396993538558,-130.73825103934195,-123.70873681058492,-124.83794298568547,-119.71595957656102,-107.10016030369732,-100.12743447581508,-94.02813601077735,-82.73651321355818,-76.35324504688347,-72.34919796985656,-59.177768643441745,-46.66984768074291,-44.1716865903733,-39.56253305341096,-30.127938019290756,-25.355400177945196,-18.6372371945911,-6.0430496777742135,-1.9803909540582691,-5.010411343953201,0.3203134558769958,8.669462872650563,11.4581209927434,17.025836116393624,24.116899842475455,24.133852501000103,27.4502453136413,40.37111731653973,47.470233025979475,45.98069816905607,48.569239366586075,51.54489905503611,50.06791657584913,54.5435751256186,61.488068281662905,58.838586982967065,57.290914762410004,66.08289818207436,72.17398385760575,73.02941916254534,77.67221740471278,77.3261887097527,66.49868187383655,60.20971448960184,60.26824979619802,55.77520082160551,53.95904644558017,59.84039613423262,58.66166770085158,50.564723678620894,51.12968113421705,55.872159448345954,56.34441266902022,61.27562448093845,67.91901178876317,63.52001157976726,57.29356053526748,58.87197090166514,57.35541921782415,53.54822930757504,59.36981373291013,66.27514852395333,64.95620921872812,64.381358252413,63.304237570457,52.75727503730556,44.518517543287125,47.76483736157973,49.48870281466855,47.91849835917545,52.56453647488887,53.456906043744986,43.42185679183407,37.04038154959219,36.544314941846125,31.268210954247564,28.890999062396155,35.397835617420085,37.01015893107106,33.125672068803965,35.11402149593181,34.589761764569865,24.646766373970717,19.17298944150521,20.0127166396393,15.846819746561003,12.724357021721135,16.66934382491114,16.766742545753914,14.782243847308665,22.815392975062704,30.802041891381556,26.663080698960208,20.8588039751562,17.467576291438228,10.300069222133905,9.401799134812611,19.313486685275777,22.74158564146036,16.960992599717436,15.176836175335048,13.844191776006356,8.77648194644924,10.895368314484886,16.26082055949812,10.89839554756751,3.1865395803733874,2.775614994648343,0.49654637991654615,-2.305357739260989,3.590469300150951,6.390736506509382,-2.37500553332893,-8.789243261003048,-9.3044834987209,-11.522713854028556,-8.653880149261516,0.4482369944465372,0.2426877953143789,-8.360733472886833,-11.32136487318365,-12.76317933595087,-17.955146238107556,-16.63041477246485,-11.751739806507663,-16.34070123888606,-22.034731075181114,-20.37955882194,-22.285907721722193,-26.145383927327938,-20.740377668680665,-16.8197041731187,-23.58158321009884,-28.292537634729022,-28.43004982902392,-32.29573427548529,-31.73485349702507,-23.14505767715587,-21.256934515235876,-25.34450246059102,-22.456626960441767,-19.079415377094445,-22.00288424428279,-21.489900768197803,-19.914640549680197,-27.124772129230493,-31.955655593035555,-26.44902575512384,-23.79798650086598,-24.879365869466493,-19.51889019697465,-16.581704309983525,-22.657656048795875,-25.30991680827834,-25.275742644542,-33.23649585917315,-38.506795724224304,-32.20808117181008,-27.98292705430397,-28.685632493739853,-25.28984807234957,-26.473545892302262,-36.54094569404996,-39.25270634182531,-33.70737150375152,-32.5320130365711,-29.69638225109863,-20.634672570152365,-18.40942468125708,-22.026832149117567,-18.992723472374962,-15.995966790757908,-19.261056526564857,-16.875624864016658,-10.396142919512771,-12.812889139805243,-16.96289756903181,-15.756079859021057,-19.388630628625716,-24.617245017370216,-18.373637222063394,-9.235667109058696,-7.387507273827929,-4.654831288835879,-2.0135748347675477,-7.809420527831915,-11.262002887691382,-4.94609890170278,-2.3544520186894875,-6.238253969139575,-7.002844415782587,-10.175705095845892-18.98225179838906,-19.765079462395278,-12.571132622694092,-9.541963969366787,-5.924110608805612,1.3846280675051563,-0.5720574138872636,-8.97622268695239,-8.231921247796482,-3.8654731971197336,-5.649035396703126,-6.517066364730097,-8.33978289011508,-19.24444881778432,-25.107876886892477,-15.177284872796077,-4.911253193835335,-1.244462286760431,3.1775100533193443,1.0441499070323046,-11.421825224618983,-18.125207415048045,-16.789244373982466,-18.63286592291551,-16.870927738689495,-6.788099215786756,-3.0512348326026526,-5.97674601539022,-3.2112550225328285,-1.9370381705295303,-8.042667371622123,-9.224927733507851,-7.031252352366799,-12.265250728452989,-14.870521306103416,-7.81874411324909,-4.880044680645657,-6.768229386236529,-1.5659016692052399,2.751222002896683,-2.709962207823866,-6.6909071378602825,-7.386053399325471,-12.438922954555808,-10.480498904851865,4.439802404781789,13.588527277207358,10.800339859930702,7.072731612110449,0.5697890458906905,-8.618047377842524,-7.156175095584321,0.7461543692948953,0.43180868917839077,-0.5169532970668345,5.611925398694986,7.472930458470873,5.270590860450303,8.6885439922509,9.773310225960234,5.148015105642395,8.930123012488085,18.931431882391646,21.476202240204124,22.653137278345433,27.377283197079702,23.517271806573614,12.78214948452552,7.362645996521117,2.1221199754592783,-5.389382394852265,-3.11288871756519,4.058935954036025,1.4276188284654294,-3.1001856248271404,-0.25033730413539246,0.9520320821859226,1.1977939140890956,8.286116579321341,10.903220178058842,3.100291489088912,0.32448329040415236,4.1101199006426,2.8682054292556556,3.283664117545213,10.656277934804782,12.124907011532239,8.576538013265825,12.408900581584575,16.4012230258949,12.978453866932306,12.508044666644388,14.721843005528278,10.240135704861007,7.9527248238811055,13.906901579590254,14.980264320978524,11.053616722428183,14.030130222916146,17.833683847459042,16.213188549830207,18.169340813363466,20.764887902539677,14.847838140651703,11.071073151584573,15.920541777776334,16.687339724836175,13.299817615355781,16.034208782846658,17.351092476208045,10.863738237130182,6.783289578620986,5.078395976639514,-0.7368887121750238,0.07976317659550813,11.458405242502531,16.21333428986436,10.508368977975607,5.542276980441148,-0.7927714341299317,-8.591287761710584,-4.371619377242467,7.47259080014325,10.588751357620914,9.975375596392997,11.976757122585807,7.651190299753365,2.1590606847874265,7.984492285957737,14.210037326708695,10.748029982101151,9.086075699639668,10.925615560833483,7.050947491872505,5.362912535420109,10.356148410082126,7.967698759726135,0.8348937693740299,4.564102961941544,10.971718080829351,8.972636804305553,7.588108681231338,7.001993173169288,0.7834370609192356,2.741140464028197,20.091951074510746,37.52661855215153,53.78701409198399,79.5186983180974,108.54463490638885,137.02854138798,172.95846073366667,207.06576021450158,222.81433401541787,225.07343641938044,218.52883820159028,193.69623416653775,155.9944217072752,120.36221261736765,83.87092891550012,46.84694475916088,23.257191463055484,7.057969007618172,-18.26062553222848,-45.537663236294605,-67.31253681221389,-92.6247962237671,-115.26841469960095,-122.46648696369232,-126.59283197263213,-138.10168576696591,-147.73686629610788,-158.08806961995384,-176.28515159085683,-186.69191849840496,-180.16165710510478,-172.27473464878335,-167.87077402542235,-159.95213514601454,-156.90614147345863,-161.79257792013217,-159.43658320706618,-150.19629731679677,-145.85001217809418,-138.4575173171833,-122.34956164554869,-111.2477770286609,-105.81929419486615,-96.53855141768501,-92.2106244655596,-96.33804326066745,-92.89823684197623,-82.21958676790936,-77.07050910692108,-70.31554888941498,-56.71968067747423,-48.316739080874925,-42.616021130782414,-29.848594065688914,-21.661837945524198,-24.16110017655256,-22.269852142531253,-15.450748302912272,-15.025295425872548,-13.10245185694697,-3.201070341150284,3.451438542855365,8.282493645773606,20.271187453991097,26.76606864775976,19.929840963805745,16.488411459880695,21.363113388344114,24.547321537087253,31.462481051059896,44.59034080997125,48.130479238760635,42.63139309904893,43.41661307688514,45.502708052353114,41.98396693045255,43.8537945371036,49.30864323270254,46.349346435754924,44.343035899061576,51.666838833287926,55.883371830053754,54.92002062514058,56.74307625604077,53.01604163895291,41.85837632862492,40.750657927969115,49.59134731755799,53.40290850973621,55.54615834492604,59.88304062928007,57.23784812819464,54.65631167941466,64.37389914020157,72.65638221374722,68.84278942797293,65.0274407492025,62.666524808834154,55.2807007848093,54.21045963866777,63.6924292079139,68.26945361684635,66.72430853613687,68.0232444334192,63.62254459759345,50.4775707481023,45.363881396223434,49.57634437041081,49.74793684101748,48.91886750325341,49.590922078367996,41.08609053629448,30.06483253105423,32.578486735827006,39.86724146435017,39.802001561804694,38.93279850006965,35.66896851657792,23.13303292256117,15.358910393935819,21.15762395630915,26.00978849564367,26.169496510614508,28.857361782882442,26.135386770217355,16.659473032329792,15.27728168629196,17.81059649239442,10.29934530780847,2.0800874768218884,1.879071840446028,1.126216809406665,2.7558066380555477,13.095101330551314,17.368710234921018,9.371393770065268,4.940752287698909,5.469880470690688,0.9294875650509156,-1.5174512038850783,3.0553982770004016,4.3497961144615935,4.578271121933483,12.005963108718861,15.308350544391768,8.12319945815205,4.100648215993363,4.737136124303658,2.243836596132765,5.364399153024439,16.423596769375603,20.408286204524586,18.591224299487084,21.312821858523463,19.135451769104623,7.723092157336985,1.4030573090549905,-0.7705887929456652,-9.053204583807647,-14.389520963915672,-12.399120982805924,-15.688959896853405,-20.54382268914,-14.810739168215722,-8.377017229035532,-9.938730411377575,-11.14811186152471,-14.043259880707911,-23.92728095739728,-26.90494647351934,-18.42211791317072,-15.426552150408092,-19.22740233384572,-18.3932790187802,-18.348765978738456,-21.426346713727042,-15.878381399137615,-7.534919610339648,-10.494282689406516,-16.335310194762393,-17.60912522943449,-23.85358293088106,-30.680977979194246,-25.107545368884942,-16.633979778488204,-14.797510935098613,-11.423732441532932,-10.407854673389183,-20.513716278479087,-27.85092027188616,-23.831957547985233,-20.8737784153955,-19.945865916606373,-16.006551901500025,-21.253503348382633,-36.587531362757154,-42.109430848051446,-36.431590857492964,-32.19831024308439,-26.063271657866693,-17.878415969661045,-19.62538828523298,-24.57262652865857,-18.690252284999488,-12.686913772251216,-16.304038779668865,-18.493169598680723,-18.797389927536244,-25.065305666737864,-26.6755505834629,-18.94435919801006,-16.92480347862173,-20.84930870156795,-19.90958839363885,-20.98966234593523,-27.609346767682716,-27.52466865767805,-23.76441586331642,-27.1388249655704,-27.573896248668564,-18.629591472669475,-12.469968451605812,-8.940249791874098,-1.7677528840104435,-2.7410836083900634,-13.974759249685615,-18.056263656539894,-15.291537078877539,-16.57415645522704,-14.779348308237186,-8.613065216985747,-11.78886842180801,-18.961167353050524,-16.380544248532523,-13.432212131003,-17.229008886775446,-16.98915797959954,-16.069130973558565,-23.959654380853582,-27.407994671940802,-18.969637297235383,-13.453288028665513,-12.188646734812504,-6.810033466395656,-7.137414610578977,-16.370076747361235,-19.383961369532283,-16.457080368416047,-16.75350391540391,-11.825059963268753,0.8254362946315599,5.94013758257359,3.042969889754104,2.4845353199120606,-1.1743240325656106-8.906103956849272,-7.418451577852326,-1.1267851356994085,-3.1646720397311103,-4.544193925086407,1.6870616657245847,4.799624637812423,7.113926211243427,16.44709164194372,19.71839775477172,11.075148211019208,5.080705564236825,1.9941101676188158,-5.341471307011866,-5.122347342514784,6.286318223674747,12.823832272582443,13.525605621927856,16.52662373220213,12.559940514866291,-0.40016603283778274,-6.011437501964743,-4.633360567433847,-7.011685412277644,-4.574905872574464,5.862881478067367,9.018328545602554,6.4424874231562805,9.82729473368887,10.929939788622068,5.62977176043968,6.896362330586593,11.837387349258508,8.782072354624667,6.262053603656582,9.478468715972532,6.772384784417011,1.0658172386498632,3.191211127994941,3.8595739977426806,-2.519057813459163,-3.19619902387447,0.7213328687246492,-1.4593707633543889,-1.8681997467416354,3.1690135772270707,0.3980501898950588,-6.34873532433027,-2.905105188802554,3.069960019000261,4.164910885350365,9.324072750651467,14.178821241629105,7.889129092934104,1.9356908789650435,5.052545824993352,5.532241597223203,3.1684210966323425,6.676358161048441,6.437897668358612,-1.6898115765220751,-3.223437553906823,0.20445924683542693,-2.9749436797066577,-4.390117249755573,0.8547547852046216,1.3595775111695396,0.8455153974780446,9.274439781368415,14.76392843240047,9.921496208839919,6.314405178819056,2.7250337713440116,-7.65304784271005,-11.243691289648986,-1.7372465219946074,5.81478090708879,9.0457143777096,14.868217263304572,14.357705261998422,5.419815943152278,2.4772377833754438,3.8643753613936624,-1.0024388482931528,-3.6326135041834804,0.48236334879181975,-1.0881013595899496,-5.594348732851059,-1.753719850326368,1.7039527428270587,-0.036836229521804764,4.232983329189052,9.904675488235942,6.393746988548234,4.936991284550783,11.067535939588923,11.112662011185352,7.272824004688759,11.271732235229832,13.949540701161132,9.271745840825979,8.878025497131807,10.168985981843893,4.054897072115273,2.760698922665202,11.919120225068871,16.365221303688532,16.11397166812769,20.83080756583314,20.937099390056762,11.911666853275385,6.6509049111080465,4.076585969480103,-3.1112893592404953,-4.129364820838818,3.7891325712631914,5.579927828302607,2.551476948977413,5.211529921256384,5.636621086299632,0.739827681584873,2.8569968102560446,7.875805401586674,4.376388096779649,1.3621475680463,3.936506804291855,1.6380202822768435,-1.022576625467361,5.438502036784113,8.685316478360074,2.2952915240915264,0.16798416271518485,3.4698929541666645,4.389934593820042,10.1724406366498,20.317307267270053,19.37996058118258,11.044375009929187,9.075775622098986,7.095035627468183,0.8568051711779627,1.9900678820725914,6.938901765714246,3.5268078820839808,0.2074236255334697,2.9118699751777677,1.3272665190638244,0.11357053766167824,9.537275887330823,16.255282444591096,10.907963944295958,5.036933458616099,-0.04551680389126633,-7.929403037685668,-4.023812249032192,16.837276561573628,40.04319644409065,65.13170316240426,97.65700742031373,126.42401561101414,150.6847932590582,184.95570488799555,222.57711503369444,245.69533127859054,255.04889722151592,250.77814653471364,226.3773634622591,197.68501213836865,183.78078554282501,172.40875810469333,149.4249597524288,121.46897683456626,88.06309097602455,46.264427791330434,12.798351848620513,-6.177028830862891,-27.999868443699594,-55.32593872537031,-78.99503730479887,-105.6544895149949,-135.98891065877274,-155.64796765723253,-167.56205212728162,-183.4638981480111,-197.72580081537896,-209.48895292288285,-229.24963216138926,-247.95045429922334,-251.17378287101704,-249.11590243198853,-249.7159233501186,-243.95362295639896,-235.82771424833595,-233.4167193791622,-225.17218673830078,-208.28472391385048,-198.26152908673583,-193.34509433217767,-181.72196938936293,-170.6220279273243,-164.72884021639413,-153.8202185905654,-142.08925037136544,-139.42272031322932,-134.43617404096221,-120.69931610504868,-110.55887183344599,-102.56856215833531,-87.45487453038764,-74.71609291055722,-68.82655737347027,-57.61779315587016,-45.01999055633744,-42.531696797499634,-38.91068735735087,-26.48544134745245,-17.316336068861403,-10.25347837479674,2.7865505174734047,9.752389341858759,5.71759271952542,6.3485203294857975,12.087833703404353,12.605881923794712,16.01380382116456,26.511035421713835,32.06174843230875,36.183271330142844,48.94777751655716,58.54057911675436,57.31115645921153,56.29361770146397,55.086607228575424,48.65895298482497,50.12683927776701,63.37047874480541,72.64429875884728,77.3071487730296,85.31156938375719,87.11852170046564,80.96459210752629,81.94341106991787,86.78383819605725,84.02863048552052,83.80527830453107,91.11602005472557,93.332543343195,93.46971757406841,100.86856180468318,104.21242521597505,98.72160888326802,97.0758993608231,96.36917325836681,87.90086372923325,82.87542226679923,85.54798307001855,83.87132777086192,81.57771627772811,86.80572668220974,87.65024462889488,80.61468170478726,78.54121438751872,77.22820562797631,67.74306956363301,62.51877589564154,66.64302411037761,67.25241111952651,67.71942777403333,76.87622643581315,80.9094982131527,72.75217873297537,65.4344339998111,58.213206419116666,44.97644784613155,39.865918757216065,47.934256515517205,53.15168101486057,54.00517260927198,57.7089859164416,55.629320815805094,47.27978575604054,46.669585902247476,49.415867467177165,44.14914158594676,40.06628704806217,41.63092632728312,37.922127005958544,34.14681596883647,40.471396891601,45.16412588848597,42.63190585054613,44.02892080653346,43.95865211459967,32.50961101494522,23.171559119547716,23.4362133089515,21.385040646938588,19.01382828925408,23.687164897725403,22.68299529364171,12.141135892351624,7.248573716223516,6.434268737021351,0.6001529830922165,-0.6743020696836346,4.333057617624407,1.7448044502389204,-4.614185077294784,-4.603259578085543,-7.3784209474284514,-14.906952892350196,-14.389879996014148,-11.50762818588991,-18.30682205208233,-25.215379736941074,-26.67168660604083,-31.299703299374364,-32.14867435305939,-20.49708182683575,-12.007651776034185,-16.006695703029852,-20.55551005642034,-24.369037816958883,-31.82770312466375,-31.259390203442003,-20.996422705820578,-17.823832154483608,-21.49371742135488,-20.446808059304537,-20.166392206309155,-22.80014523370857,-17.391253046881836,-10.237283112317044,-14.04525685820544,-19.860838327894903,-22.01020478082582,-28.899749457825045,-33.87667107480988,-28.447472250523717,-26.143054860875154,-32.32221912795793,-34.30531333719857,-34.217097192742,-39.50310582491239,-39.62843740433841,-32.40289834744666,-31.284291563383274,-32.45083885300176,-26.527260895960215,-26.117039800541637,-36.06207703608599,-39.938875669343375,-36.92116604560968,-36.46505955532938,-31.90400661426282,-24.477983616508894,-28.73297783903527,-38.110787847636765,-38.46013091346439,-37.267113813678286,-38.6393017277626,-32.64353701097754,-24.615039618474462,-25.464887176326847,-27.428539181940415,-26.819613315104757,-31.93069857666085,-35.36506640823177,-27.62412203981063,-21.474223551030178,-23.658525349700177,-23.94180108503152,-25.173467928229243,-33.97637024320191,-38.68293929336638,-35.07428894028802,-34.12461276305758,-31.984096861859662,-21.150238109164476,-13.782152315378738,-14.923845090517977,-13.630977967476705,-13.424926947082753,-21.76753372098188,-26.88901565755961,-23.845215774919247,-23.021157519545824,-20.79847585411737,-11.45362035319142,-9.323782934910318,-18.833974296923436,-25.095488403078,-27.996388181633634,-33.573366455382974,-31.00386382350694,-20.45413206763235,-18.389446304112667,-20.866881796560776,-16.097917474866883,-13.355160291958287-16.04425550783691,-12.559662652166125,-9.166403817891025,-16.27764457166031,-21.146695102831934,-17.80853371577754,-17.39121562006259,-15.256680528383303,-4.291039022000506,0.5271306426033495,-6.221656033013413,-10.195680841856609,-11.901233681713133,-17.708237105702334,-15.987579536135009,-5.649840855807103,-3.507476436884392,-7.076715415089617,-4.743425767774906,-4.530576154014861,-8.582411970795103,-4.929708886728982,-0.8762538624760781,-7.956701083317283,-12.648380672503956,-7.5297029323677105,-3.713781928228905,1.6621152401143107,12.884470856382364,14.445107853123456,4.522129902870386,0.2260562740178292,-0.11917812118529941,-4.669966933235306,-2.9009705185953827,6.004628009888788,6.981620744443282,3.236429544677483,3.8981729734962367,-0.5259954019508848,-9.47140329237932,-7.306476291826607,-0.20970053690363555,-1.5000136635569856,-2.0825127215051484,2.1464405621564,1.2059788670125722,0.8797628610109194,8.322994012673918,9.959383281660035,2.504074525779684,0.23052187034927835,0.679611136899127,-4.5133693975028715,-4.598479779328018,4.279053842544177,9.862946034291609,13.456111439333801,20.23033026627725,18.805307205810884,9.261003522428194,8.722711296251164,14.845446616989456,15.216255072042841,15.268353211511958,16.310678072265723,9.62177845006466,4.617809436670248,11.618965627886444,17.243768748022372,14.796084527091448,14.357540738412041,12.34170382423997,3.131608916385805,-0.07477445368928419,5.382169082033533,6.30576687676553,6.688023796810254,14.059183877955398,16.71207939271119,13.642665633352069,18.5103265946214,24.515601228260646,20.512806568385802,17.018945653922266,17.593713425663225,13.254478325749258,13.168434797043082,25.77061954473205,33.07908063989244,26.42277881232399,19.552651375837186,13.207983478746298,3.985732087798745,4.751450637652991,13.638087381069854,13.008200457784216,8.164604512767845,11.823086808212828,15.62634186387757,15.771567548898771,19.79094363665886,19.330915815881866,7.646426215854004,0.9262199020121566,5.358330026778468,9.0403727316024,14.11299206872683,24.595897409944712,26.334478383129003,17.251233858553746,12.720295885886223,11.565226885808277,6.609591958962412,7.6946075711332425,15.362533986128314,14.992407725794408,9.93143876016236,9.900488391593663,5.936191622216725,-3.461374500291333,-4.895399037601129,-1.7722562376706625,-2.9195544381493095,0.7872298281160797,9.881383594542546,11.038917865896499,9.289695551425758,14.152576729880696,15.352874433408541,10.739565305094754,12.446275583532868,14.398241132666623,7.391612705306256,4.040625005400525,8.050145853796202,7.098166229771239,6.329477365408175,14.070757594677117,18.02737121041659,15.02185955863518,17.175535256441123,19.13763825626589,12.036567210381236,7.131749532386445,8.022802060939147,4.389764190188366,1.6339492475031394,7.177133694121558,8.513901801427734,1.9333865560113372,0.32841082513438546,0.41969889596708637,-6.088325102888829,-8.083353372735026,-3.2648425778088064,-4.959914808145752,-7.855252872445131,-1.7723808775316976,1.5232649130672038,-2.5913020618026605,-2.2328910310812256,-1.663614376771446,-8.93649564457983,-11.517261844065995,-5.74202979326022,-5.1254899566673435,-6.739292294600924,-2.2195057604178605,-1.307084702096413,-4.801450488661754,-0.010499071898852907,6.769949407871289,4.648134742895767,2.447816434439487,3.610262309257583,0.876929324456598,2.7235583567900337,18.664915464330974,39.47055350262025,61.74942156942046,92.69037496971558,125.94108830155713,153.72313155122202,183.1441563885282,211.65490376538932,223.01953749169672,217.19448663839086,203.2348565979911,178.3697602663718,147.5876444328326,124.54273334664984,100.66385064857056,64.41852465304194,29.713725088681386,3.217354382264956,-25.7051745879717,-52.43551805898484,-71.08574771919739,-93.66477767093312,-118.81640247380581,-132.15934157523202,-141.4425259391153,-157.36717702682228,-168.5283391034052,-172.41729746844197,-179.87903811265497,-184.2393006991568,-179.38812981490014,-178.96840782883402,-183.46616079750422,-179.31340586498465,-173.38513393796924,-174.60811510545946,-170.73901171899874,-159.94875992643543,-154.47776443343113,-148.0447851785031,-133.30280269173542,-123.86697101699693,-122.46939975517108,-116.31230578914727,-110.34459216986407,-112.24270491702214,-109.49040331960089,-98.77225435904133,-91.37418020695515,-82.37776228032729,-66.33877312378493,-57.684200157384154,-58.048767703526615,-51.800945545584156,-41.831868943388876,-36.6734630286326,-27.37910097189632,-15.08873007312252,-12.929323157856272,-12.705149679435257,-3.4679497223577327,2.567976668007394,1.6938715546452114,6.262482107315321,11.627496861394958,10.437859134572061,14.614942616758318,24.963969020536027,28.243546532851592,30.396626138719615,39.46171814187153,43.07872770954662,39.44271348543204,41.59660793567038,44.54644217903017,40.56113699486292,41.43143597381919,48.378827277579305,48.890634143592614,50.09981962197444,60.16723788925349,64.40327752465228,59.01142940360699,57.296548809883376,55.96297132564571,49.431082648987285,50.70405313452522,60.644068720823626,64.14662854610606,64.2835076405572,68.52274207313334,65.94541119014694,56.29838033488465,54.14766165980883,55.583914966976806,52.67100359461486,55.63890511690629,64.28623273525267,64.97275848326711,62.67239761537623,64.80539845692552,59.85342932710979,48.68642451077936,47.27863635488755,50.78745185253113,48.69766538103878,49.44491846397194,52.665769116706144,47.02518897750795,42.259944395327004,49.005383309425,53.22981541837492,49.07963752509239,47.37050330371129,43.586967153224265,32.5862900975324,28.807129278178987,33.7859453277601,34.077163620563454,35.42245739476873,45.02142424901923,49.378166834229546,44.94420032686499,42.370685903731015,36.49830359684852,22.693039928854255,16.770675012084755,22.620825123487762,26.105692007406716,28.434660305515266,34.47052488315825,32.3986960553718,23.230839450820113,22.798165922700885,25.41074194017954,20.318325599211864,17.964169726826924,20.134283753593547,15.612514642417146,12.1336281452746,17.57160231955467,18.430247192502474,13.461944186369209,16.38132768249235,21.154387145851373,18.31084604078064,17.242473340934296,18.652022824900786,12.86441765627659,8.20744027727915,12.802344218803217,14.921441860598037,12.237482364922801,14.587126682625257,14.98583359882631,6.029558585831492,-1.4560557617909629,-6.101422659204673,-15.846671891983577,-20.60354952193478,-12.8545898137554,-6.556825851778047,-5.721756014723916,-1.4900936176607564,-1.649391935563014,-12.927714266186543,-20.928189667316694,-21.042963858407823,-22.71836687074219,-19.977463247661248,-8.658387508574103,-5.397295110154586,-13.471772495228356,-17.80510302529412,-19.892484957826284,-25.30666730969361,-22.956937889987145,-13.973157591333038,-12.977948390909742,-14.394664451907527,-9.380959604425321,-8.815143114925627,-13.858799626083414,-12.881091424734622,-12.62073590631216,-20.930896526864437,-25.33452362391825,-23.253762782579845,-26.05177149974277,-27.87731221565047,-21.487327031286092,-19.090794599157004,-22.227074332801884,-19.447830105733985,-18.628557038299892,-28.25406024377234,-34.69064559601489,-34.22457527632041,-37.539751237244765,-38.06976950219024,-29.43485576601916,-25.84114518205826,-29.659432976990683,-28.934887341578236,-29.383325660263527,-36.188935579197974,-34.87301831239877,-24.7050535843737,-20.87961816674547,-20.639751281086518,-17.881971861380396,-21.87993918682034,-29.201365522428272,-26.543387951313296,-22.872721245157685,-28.390924762631293,-31.244079337025262,-28.37247180819655,-29.421880923998085,-27.141745220359212,-16.14766715002807,-11.479885488302184-15.130401078956789,-14.55001885439335,-15.701603757714322,-24.54745835583494,-26.52282331493019,-20.22822270339063,-20.09744066722424,-21.938338845402026,-18.733580410415904,-21.298086993236343,-27.826151850821244,-23.62625403763827,-16.290404005537344,-17.643864970680912,-18.46997639533624,-17.170562310561277,-23.229534783759412,-26.7396635256709,-17.49472951443375,-8.374959616205889,-4.715408678814065,1.6400611956200062,3.2907769526050457,-5.780754131070566,-10.882273361782733,-8.068057429345126,-7.98526573388002,-6.012923908713354,2.5183800006592794,4.382147917217365,-1.8493963209119375,-3.3633734134854802,-3.561905868233529,-7.342120432247344,-3.727875755865956,5.223868272778951,5.307793725449269,1.8246508897237017,2.6196559240343333,-1.176024796348092,-6.904587789979886,-1.8030272452429505,5.315649932500305,2.947024470609068,-0.26674244467532676,-2.7281156567766276,-11.577353104653243,-15.04830909159861,-4.222118134109646,5.0693763357291575,5.989918043531471,8.229863162780527,7.025594029332158,-2.8692753350694304,-7.4407146020795825,-4.098245582883144,-4.854198191966459,-3.6335892660082587,6.628638702210376,12.01548669573988,9.703328173046225,11.771630662149756,12.350888378951314,4.866775506018828,2.934891448263662,8.282799164131497,8.540412368193735,9.374317066789473,16.2602496730216,15.695901866894696,8.234006226093454,8.343906452314183,9.904448464562215,4.571652655751938,3.7824793506925225,8.08824034041393,5.336952116253688,2.1255226764995037,5.347709360756269,3.1781388273761153,-2.808106587288778,1.323022725235559,7.788453529623283,6.262891506470237,6.548964732008935,9.188818154800718,3.653031869146105,-1.7278118795629216,1.426091159614344,1.6956861196218258,-2.063932997509283,0.9657275600834432,3.880305415977248,-0.45743561804893407,0.02198739873409228,6.076510549086028,4.908759016976328,2.090870761662825,5.5411103187528585,5.724144128887661,3.7242179158603252,9.562032966855519,12.79335427257333,5.424458348361133,1.0777276794938668,1.732223022104784,-2.2750262477960046,-2.493447628761555,7.065776948311555,12.499913304791825,12.182143486708236,16.369908336683572,17.37783143243795,10.372933089376001,10.429832236098203,17.62628900962292,17.60862609529673,16.05666430997707,20.175782439623777,18.54511850403395,12.250453422712585,13.951091266686545,15.542706073280932,8.944837539898263,6.324132410486859,7.4422252570373075,0.4760581180302861,-4.841168291144123,1.3477124937823146,7.095070096714838,9.952322634337053,17.629304628475218,19.61116802102824,9.948302737849845,6.518937184764652,16.07222724481326,29.0455291512998,49.92002021929903,81.4954373748871,109.41684196710395,136.39836527847837,178.1498469810399,223.2206822601692,252.4182384005369,265.13610400274695,256.104230723571,223.1962744803593,191.88783134823058,178.1754723272885,165.89985104867418,145.8891673565467,121.667397045368,86.57426068884365,44.67154360393515,16.133322564691294,-1.5912970937658204,-26.701668673270483,-55.55547391999091,-79.65952729970725,-105.71421269201365,-130.35129236296336,-144.0064516513263,-158.69435046850361,-183.1271657150125,-201.56862075946216,-208.5555331002667,-214.31746434663012,-214.88290674451798,-207.1935388005182,-204.55857071208044,-205.9773387476144,-198.57173009647144,-190.95906003814798,-193.00676501420187,-193.26295565349437,-189.5289438678795,-189.67982181502262,-183.38264209812138,-165.13769480041137,-151.27113424858345,-144.44344248260953,-132.92327891797237,-122.50109728788868,-118.91733405614987,-110.56582418768534,-99.08815742061118,-96.95032001937729,-95.65463815929041,-85.9636222043269,-78.12339338197256,-72.44862293296828,-59.445972545630724,-47.93664531934674,-44.82209809598959,-37.81336598179231,-26.706968634237292,-22.808060751412974,-18.548123469689333,-6.389994287288268,2.311089567585168,7.020100650906193,17.754719250894087,25.29117378836974,21.908034656565626,21.803589391201868,28.45128264714088,31.782808135638142,38.30940835786059,52.635735508347686,60.04036355488893,59.05286445478335,62.40226648175663,65.51655165120151,62.26469636960513,62.59607823562965,65.1888603860134,59.46475397532217,54.634414655729515,59.43970765996734,62.22888787546502,61.374836711810154,67.39436154105556,73.79767456086478,74.47018042091898,79.93168642183872,87.2983419366435,83.58269534089015,77.16741897520114,78.11118018186554,77.71710893549361,76.50731031592703,84.00446043994603,89.77366940125904,84.7341057230343,81.3353635015937,80.64881141669599,72.41209242440597,65.98438712655171,68.25176359250844,66.67300768259712,62.46997042355624,66.43292094380459,67.78687641495189,58.159749891210666,51.45864799631955,50.97007591694537,47.9752321093391,49.566415053584436,58.800572190184276,60.46966971326263,54.87279489723171,55.901358984565476,58.01733840572072,54.223714639515194,54.55488792399485,57.19469580342811,51.36628590323847,46.44730243710249,50.14985789668882,50.092858410866135,45.161145956388125,45.64371764799777,43.73633406967723,33.80122160779818,30.11083077380679,33.22404696235981,30.635397797688267,29.212121160372572,35.38726300083332,36.53585303496451,32.03776360370921,32.40358095637234,29.618068644780877,17.537654679719864,10.180851600543877,9.759280216851764,6.198925266588381,6.781235469981495,16.14669112679814,18.878863256118137,13.053681565027695,11.221140890592798,8.872783707566168,2.245200664870614,4.4700466030675425,12.69228415347543,11.711074406568578,8.478881211156004,11.034956948344451,8.382331894426471,1.9122906215805293,2.4932688336602205,0.5257352638614664,-10.284207429234646,-16.633283371800964,-19.164170898259098,-28.14387801451437,-33.11111035276324,-26.34343773125261,-21.10527594208287,-19.899837908114684,-15.546813611854741,-18.252905961052242,-31.56473366104668,-37.21925998126077,-32.836592538875905,-30.69262301008178,-25.247327061341224,-14.144206134003436,-12.755252067090296,-18.85248920315154,-17.68455953458896,-15.54594343795316,-17.932513390964335,-13.39650298585653,-6.712920693813972,-12.223005551452502,-20.35307320403227,-21.974743385788297,-27.19470868691379,-32.93369811982322,-27.84804385860275,-22.776528860546975,-26.527969398248484,-28.516278975006045,-30.216579833011583,-40.43443855825775,-46.92106161323577,-41.47619920681687,-37.389816350293735,-36.40753371017191,-30.055659515158958,-27.803570706853638,-34.973982061097395,-37.72530322135499,-36.37106261019406,-41.535491591605805,-43.22788100243374,-33.774262310180504,-26.6781422633113,-24.168107355680505,-17.535841946191695,-15.773831813634228,-23.911085681522625,-26.883319001417938,-23.71271266540925,-26.441530200326277,-28.459383378060448,-23.349875480164176,-21.762854593899938,-22.296572285750088,-15.73157761917044,-12.433972535043045,-18.837350617407978,-21.392064607530493,-18.67250151185129,-19.846647166275577,-18.301992800657274,-12.158788347166531,-14.683447989867119,-21.49933620215239,-18.368482818148625,-13.129975040392367,-13.690735915023438,-10.636909877681536,-6.868911041309763,-13.264132540376517,-19.98947226707579,-18.9109126837833,-20.857975649141306,-24.340798331197927,-17.58447531049088,-10.220821838827751,-12.797145150959956,-15.175318850166077,-16.45544168723967,-25.11194798311018,-30.252435469467414,-24.171548799025835,-20.651699608646723,-21.623983667072473,-17.117186029652864,-14.934491383977452,-20.871093614898953,-22.51984176741556,-20.374024714551606,-24.374534420884622,-24.432766106346428,-13.206611156080308,-4.0608086673077395,0.332609695315962,6.912926030017545,5.885423481760954,-6.256089889249957,-12.573713777130276,-10.264400057330015,-9.287979982980504,-4.30056388184741,5.820648417032883,6.175304211365464-1.4744933246148397,-3.071591069184547,-3.6352955849415887,-8.535396617148798,-7.295738634531819,-2.517265709641788,-5.68963264668729,-8.620850413286565,-5.734546837377055,-9.993247385940712,-19.760476097541627,-21.375614273297604,-20.7380763999286,-23.928597039817234,-20.531338785715597,-13.643100493749744,-15.33029487808003,-16.393569741859963,-8.7937383864112,-3.8005352192011754,-1.5428132754880841,6.579343255467846,10.20621555301416,2.6461356283864648,-2.3815914540828835,-2.6012762507376594,-6.223498899478531,-5.245557563488609,3.64658319406866,6.977831257736612,7.3031211077038325,16.149175097945317,23.73578136946706,23.10279141673343,25.280068884681214,28.37343869118681,23.437928430485044,20.10788179732557,22.760202774205148,19.608668357482532,15.310962567173815,22.371990015969573,30.1482808655503,28.630004676897187,26.178926004326552,21.52073002350925,9.38825747707195,4.082951498671896,11.865249877673216,17.223835650073543,17.783439437893463,21.719375002530562,20.39873757739414,10.20366659645537,5.5975912907371015,6.104493596037823,1.0842209264941554,-0.7346273274997743,5.743948544443616,7.562778109199389,6.677103163560595,14.676782332605788,22.03715551251383,20.209744840607243,19.93173194779909,20.87104297451185,14.380154271701901,12.381167372612511,22.168266345844422,28.05154392145065,27.439801655001286,30.343381696307006,28.87188732242024,19.112936027399325,15.77648388968415,18.190370078600406,14.843756840871675,13.342445071641144,18.342680973358338,17.280521170512987,11.825191754395885,12.996243629662107,12.82468984721846,6.073144685838774,4.639410042196689,6.9924306937959795,3.202709353753746,1.9169746334445774,7.208297391507335,6.276574361042268,1.9021607011420805,5.427082903220978,7.80169178361994,3.3356915978303907,3.9155761437945635,6.558372047777647,0.04610284608507298,-4.9082934544304,-0.7591690699102107,0.613905522176267,1.107254928971776,10.923976841055667,19.016777396210593,17.606838778444338,18.351605036454757,19.959157280789086,12.740672669583066,8.669389348508965,17.043336873105606,26.31927462772211,37.7537607794738,61.89865063949067,88.23328240876491,110.36183905471333,141.81872870911872,179.42070250980512,206.91947918879595,227.41463130175555,241.85499660414908,236.0816979116243,216.5002184027334,201.8150482124944,187.88789998645606,170.1963839464625,159.18320360511132,149.04359079757853,126.13581277841097,99.16433298670194,75.15130930972086,45.40012537458557,16.497141570835492,-0.39948965445245,-19.117701553109107,-48.95372137258759,-76.58643676097485,-98.96473977322553,-121.29436467006013,-134.39088459779927,-139.40589184653862,-155.77227112827973,-182.23630805345795,-202.54415623610845,-219.98102255280293,-237.94899204470397,-245.68049595699483,-248.4511561303094,-258.07739835126597,-263.5493919443885,-258.43191640480177,-255.96700691285488,-255.1308354072823,-246.29573814524292,-239.3888100338006,-239.33676198058268,-231.98218718609758,-218.30146699154892,-210.3361421597206,-200.9339288310399,-185.74707311815774,-177.4416092608132,-172.42296235276314,-157.3914441176236,-141.38440731321566,-133.0214381797154,-122.64182955057237,-110.70192174652782,-104.19141273363726,-92.84820744982441,-73.16588165071424,-60.71258701622541,-55.548718148986,-45.671247743760695,-36.43068332152661,-31.150192174912938,-19.577432955226254,-6.523494516263122,-2.3450883507603013,3.4754848810120738,16.387369956404598,23.30944663253659,25.44246245409449,33.032421793658145,38.2397952845737,37.68305820912861,43.37370485140669,51.742433146075314,52.46524089785988,55.47809986433512,66.01987848380112,71.24390949168946,71.95648527364986,77.51047124365579,78.74862716410648,71.26254667560076,69.81519964591288,75.43237716958618,77.81112450115937,83.44854926700098,94.36842373025729,95.06001722718503,87.74091510691454,88.15081318077628,90.59368980394582,87.77488682733991,89.74968985590785,94.06081614368738,90.00005704178932,87.57902051280982,93.8754232579843,96.70532945679028,96.81973115697754,104.12253346646696,108.73015886493343,103.83621158956439,101.69230410970783,102.18103390185716,96.79385006684782,94.55164341547332,97.81922608779227,92.89501767612118,85.26795344717472,89.06000958078114,95.17169513562443,95.97193379088209,99.12890960170823,98.00507129036883,83.61056199461888,72.14213454504002,74.05557463987952,76.8975031627205,78.98073292704021,85.80552198110989,84.55323214965128,70.47152958467785,60.813764028511486,57.931344195493494,51.84992105145553,50.75733656240189,58.47201542812616,60.567525236632335,57.752305616751684,59.8700578328414,57.98969557572692,48.32857422165533,44.17772399030422,43.60234215408755,36.98834041679015,34.31116918851613,40.91972272489638,44.536375252436706,44.80803888556889,47.58879489273528,42.883169914206675,29.304384431735475,23.093128524713407,23.606235994752133,18.707026219828393,14.923188310031023,17.577527740228966,16.286513561106794,13.359067398298162,17.384726101842666,17.67030589527902,9.661783299108162,7.824917870227243,11.074106499067607,6.798550600423871,0.9074704642222309,-1.5923759807638895,-10.101070672195492,-19.436241244420273,-17.272909342496817,-13.034577480689682,-14.813535543683464,-12.756446465853378,-9.319606527999628,-15.428798922043384,-21.636918685255576,-20.49648445457813,-22.962648972556913,-26.973088264773466,-21.54504643213978,-15.962436397350796,-17.709579479103287,-16.492926110421035,-13.768853100909833,-18.538506571386662,-21.73125297073517,-18.577147361087203,-21.613791294331904,-29.593150409812125,-31.19880382016673,-32.747670238359824,-38.66302692143306,-38.244431327196075,-35.03220412194546,-39.9373296277717,-43.40995664760741,-39.60915533661846,-40.21448543865182,-42.58949504247614,-36.651757391342656,-32.714334920273245,-36.418888795186255,-35.54944182663016,-33.8600163954224,-42.279438887852194,-47.91967709394492,-42.51633831089314,-39.28306018889222,-38.41407217761149,-32.454312885554884,-32.55417212456116,-41.81697408128709,-43.957762112990395,-40.120317476095885,-43.38876367793013,-46.85998680222135,-44.569604867034975,-46.098293296231454,-47.348422972075824,-38.7983846306669,-32.816395870493324,-36.69671934634446,-36.79843548350506,-32.44861054725049,-33.121671143318146,-30.968764813932008,-23.55235451197237,-25.619741178073248,-34.15531954584407,-34.776267411047506,-34.64422827210436,-40.20192449557381,-39.832361868354475,-35.75598258045366,-39.37933414015226,-41.10355198073559,-34.45053476872137,-32.195008166369604,-33.14492212661041,-26.554449187176694,-21.128011237928728,-23.04461694297484,-21.863860729574917,-20.21728966990719,-27.033326673470146,-30.466879643830858,-23.44365915278049,-19.465615260881172,-19.968303795904944,-17.384221316865208,-20.548128961235193,-30.68162498289586,-32.28977296376398,-28.76513054862682,-32.52276644889981,-33.982973521584796,-27.462860652281506,-25.45617893612294,-25.60021566200887,-17.76661899970919,-12.649727521611329,-16.071355454254277,-15.031083460028846,-12.151342392103201,-18.228145234835644,-21.11228695293004,-13.172837207203894,-9.187881239053693,-10.818588160510576,-8.82202237311201,-11.848996945887235,-22.62534442065688,-24.29010979980307,-17.087859486759292,-14.445038414195766,-10.965834856068097,-3.374215044625635,-3.426513005052811,-6.182338006076948,1.3902427322867883,9.650550614297334,9.525100233357074,9.779324595777739,8.92478647470084,0.08855719161949738,-4.736889860648549,0.10089365893053603,1.0151194798300345,-1.3749494544209937,3.4236145728077627,7.161555546054322,3.896356174536297,3.738703601071155,3.6067298500124663,-5.775106006684478,-12.904061242774358,-9.450530267615086,-5.703258788163323-1.757948723202965,8.049278694746233,11.781327185568331,4.229309425272453,-0.8416027117724765,-2.3230597905819748,-7.551763878472814,-7.377801528165476,1.8214081552165595,7.119649471180568,9.698798209762383,17.450450703777115,19.486599876579522,12.170742471131078,10.637696628234629,14.488558677296616,13.7432343100309,15.948650642429008,22.758731951736127,19.7813886326172,10.630791745223657,8.960347865171668,8.716051580645194,6.702573347355211,13.591899973418542,22.43479873768907,19.197534301270814,13.13787809118262,12.904687283605004,10.836459789510496,10.22381177179649,18.094476361106167,22.282740298992366,17.84322162107933,18.28234140893932,21.59598019515168,16.45362252288085,11.610019682133162,14.07489078907378,14.882025758162039,17.407706204103857,28.157389005210266,31.282105161271332,19.75093447083929,11.047628264887933,9.159832785601457,6.146910404503654,9.36939196757868,19.307777589954092,21.066192873024374,18.256360510919286,22.617566166014626,23.970758047977426,15.845357875019639,10.937680477970629,9.924730237812666,5.692016390266243,8.061128984939009,19.644905890099817,24.475748845197764,22.65462108002032,25.050955994966483,23.952173689028836,16.092084475576513,15.775231921131288,20.97581607791979,19.403708312816516,18.4491243743408,22.21111875979565,18.966732992130638,13.205581785393594,16.536639065695766,18.470815403131354,11.782544622560092,7.340298633004497,3.702175912181763,-5.557257470432071,-7.412273555582342,2.559754063085204,8.284282925153688,8.909086542886326,13.673124910902057,14.755897263522526,10.36879111015956,13.294661917288517,17.811312288586286,11.788377436538244,6.410204266448985,9.064926064269901,8.985291037906853,8.089678826419402,12.991046123827307,11.489453619915658,0.38101509670701716,-4.472614671303682,-2.93844522014895,-4.200173317209086,-0.32532249158818516,9.78745897435599,11.263852896208515,7.142074148552416,8.238632610808537,4.721961125526997,-7.15120756395933,-12.692504482398608,-12.359842624433222,-14.980534325938047,-11.043056231783225,1.6874132895090153,6.586739744892568,4.241842877482622,6.160879318914292,3.9570783142562735,-6.520635863618782,-10.67007064793446,-8.816025261908262,-10.969363652795323,-8.403506150060252,2.2622798684680134,5.280748274193614,-0.2744526535172338,-3.2112465803283827,-8.120283592963741,-15.834423942138521,-13.130689849758207,-5.463322901942676,-8.991989141310576,-17.6100847400071,-22.958553624606274,-30.507677584956646,-33.7036998831783,-23.53118919526662,-14.238125743554626,-14.331315876798204,-10.63589804735486,-2.322345745951724,1.4853583841275235,7.332480275924805,16.315291525159118,15.490509808399441,10.554503311715944,15.704462744749222,22.18633867113142,23.028618630960445,30.564728578343786,45.77369254241443,61.832612917776345,89.75209197773131,132.99681107046294,173.92860862539084,208.66991660245412,241.51823031649963,257.6730057351038,251.35063078961105,238.7480710288677,221.82045859784913,194.20070717844385,167.87881976865418,149.06901014329367,127.99614070167857,108.27187301793474,96.82184730043134,79.29159461386509,48.04722618615307,17.86909741898718,-7.941606319963696,-37.04977879664293,-61.36364344376172,-78.26476162753065,-102.08376039802027,-130.06436581098302,-148.376250066685,-162.66499072261354,-178.04599660273146,-186.08525675326288,-192.40509370518302,-207.92661379566115,-221.75046284893259,-225.91437264312202,-231.09373642843602,-236.3225720775324,-233.94961662482746,-234.43686056569115,-241.28684435285135,-240.48861798544982,-234.08924762764562,-231.86247493303705,-223.77632595029368,-205.92205752878093,-192.96230421027715,-184.70307593330602,-172.5826567755683,-166.09829344338664,-167.58694118442193,-161.4793137359056,-148.97389892598994,-140.84176505826989,-129.37454422650126,-112.61593209749483,-104.03135477098334,-99.2348963390786,-86.58776396138447,-74.8502478143516,-67.68517312858835,-53.64222282927834,-38.67910932380448,-35.043259753911755,-31.180755339579115,-18.9455277571305,-9.254619106486615,0.26716550634451086,17.15569367331873,27.750623043782724,27.096299079310185,31.28541962357043,39.26090675499554,39.03283163052491,38.60543110268434,42.73147839304045,40.81465738740563,38.9710398682402,49.28757975282855,60.70290572792631,64.98683121516466,70.22947871081233,71.91365490309785,63.29318830057501,59.82104682810977,68.95495654749631,76.57444870326852,81.91782850837106,92.19712589830984,96.97165339887664,93.03389112599432,93.99032249055679,97.12471573920301,92.73519866694387,91.86990501836138,99.92926186602648,102.79908037582713,100.26548497259955,102.39541005116338,102.38215710931713,96.86082397391492,97.79933750691008,102.59469377100845,100.56375627514755,100.08110825777487,105.86675211093524,105.59650062281926,100.56222547029398,100.33068895269531,96.2964907802117,84.78370462828073,79.00761357123493,76.89491926664974,69.30989416266115,66.92122237433014,73.3754631853632,75.09161003852807,74.75028897768885,80.49015138339139,80.30116296001233,70.41863229302643,65.20018669167064,63.223754112687644,56.80854728811701,57.477798097568666,67.6822739271568,71.71909178404319,71.171791817445,74.77793645656729,71.98374992847882,60.439321391009145,55.36717110908458,54.36804125836586,46.45759272471715,41.10010535667262,42.179751606980346,36.3098832311087,27.696226825808743,27.909240281750115,26.527161863453813,18.73009246061302,17.559436937609256,20.340410493414808,16.977741370617544,17.631026833789782,27.11403722413209,31.75616995588543,32.31906547799958,37.21675052540199,35.989484419596316,25.51922688667809,21.39601814198852,22.94401803669448,19.555958903384237,18.37930875260443,20.748920222510026,12.525056966456564,-1.709753598364908,-8.489104913010948,-15.429790125862187,-25.711020602106977,-25.737437571799635,-18.66116251367701,-16.94489146820543,-14.460032725769473,-9.214493328505444,-13.202627399982887,-20.565235119899828,-17.766155522899723,-13.793790757628582,-16.313613876407153,-16.284281680678014,-16.223562774744593,-23.105461973637368,-25.53361978013344,-20.078043633586443,-20.066925710034656,-22.268571933020127,-16.50656847551012,-13.073295527967755,-18.866798296065884,-25.609942213744652,-36.65384976593453,-55.556696320461185,-64.52047534582549,-56.24888536459852,-46.60597464517342,-39.3670056068613,-30.170745086495838,-29.689499858294077,-37.99141782837768,-37.695391839115025,-31.506216910527364,-32.79239076126143,-34.539605334568215,-32.74938602341662,-36.89505547695794,-39.43024530117178,-29.201830612204652,-19.50544444686279,-19.4282856053009,-19.371574738314084,-21.754564266628392,-32.50820503470691,-37.536524616017736,-32.6161242616805,-33.189898993416534,-37.282986965581784,-35.1014238523748,-36.748113486101715,-44.514764157942736,-44.82940716731069,-43.23506218389268,-50.55794371081258,-54.47291089516321,-48.84147285933058,-45.583427617838936,-42.55195946079835,-33.3856489501021,-31.85696624810072,-42.51693130842388,-48.60429633710267,-47.16727454142727,-44.56690189705313,-32.874542532375244,-14.82214277687144,-9.737074242168543,-15.93431571456432,-19.243308429023514,-23.47456500990395,-29.031544048132805,-24.78779830779076,-19.2843053436802,-26.221445552132753,-34.87429628759115,-37.25712224348213,-41.53629127259498,-43.20938933036955,-34.86559881584654,-29.599720104880955,-32.936973419235926,-30.942465505102028,-25.170495782000764,-26.917487338666277,-28.05020095986025,-24.105594988115158,-25.500952352991384,-26.11460695242866,-16.036156077319276,-8.93549565463239,-11.641054656998968,-10.714002048856196,-6.0798864408692275,-5.999374841994593,-3.608643194842472,1.167887110869204,-3.689856866511892-10.406730198974588,-5.2265853470281165,1.2286752033881263,-0.06730988151787098,-1.4099710354703783,-5.464949001746883,-16.312199129134697,-19.904068878904432,-13.27835608653098,-11.045322757495578,-11.043855296791836,-4.989453108718438,-3.6111688291715924,-10.353221904282135,-11.715832101788894,-8.53467348011803,-8.36574585370805,-3.521500305615569,4.69991507916324,1.745293768803092,-6.0891005615186025,-4.073574384027621,0.38364382499979754,0.95654483045748,5.49202839044808,8.389805203424256,0.9268949603062802,-4.19382230336768,-0.7334325170992395,-1.0969004957228319,-3.1161672978075914,2.2035747867698725,3.41477542421958,-4.36965712409704,-7.358330987064855,-7.663189585855598,-13.705234287255672,-13.139683585697224,-1.8761939079235317,5.12688736661856,8.566360549835192,16.513963618524876,19.601002594039432,16.43438259219564,20.46725615873652,26.593780262725165,22.761263414228104,18.144965082305895,18.467715142288196,14.108517866696008,8.932393318962134,11.452134605681822,11.105674328757951,4.167154607612593,3.740244231386031,6.630263473279358,2.4938608968224267,1.115924900746995,6.091120764670541,4.5026236501326125,0.04896934410830367,3.2042822748389295,5.301438263325863,3.2245701261886603,7.589201979994262,13.025742075874309,10.596045755489836,11.718265090547,20.298583542224815,23.211184171740545,22.397784519689964,26.01345196056802,24.731023928737326,16.741925723740657,14.119097009350815,11.570155755582782,1.04110771652004,-3.1986462113664667,4.397599988614326,9.961342641060943,13.751988096900678,21.4934983526374,21.901729382072595,13.884810495443842,12.96031121284236,16.33864566440336,13.030135289481915,11.9662055236553,16.926535702536363,15.769929090806773,13.259738498430416,20.72216414361977,27.528427871526958,27.377092106542754,30.038073935167887,29.919680109331043,17.853533974680847,7.680745267039534,7.159620235492505,5.644913503886405,5.650213859639717,13.374976324318233,15.467167958111105,7.6836522601661885,4.996276765718873,7.258514772792398,5.936722256951524,8.926637976917993,15.904469785520627,12.079274317107128,3.8076694971603997,5.721788683479065,8.975941354868993,7.092069020932611,8.961773511491744,9.426995314088483,1.1823089031341003,-1.7290271486151907,5.435640309668393,7.93086637473902,6.786469590599404,11.362024107166278,12.738657270340699,7.780471575327589,9.267747874799033,14.06679842047253,12.322917910959834,13.379315831792953,20.24990979877923,20.926507644480964,21.342153509725875,34.81489779204831,54.646328397282275,77.33836367828945,111.00819497453818,147.05898805362773,174.25647657242146,201.7415112250731,228.73685066392744,238.46032502598388,235.00029518471285,230.84672964247935,219.20506639534577,199.82010315160397,185.3143700895767,170.37525570690397,147.05943093050183,129.59250808172388,122.8198368444831,110.58139846872035,93.03494320751312,81.87454137099665,70.12399894973272,52.62599419997734,38.32912516776995,20.689333235258985,-10.528848024654891,-40.52128808433449,-59.51736663392891,-79.13675950545891,-99.96524413627725,-116.81492431958709,-140.5293711814935,-171.48576540609628,-192.98937277082752,-206.10282084032627,-220.7262469581898,-230.6795128150245,-236.36299718067087,-248.74194820542937,-259.9675844898414,-260.0143263878838,-261.39333712870405,-269.9866476727924,-275.39363463705587,-280.61640344365105,-290.4905842017123,-291.17886504928146,-280.3919046501119,-273.38169041895935,-266.849874148957,-251.8261703049809,-241.24150916296603,-239.683353259333,-232.83062355843003,-221.40573314983263,-210.83358704941844,-189.2404553555728,-158.063558701666,-137.8546120782321,-129.03875902413023,-120.06198710406068,-114.67973852233354,-109.99832591708295,-94.03749306058867,-76.69242524811645,-70.60011123589703,-64.94171394786076,-54.62819452294298,-47.6766158534249,-36.231222756597376,-12.854739633643867,7.430869347919048,18.301604959818114,29.484390863679003,35.73931613185287,31.395401555715154,31.561391721817834,40.25841940804759,44.5373646869118,48.42400030789959,60.011921071406036,67.68330806244691,67.83245449986534,72.50272382654082,77.90758218193227,76.29075040117644,79.78177094457047,91.81516783905104,98.34324572245569,101.26476457418525,108.35273093460086,109.13897574378721,102.86640098626519,105.87389681557892,115.90649886652521,121.35599444574241,127.86822185607892,134.92593930521605,129.7945134188548,119.98232574529095,119.58351127829629,120.71617865222039,119.7207087458941,126.50048285370681,133.67522621346316,130.8786181351578,129.88262525727185,135.18183736866385,134.8028463922613,131.42617581037706,131.98405244524972,126.91071248489004,117.03542237682754,117.2093360506005,121.91087087781872,118.21654823946326,113.15040085389737,110.17679905422108,102.32504840120009,98.68675326669242,107.52372930842441,113.6124312670347,109.56349383313088,106.30665676232054,102.12279071994506,92.3505726831492,89.6033222907607,95.44190367905674,95.0730940695346,91.17195780933042,92.77328674661013,90.45608356546722,81.60627168099145,77.76170725039341,74.57420460041905,64.1103086346465,57.50137073356297,58.2381004405881,55.335111357787305,52.80855395487653,57.51601796309575,57.99385220088511,51.54298019705906,50.1341525763461,49.72581530471196,43.020017598009105,40.89081444764126,43.54798520645659,37.02743430487238,28.074281883063115,28.812109982894256,29.714103266094668,26.969071585749937,29.569912160550842,29.195037690890707,17.07602098212462,8.02733405557007,7.295642281514029,2.1264693564166155,-3.3908718432274174,-0.9315928972210381,-1.9898438197825137,-9.259978484686332,-11.217401946497468,-14.148293534107555,-25.38162264348305,-30.33662157861778,-25.428877173753193,-23.852502556182248,-22.48723953951169,-16.15035107445623,-17.71473181538849,-27.88689820757397,-31.2981563400529,-30.40611565200209,-32.78856313964675,-27.785226205274306,-15.180324424647551,-11.264443002358256,-14.168906256996838,-15.439214536400405,-24.172432377712305,-39.25640050564015,-44.29258505111996,-42.711789170106265,-45.66754713804936,-46.291671688445255,-44.45923394774529,-51.377041086677224,-58.85848281233775,-55.77419054342846,-53.589638728129174,-57.52254296019514,-57.85279077474541,-60.10162511374523,-71.09084172719915,-75.58480025523183,-67.60067583523457,-60.32813997763856,-52.4858822274019,-39.198813634746486,-35.318833519384825,-44.14943723716839,-48.46450250217955,-47.8156114628526,-50.64917252938741,-48.23742448924444,-40.26164220317639,-41.51846394605889,-46.860868157250515,-43.65998162528648,-41.37775081131373,-45.03857629582976,-44.70386531895858,-46.1281019779934,-56.85532001469424,-62.64555334406495,-58.62211075822205,-57.83836235334457,-58.1130934551582,-52.395998872761695,-50.53675486670201,-52.79167813266723,-46.58074359023928,-38.42720781525139,-39.01893099538907,-39.35075000306794,-37.13010804143327,-42.079789303902444,-46.76336625853308,-41.6583742912916,-37.61391839574996,-37.96055783687326,-33.12811425088717,-31.05031658313419,-40.644524369587195,-47.942610003520876,-47.202791953484834,-48.794568403178815,-47.618385268365586,-37.47440661599901,-32.32880464795303,-34.82825556188942,-31.682439880860038,-27.887136558007704,-31.699344416469174,-30.816491760539087,-22.256398077120057,-18.55234456299258,-15.819422617755773,-7.413786457222873,-5.899060444836717,-13.541726542947362,-16.253117710232452,-17.592295763275825,-26.21988475037159,-29.919826643452474,-23.746743485476976,-19.936066789449853,-16.667513142777654,-8.887730092256556,-9.698287236890103,-20.384913134136482,-23.35798692404575,-18.68483367477439,-16.657017942366913,-12.147555729987438,-6.452382714094848,-11.371821670701454-18.004814842928717,-13.352223497994798,-7.746383651689946,-6.622240495584243,-1.6480086677354382,0.06292583896245907,-8.935908077037789,-14.919123328223456,-13.618088362465011,-16.137628826201706,-17.44445702437111,-10.557837347536186,-7.578509271607704,-10.276920062666997,-6.522678199112225,-2.740024886905661,-7.947996490916157,-10.083229650526036,-5.481218613285024,-5.205639791181458,-3.4004175851232668,7.445430803518944,12.853291555789195,8.34737864729479,7.06037851839781,5.258427055311173,-3.30605797622398,-3.706693192508032,6.825123253528875,11.646506521615834,11.757333536452123,15.046604672903577,12.682412984905318,5.57249186647068,6.724253278771612,8.609388160080423,1.2326770217219898,-1.9953562407325856,4.110014908167747,7.191461386826575,9.300857689957335,15.407297000972411,14.36213076442456,7.909956550005189,11.396062286795855,18.806784448817847,18.380188355039028,18.57203499114086,21.495516127240155,16.90778429254494,12.537269024210863,18.491661097128326,23.27700888343434,22.68434370795883,26.2692915068564,27.003521242899488,16.66626379249169,8.804682217324405,8.840014840225367,6.29022070409337,6.179404793961916,15.819458796442332,21.850309254309156,19.633147446930636,20.803851768198243,21.805241491605045,16.582574968978836,18.24256522024223,29.136569793081257,34.406803649276355,35.71138877846364,40.17816332267677,38.14599024703212,29.71274047424136,28.03741911531575,27.694586705417986,20.32318815459997,17.92454205399631,23.550955968749673,24.561288948741304,24.362927796162722,30.065750200855643,31.101930177049198,27.469175290534967,32.484474458607124,38.30503409426627,32.325601403503484,24.65812352379622,20.734313227430583,13.838875596092027,12.670577044784737,23.562204035845344,29.732030927944333,25.068558784058073,22.187841895135833,19.19864082782076,10.57106261339968,8.601260986310796,15.312986586698823,17.29392198855089,18.23348105061016,25.19291897870371,25.220449761645206,15.853825898395147,12.593311046765196,13.532324523377781,9.914786410735445,10.1827867951063,13.893730869827541,8.956067730722925,3.8417874721036487,9.812644780116274,15.461075177012614,16.01720842487874,20.809325925637534,23.48311304648493,17.357296238572946,16.422510758628853,23.53871631773004,26.218229527970806,31.79729474185622,51.78943796217089,75.6244253136735,100.29178075792532,136.972316124747,176.28626228607206,203.8253556616229,228.48817311504877,251.17519404660115,255.1339523394876,244.5214594695281,233.43088033748592,214.86439011196813,187.83750519605306,166.83519900027267,147.38324741661387,120.4163161069886,99.19427591538255,87.80861821409641,71.57222436098317,51.43631040026578,34.21066537957765,10.544947708854215,-18.260516816153768,-38.292013744096906,-57.72827346574791,-88.71415270818628,-118.3388875745169,-139.55697472845497,-162.116042428799,-181.10303050382043,-190.6726379270258,-205.5763599842834,-227.6661545669748,-241.24558711544077,-251.1557194131673,-267.57539920604745,-278.8026286831526,-280.60169385346046,-283.24357633241937,-281.2278546736562,-269.3185796154694,-261.9299014999001,-260.0692423427747,-249.75159756509015,-238.08978273781136,-235.56467343291638,-231.17651801141812,-222.63192192068544,-220.09606298818665,-215.0885010150501,-199.05666852413378,-185.03780715319246,-175.9797010251919,-160.38637537855857,-144.79971577928794,-138.67357194236126,-130.49117927239817,-116.27974391229118,-107.45940253556205,-99.82800093732087,-85.68975945757599,-75.50056528925678,-69.31224896835069,-53.90193856553126,-36.45362813660583,-27.68942509275119,-17.71396037534979,-4.554261689472323,1.3081655461923034,6.456416057001382,18.951562654957815,27.810599324986658,31.56748628034414,41.12823164796143,48.96222825580398,46.71918389183477,47.53893772093685,55.610700896836256,60.40167025625918,66.32239051251827,78.90592489291225,86.0655778856067,86.59549694886967,92.20160296645797,95.37914128554702,87.21425729851543,81.8923870842997,84.77003423308983,85.51843812749952,90.10040050998772,104.05217130159038,111.54184260893578,108.90922746372351,109.19414348639012,108.47843725694344,101.26407937668068,101.69410314156536,111.51435370678757,115.63177096626458,116.72103724182605,121.64138559216032,119.80891129122719,111.77579655086438,111.68891897872307,114.3460528023849,110.37069927932208,109.57333687687662,112.11864991858982,104.40574602822659,93.59680337399367,91.93012553864698,90.52682423016871,88.08325164917312,95.58448828454613,103.57385210566439,100.31948359122973,97.22514480366966,98.07832321314011,93.1855700697216,90.24644813141077,97.51847806105106,102.0538106968538,99.25154982965954,98.38356898715713,94.22213051081172,81.67651373400159,74.28250536212131,74.82428056960094,71.1972553026392,66.56896676197995,66.80008991430613,61.788909698937736,51.92531405812271,50.46242604923587,52.78555285275213,49.59834578442247,48.820847019859826,50.32708152615711,43.09868830000946,35.923139815580775,39.915930654396085,43.18945819647989,40.42704883676025,40.4798402152621,36.61185478802011,23.422922261354913,17.159349812736735,20.859793506361378,19.916379498526453,17.298418383215505,19.358266518414034,15.050492734649218,5.010490778247783,3.523392780795148,5.297108802391289,0.6442481812862868,-1.1741870808691255,0.08828969030825773,-7.030833329306256,-13.600505978365536,-8.815474814622172,-4.261229997312315,-4.609243863972123,-2.205260862391838,-4.896411397806596,-18.498644231419025,-27.283891802880877,-26.932647625126428,-29.513672531379065,-29.436960601500548,-19.157021272176195,-12.897137910831201,-15.209830434539937,-14.798813222135172,-16.284379056851463,-24.95206375760996,-26.994117575028294,-21.76273982390451,-24.95625079005709,-32.491061973331725,-33.26838135433769,-34.36898116269714,-37.01645411402498,-32.40020994906412,-29.309538204210575,-36.22188712401834,-39.49300561507119,-34.55144050000964,-32.550749691813664,-29.398863063604722,-19.84959432208299,-17.472139569252512,-24.16452595683382,-27.703905212051986,-33.903048134308065,-47.73846380027998,-52.59153322680014,-44.70370475105751,-37.57187406843953,-29.72815223390289,-19.91736036359005,-23.491569892623847,-39.28918470590998,-48.86792548697254,-52.77123888179848,-57.70236203791205,-54.719971011734586,-45.792539694189614,-44.801266884938386,-45.60488472251951,-39.497851228489935,-37.436769132888784,-40.436278310392694,-36.413325244680344,-31.51808530252341,-34.68248978443356,-36.22785913669306,-34.92370962014808,-40.37792017533828,-43.8129166238532,-36.694812844891636,-32.90365341678693,-37.51917319536546,-39.83232799059543,-43.23965673520612,-52.13749070396452,-53.508192360580544,-46.64549594078116,-45.10535725611648,-43.522194189427154,-34.15821072822128,-29.085866915471062,-30.193041749174157,-25.99301374382989,-22.370969705115584,-26.32391856599942,-27.154794112557177,-25.41967150697236,-31.836225181293017,-36.76262995965537,-31.464268121433733,-29.395400113388753,-34.07861221408657,-34.780498119909026,-35.97363174191004,-41.83679765091983,-39.947445417518864,-32.69787717933251,-35.01235398733002,-38.63622784876057,-32.87906234073024,-29.77888514196053,-32.063271735480114,-28.337826526003038,-24.405579248991497,-27.16716030702647,-25.6388623724033,-21.259598094725533,-27.19064717786373,-33.89793867978,-28.977286614314984,-23.436829436668482,-21.725773962758602,-15.484846319880402,-11.858378385429528,-16.01817263310323,-14.247452393789226,-7.149131573894225,-8.758067728045656,-11.612964762925749,-6.3431384052233595,-4.482989645686991,-7.107340825867676,-3.2039306660956512,-1.1554324134560017,-8.789459255721843,-12.167956737533945,-8.810166672137127,-11.28058278596516-13.394451629924863,-7.20561590662737,-5.732942769388624,-10.930453401768148,-9.027613633474292,-4.591161905450634,-6.15195043495873,-3.5422784304823844,4.025092787881311,4.815419793934407,5.387278565982829,13.135743573478063,15.266629544630497,10.064384921868815,10.282352383741383,11.395262884108165,7.113450156172656,8.210338390325388,13.039460526465238,8.833052846959887,3.9066896024153666,7.487877937641686,8.174006692380232,5.0582500891351145,10.165762542050846,16.42222280717784,14.019616642898727,13.009448498141959,15.857000802944786,13.660078206684034,14.937279635071357,27.70838181881625,36.45449604724486,33.52872832760317,29.60017105734377,23.94649991074444,14.83135582240796,16.21111647873229,26.930883463072046,29.694809103859313,26.431758266095404,24.45769538860135,16.034838487434897,5.480496278869952,7.579047934999434,14.927038670257993,15.979696398004563,17.778571423467845,19.09809530891857,10.41147844879519,4.12807867834643,12.986484976092925,24.37246427774192,30.547882144552624,36.64746778275134,34.190047502521026,19.05106983800068,9.781542542530918,12.928577954725409,16.340196797962154,21.350921676226676,31.49460641384181,34.13241710277267,28.37519396755541,27.29825828147567,26.877206207704447,20.685080311340183,19.497272108701182,23.206841557232845,20.081193558410643,16.96107157052263,21.418257702085914,21.907999695645312,17.019304418878384,17.834094448847736,18.403521477809434,12.39749991486558,12.071179123465026,17.589173081996172,15.758312354617185,12.87334923209575,17.33332929509881,17.802058253196453,13.280324487840716,15.744920487537179,18.404665831541035,13.434029362157535,13.209285445602129,18.12021168389417,14.712472668593925,10.131902909877684,12.986652624930741,11.087863337994337,4.288645331771817,5.107953018018852,5.0579940085708035,-4.708982991963095,-11.033277617013841,-11.51282251192302,-16.838464073416517,-18.484830707964466,-8.836781771427617,-2.5202210948122565,-3.155796790049441,-0.24684786852840057,0.4196971748799858,-5.236977684786807,-2.6970247995891885,8.081871730818914,12.406860638890032,13.328634225767232,15.833066718734019,10.748220533672331,2.775683882720971,5.694625702162718,11.53897305664649,10.747754648556771,12.331357242277187,15.580324350983053,10.525233016750045,6.530449003544948,10.964494078492859,10.48413953340355,3.7941476923826016,2.296787939335945,-1.0029120728573173,-12.94504484147879,-20.266359711041662,-20.048095158090554,-22.401680033970496,-20.132643393276055,-6.679638367062321,3.1046948817596394,4.578562661514009,7.854588517602132,7.205219218974506,-2.5690554658113234,-6.5338903270074375,-1.2896978138439472,1.3287854190569717,5.306115262122343,14.772943834501575,16.122709544223248,9.043331949151598,7.343055168380527,6.084927487115172,-1.846416279892877,-5.169223771247567,-4.043946998780758,-10.051018672092642,-14.088855080061169,-7.4093017102871155,-2.935629801565292,-2.9043150930987958,2.051358988899178,2.931649326179267,-6.063826766076815,-8.141167218706451,0.9259199044752946,9.07403998133198,22.758633650565553,50.89250093503319,81.91872153253897,115.39822292900386,163.17706739393836,212.3853864857073,244.4554334238842,262.52426067617813,264.42998458380254,241.5225534004516,209.08932262545062,185.14246923544806,164.6291956952918,144.91311033173776,129.03457679498524,103.36122426236187,60.78071977528715,19.138352908755685,-12.150318414905545,-39.05714996013762,-57.3469813179084,-67.49931874244626,-86.88706696004614,-115.62330396636516,-137.52941685400785,-155.76053101832872,-176.36745095454262,-187.39962875610863,-188.9286304394968,-194.18925820277602,-197.67047996675075,-193.1168511000118,-194.43601884765218,-203.27585027897453,-205.5660424744047,-205.4924182078408,-209.4007161670596,-204.81176647372803,-192.67631403168787,-188.9476575472999,-188.42352487632834,-181.47334133325947,-177.51099847483005,-174.9479766397113,-161.42173023563316,-147.3124467915979,-143.29528019449833,-136.37960095735923,-123.33453285917061,-115.53025104671856,-107.29788666332242,-92.25602375918788,-83.28111295599054,-81.32614925793855,-73.15281140081866,-64.26042716436254,-62.378862285056854,-55.85116447632714,-42.5927552113652,-33.409512436817124,-23.49832952273763,-8.719053073149565,-2.5340401328852495,-5.171846820865594,-2.306359593286949,2.618062079093627,2.9900504898642795,8.238730847231556,16.85385391277587,17.946090793555307,20.743955200795405,33.29725394106114,42.40094251693782,45.479512764033146,52.21429035618997,55.22023117779605,49.61875263634634,50.11238134529803,57.9045169826486,60.511856538491095,63.32128994178546,71.72418775070315,73.4973648441505,70.02856086971997,74.91174563263787,80.78609167706279,78.59871112775642,79.4994419942237,84.16757718107358,81.05819700037289,77.88152451172273,82.58811662602656,83.25410023563796,79.50341457833908,82.17466876705939,82.2913397717752,72.47884777105487,67.18613243920602,69.57773807806417,68.72177408036342,70.45867373792768,79.78142683291631,82.68489906376813,78.57341626313763,80.24896199694348,80.5620044745389,71.89193118281459,68.23544378828049,72.62013412001588,72.77768075005824,72.6982291740091,76.38310203699922,70.871665385541,59.07898744121655,57.052596726217466,58.18197906933554,52.30082591118246,48.25667431457521,46.39493588344542,38.65372535324421,35.75671784227517,45.12684957284665,51.56367758118289,50.813098657880225,53.30363405980185,53.15929600968465,44.95036428058141,42.10039444916643,44.91111443964501,39.81395016690443,33.05317645306205,34.19078163255121,34.493974232128096,33.9459201081108,41.57171776386126,46.39518204910998,38.470354504703046,31.486128609469954,30.216365390081386,24.611671076675567,20.88652274829132,25.45699605555922,25.553852291610358,20.044647543915765,20.752351840060218,20.382243360282935,10.430520119970225,3.251719210000266,1.8497738323980828,-3.6070847850144188,-5.823369305809052,1.4241600238255203,3.9007681537569545,-0.9048975877559724,-0.7357132729814841,-0.6194671543852622,-7.807218597391094,-11.8211044037667,-12.12362900753557,-18.00811717543853,-19.17224992597425,-7.888273660388954,-0.9750662035740021,-4.769972031728683,-7.665523992635899,-11.591221580050776,-19.392735552465577,-18.5711621624204,-11.856874092471857,-15.222993899221848,-21.968521992707963,-20.574792244064263,-20.180108023965253,-22.92904744299629,-19.64002382730884,-18.443629332058443,-26.208775371645565,-28.318202119387472,-22.011182255667208,-20.959852395989834,-21.97956954540423,-18.921711185401314,-21.902107268763608,-28.34734275082183,-24.441945930102293,-18.687193526491278,-22.27435255442705,-25.71666123704948,-28.078102551924232,-38.21207583349542,-45.562568414025016,-41.59192098775684,-39.69879433241906,-42.56427416611119,-40.4101543795626,-40.64240413750739,-48.18451588645794,-48.41839696024569,-41.0159356287838,-39.694124118997145,-38.33252541572414,-29.296880703019205,-24.39652663487884,-23.937340528288058,-16.518149981630415,-11.863962182803096,-19.293230396807555,-23.974606745288476,-21.184435469954284,-21.672519958669405,-19.928947851811188,-12.058761619597703,-13.592951630710045,-23.98011927106844,-26.670634968892173,-26.11547139232828,-30.741027443458385,-30.93255774217876,-27.19464377249529,-29.73685277882045,-29.312541453830377,-18.472988265667347,-11.56386037435735,-11.663591225154114,-7.614561755207063,-5.299431020425467,-10.467577402669974,-10.572095399664601,-5.7768677554282295,-8.09047035287899,-10.222065447816725,-5.2340558826659205,-5.185778063463935,-10.408281766755405,-9.559020340327663,-8.827061673736837,-13.497345535447465,-11.313303248922693,-3.6189929256620266,-4.804018901576149-9.697166483950275,-10.351833215218667,-15.795245053248035,-22.744424262044742,-17.280791947521728,-8.44090962153698,-8.171167750952097,-7.4267759587241535,-5.503934718992739,-11.88764963531392,-15.960833412306382,-8.142734891571163,-2.4241611146255018,-3.286875785223693,-0.944095081507167,-2.3203678518230526,-13.935069282014101,-22.376346950158272,-24.66888384674918,-30.21793212789823,-31.463733763824465,-21.604947264132303,-13.716986059870003,-11.596471528297117,-6.966021980706644,-6.7520750765066975,-15.529603576234345,-18.93006364793831,-15.48544471399058,-16.829049709723083,-16.533126454575356,-8.40933026763953,-3.5022366806819405,-0.37492652958348704,10.396884959757763,16.67320651477533,9.530174507798257,3.603982250967465,3.0133568964765525,-0.9564459121322009,-0.04924854653867006,9.570240965384622,10.605129365875346,2.6315963541293,1.2097719127848092,0.8790039839673829,-5.227077637898467,-4.377059846031665,2.4277374822186157,0.6596559679014091,-2.8327123465898616,0.8164328099614311,-0.3008616718366188,-6.703323762149329,-4.9287578802833485,-1.8392689189970866,-6.779634196819507,-7.888717447487362,-3.304756747462199,-5.22839187785877,-7.474441985024951,-1.9303189327201853,0.08007099860619954,-2.458279349688139,2.1521537681136964,6.952894714476487,3.1997606501436433,1.4253740956848573,2.649392473069659,-3.192441426672822,-7.356408287900807,-1.2377032695837897,3.439098805734585,4.426590159578868,9.864279240952216,10.25592918028411,-0.3429854607548055,-6.280801163873748,-4.064813322346019,-4.910932109674628,-3.5489557365477937,5.6913817316351185,10.64952881756322,11.33460772320605,19.667748155177406,26.955498869974665,22.79587045210406,18.0700000945984,15.849283492305231,7.94220374180802,2.9744856996280884,8.257196908239699,11.058948515012672,8.94081924544233,11.754600206375684,11.939356399297143,2.4280227460092854,-3.190284374457944,-0.6076899449386091,1.3440914038509764,8.106502077630001,21.80211834830364,25.728457815936117,18.513917825893945,14.565252057997673,10.24454634091435,1.3061848812916463,1.6832435147184381,11.362655047164198,16.5842213795826,21.441055428252497,29.06630983007619,25.249925152383923,11.90384805421509,5.608682174211714,3.4815005501633385,0.4056654976689318,7.5375754768455945,21.53645813169498,25.97926672941299,25.161206003269772,26.93345546729235,22.045794307607594,12.651052127440009,11.352418166819069,10.136734301315332,1.2296867690434659,-1.8274319058038624,3.2705181641966856,4.804571527146197,8.038351922483189,17.630213625957705,19.484831928419847,13.042382575170713,11.85549066485892,10.820521191747185,3.8490163158398043,3.0168346063623543,8.051263231430445,7.035436456950185,7.415314647376368,16.186098925885645,19.931260048500558,16.175852464563288,15.537669855761663,11.833306331934718,0.10739181130394826,-5.453454713354051,-3.25513884301629,-4.569053197572036,-1.880725656165599,11.896887425843772,23.66325872513342,32.0282185375664,48.11223167621857,65.28897135564785,79.44300943527965,106.05400462066399,146.06083714888265,184.62645368456998,221.0895120597732,253.0026857260006,262.89237340130273,250.58732501763672,232.6348868257543,208.00410081909635,172.70299289944143,141.36018190906094,117.92102029994214,91.34831599500913,66.32545984862149,47.404911072301914,20.919945958296452,-12.705076956163623,-38.2334126707896,-60.00805419167831,-86.56766135569657,-109.2043508426252,-127.8909261566265,-152.24768687711676,-174.01861335630196,-185.21996618863162,-195.7933447128322,-204.48811378364678,-201.01534906407284,-196.67427436836311,-203.2148462530165,-210.29377351599535,-213.89617249950192,-219.67615810101256,-217.8595331578474,-203.82445351292267,-194.6142453696271,-193.40835517198474,-187.0241320354632,-180.3262653111126,-180.4036822253348,-175.79989344936678,-166.16068492500557,-163.03765104305316,-158.49469856224312,-144.0818217825725,-131.74256882569864,-123.36857575783961,-109.13381830411745,-97.41900980282554,-95.92369291862632,-91.33196760701216,-79.8596024047467,-71.47568371085968,-61.06453099358151,-44.564385123164406,-36.033562685615834,-35.168501744901825,-27.14341665436602,-17.371861453723923,-14.36119147382245,-8.59467145641472,-0.7874283500969179,-0.3362588370247155,3.376578518018081,17.94584665176606,28.445611684841808,31.432980701017577,38.00808112016219,42.81746489625937,41.170153976064285,46.60943653684556,58.65927035542598,63.72632283134536,67.95134145878059,77.49478847962173,79.29273065105373,73.45881765838897,73.44685475864563,74.25454325018552,70.61005624897393,74.02581293191412,81.0414224836585,77.27838187849852,71.57365377698424,74.49891963549439,76.42566941454156,76.85973652016244,83.71846952527454,85.70765843530452,76.07671941687906,71.05946641872961,74.10953433051398,73.61497567959438,75.13640709317625,83.31548408913012,83.80722825549911,76.74415546353899,76.84780776368964,79.55008153096631,78.39754672675598,83.33813848762968,90.2240859708285,84.86077902443569,76.60765953848988,76.39683283651591,74.11547769782243,68.98969633630277,70.886179004991,71.4399694405776,63.590382980777264,59.204495168657076,58.06757622429199,49.227836397666366,42.60152470870486,49.28944906967586,58.66812581694995,65.72849462869635,75.00502911195188,75.3762907583578,60.086555519000925,46.20199475288965,41.90528440339631,39.57808347731866,43.34159976572201,54.87936386745426,58.34528680753055,51.13349381322474,45.11129484896654,36.073917292754984,20.486850186077362,13.23319250460133,16.224302039185,17.11075813155096,19.611701642462766,26.65875598485796,24.763781269179564,16.199947816132795,16.628593748427253,20.43922929200322,19.348816384916436,22.991467063765725,28.619920568374397,23.377795196562015,16.77745197774661,18.838255315302863,18.70156007815126,15.579658531333308,18.678194362729574,17.94943514297187,5.8871940796528035,-2.932915143459184,-4.613341340644114,-9.41207944473551,-12.167379786362023,-8.275432189134817,-10.447634682528982,-18.085383797716112,-17.47757005870247,-14.133344222557993,-15.926578024032313,-13.389787595919877,-7.8159195649886515,-10.50469885163965,-13.829130668733837,-10.839827798109056,-13.236536463004342,-20.810090375915543,-22.016940536849777,-23.90476689412906,-32.2294663564485,-33.37896232967401,-26.543820405055627,-24.728551477933337,-24.36805303469978,-21.450050849939245,-26.90125389287843,-36.67351950902097,-35.28790928019863,-30.0316447967451,-32.35071931555772,-33.70798017890932,-32.80153176911452,-38.11528980771887,-40.08007560220601,-31.18701909167623,-24.829294202204512,-23.209802715227735,-17.008406821490215,-16.002824566470302,-27.776925642310797,-36.8615780714489,-38.17133252056339,-41.520879991263534,-41.6062021634784,-34.842682022232225,-35.29253488680089,-41.756464985527835,-40.25780952655491,-37.81733821732025,-42.55510205604189,-43.29990715509564,-39.6439313375019,-42.06783168646501,-42.66823035099719,-34.22487065219208,-29.189025797434418,-30.31385137133585,-28.43218161195581,-29.538834081868615,-37.260160224509775,-37.074385938029636,-28.452813144889298,-26.141828738618926,-27.473453312437613,-25.918262079863077,-29.58657759172231,-34.89863424761345,-29.498522591159986,-22.54554081250567,-22.6491520712919,-18.523450209231896,-11.273958883275606,-12.784795547045448,-15.413681204230748,-13.130396598168403,-17.90062320673471,-27.064228222855057,-26.58384010400153,-23.87801124230653,-27.424750890025976,-26.287539399115275,-20.54002587419815,-21.81636994421734,-22.72266699595465,-15.91837125828826,-14.225562089920638,-18.600401396766078,-15.363919504655362,-9.57803128868179,-10.243893051138732,-8.78378224044778,-5.827888041805155,-11.107056509310633-13.975943484584976,-5.687970015148109,-0.811851055478863,-3.70986819146359,-4.258023227239588,-7.702795094701503,-18.53316451624961,-23.709089454139075,-22.91867220925512,-27.562215539919677,-28.832570504382932,-18.043748002863033,-9.374560613839135,-7.687077942902089,-3.054713454218117,-0.9698698517402324,-6.70036048807382,-7.333250568328933,-2.3317248390006586,-3.475656485152001,-3.0795589526648346,6.493239843473793,12.02053654331848,10.709800995438266,12.737891989081568,11.734246618732158,2.27610650290829,-2.6231897474055814,-2.106995847509851,-7.156644929823379,-9.717647872280772,-2.396114896746392,1.472148334907175,-0.6081722271067429,1.267833324326764,-0.23468534427426047,-9.615932610688922,-10.759326850450918,-1.8879114767289913,2.2420482386034326,3.9398001397347646,7.593586365952043,2.7646120406153756,-5.456158738328245,-1.2093267390761768,6.462819976931751,5.24084260114026,4.608669354645353,6.256848741593087,1.2735887794001124,-0.8749681795720367,7.652340026555852,12.208657987331021,8.943023099443222,9.541622455553796,8.408569326795932,-0.3140696006395207,-1.5502908786679561,6.424128252776182,8.390989001148569,8.159083746523834,12.807206409190083,11.042853252309161,3.7570515441112153,4.5594981006458255,6.673188758179734,1.6230713814116808,1.226819471923421,7.132434487667593,8.163775114504226,10.776346676398976,20.944664106283007,24.94026772607488,21.141682685811638,21.895776519718062,22.191332733602994,15.788262107046808,13.219235731228968,13.043619063643668,3.891788903592195,-3.961567002601814,0.5527663925285671,6.369864173775529,9.967909446546166,18.793862440251836,23.386675106568344,16.624398828142063,13.122875392009988,16.250552404230422,14.594855617438267,14.241301758520208,21.731600919994154,24.392031545407242,21.756446281533506,25.97870358968814,29.89105343523233,25.463313246509788,23.73848505255667,25.281787949074843,19.733697882940604,15.025650206575028,17.630536182469033,14.03165448064146,3.0440735988624597,-2.291651474480482,-5.475680155849384,-10.372952495205604,-5.366660576611323,6.023728710496064,8.724931355153275,9.645901070472805,17.891362143773563,22.59652630549715,21.724423160356736,24.196621205966192,22.673216970189465,12.831946421099941,10.015051396161276,15.983987500282188,16.897943195286313,16.20382070709525,20.41257812007154,18.800905579550587,11.178445794562283,9.418364119497717,6.774777350076276,-4.066629271736209,-11.001436546610238,-12.573414790661879,-17.909537124322696,-17.59410718828277,-5.067727465458642,3.846734646243841,3.979143768385991,5.174550303168211,3.1335763977494584,-4.891791740492236,-5.317120417858543,0.10160825065950929,-2.8190459053516674,-6.066914319497992,1.283906780528183,7.959519457286165,9.052139701732496,12.21469070602498,11.049547132008282,2.8289663300064225,3.891321036316739,14.286651958106244,18.809717852580995,22.96646728731216,36.69016095522088,55.69434878407953,85.87564938033923,135.86704888066353,188.0685097860685,222.94055291681883,243.75770428985527,249.8125357547065,234.83518384679644,214.40093652897815,201.12995334791563,181.5393140185675,151.86542862096945,123.02708356340602,88.81864015934268,45.57381413056609,10.574394519952026,-14.507544005702835,-44.600770437461634,-75.26937562691604,-98.8082557000885,-124.38547415035006,-149.92906293896436,-163.96746346522923,-176.73639597841083,-198.37240095339519,-215.4395170892322,-222.8306358868198,-229.5454461273505,-229.90047695629528,-219.88122910907845,-213.92971271548663,-213.27624234427597,-205.7375288440006,-197.90522701007396,-197.41150120285442,-192.58821887697087,-180.9924720766485,-171.29204083388876,-156.77753481927385,-133.7797865980516,-117.55428292355651,-110.51504054909333,-101.07578957689071,-94.3446823461023,-95.4325720301098,-90.94561131702373,-79.74643897415778,-74.14883170616348,-67.73972696630005,-53.74293930448957,-45.63733111135266,-44.031405877016375,-35.50527133394496,-26.693293729164253,-25.11148350663337,-18.667561271255238,-7.209794997308903,-2.926763395656499,0.5417876652286576,10.375816472943479,15.26594860050306,14.404775998261984,19.516050011748078,24.72832381043435,23.03769830628126,26.606326988683286,36.655136725455094,40.87200651954387,45.15038303318329,56.416027220403,62.292568030066604,61.640397953284584,66.0321590073821,69.56592125044466,66.98345871810089,70.726210523037,79.5676450961978,79.86496720541537,77.69670901680146,81.05190470791995,80.16766094168442,75.99687781812524,79.36321405718631,80.97491954741865,72.83737864152131,68.85848604231604,71.09909890025833,67.51793486264162,65.14103672068492,71.7171067884539,74.29022396168772,70.6141966561232,71.24907141115204,68.45906709523427,56.57175143219883,51.79817269651434,56.24583443900551,55.180075773736185,53.0511288165395,57.97866078935863,60.28882379142637,60.60922843803677,68.50944536699305,72.29662000637809,62.36997609769259,53.25473388954974,49.4257776876761,40.7641905942281,34.336040454018274,38.62233538084422,43.25757283142639,46.5223963277653,55.71476782929693,58.52718992266322,45.533016833246904,32.59780828977376,26.794030739530463,20.70419784796734,21.641586436738482,33.04969852523514,38.18395632630907,34.878493004831505,35.76612262381479,34.94506687932149,26.1807032910698,21.796013543820983,21.449782798307716,13.418231397272947,6.299216223164613,8.691791226133994,8.49688770977382,3.6573804845450355,4.429526404925873,4.173884264698932,-2.786625681882414,-3.4989647992608184,2.477342894525391,2.7056616157767035,2.8981732180813338,9.139093639040802,9.058109405284444,1.9544239367301453,0.18317735938249968,-1.0186718114060926,-7.3771651430350556,-7.79340316047778,-3.4292564819217044,-6.612865227650552,-9.468169387295784,-3.1800536708385927,0.7941562827796629,0.38456812218062875,4.473453277444747,4.281140893940879,-5.849904913766119,-10.451517258628801,-7.467654085228759,-9.148594855598729,-9.459246337634962,-3.1626257768094925,-4.35229356820139,-12.495405179868921,-12.83719691716436,-11.322648029718069,-15.813990339573165,-15.056625646728188,-9.623116910960285,-12.314444735466578,-16.395353315599472,-14.020773265097858,-16.905179933514084,-25.04188443740792,-24.432379238261667,-21.30690547131131,-25.451813903564467,-26.406836892037678,-22.520893583053788,-23.837563054579327,-22.703738406214956,-13.583327380189848,-11.844655005947029,-19.458750292313713,-21.91028996597174,-21.84235829030328,-25.199883583311674,-22.716711523463736,-17.621490681791553,-22.39812442506181,-27.584415324401824,-23.698578475674328,-22.345071725197613,-25.212964238864387,-22.242107670188354,-20.524124091476054,-25.51386465185473,-23.692226585953513,-15.375806147981956,-15.051633942792419,-18.037971305692672,-17.51211505041163,-24.39612120866322,