-14.92235207176315,-14.493632198258952,-14.61093586956901,-21.42890180958025,-18.616731352702867,-8.83165675920212,-11.408941965544383,-19.23826198468539,-20.75509385259536,-24.56571451241922,-25.517802034345394,-12.341882244767273,-2.809158847464971,-9.788944633180192,-18.759849331195166,-27.225758880744948,-39.2804608686903,-36.646692159702134,-14.473062308804913,2.6493597496224406,6.0847207724843795,3.4500993275083425,-10.108141693442148,-27.6226326855831,-25.432031690617592,-8.7285852588486,-0.28559955352465594,2.717167708784523,4.669054228110103,-5.914646495359491,-19.37502919045265,-17.30907506997766,-11.57454470950986,-12.953964722586312,-10.14531496092497,-7.187714497831074,-15.250211345994215,-19.21316863604324,-10.068839217871588,-4.964004338598349,-6.06154966656204,-3.3704340993116713,-8.443932851792033,-24.62154187514341,-29.6431200012843,-21.457219403335223,-16.60004611325612,-11.135930630232966,-2.7943642533856288,-5.965007207438527,-12.891801723308115,-5.271881498879155,4.362073888361425,2.395629250824912,-0.583291065919596,-4.607763465210211,-16.66703916645976,-21.279238886289377,-11.918465570227582,-8.996002625550636,-15.465363608777233,-16.87644248432722,-19.051794592934375,-24.36798731136293,-16.12846242334679,-1.8333497850059501,-2.9131975294201062,-10.058183566334723,-12.131234454586313,-19.03147728303364,-24.66369354285841,-16.4494419326206,-9.38293056715607,-11.84052024226404,-7.410597699443324,1.0767648698328318,-2.4143945453698223,-8.298073120509063,-8.343599218707237,-13.133280192338193,-14.925610959978082,-1.3703423388713638,8.613832869562781,1.835979474832532,-6.188823384301651,-11.395728533656627,-20.220280406758313,-20.887283391744084,-10.682136764698743,-8.294996151058674,-11.516695697777138,-4.900662655447391,0.8799076404118538,-3.4042358780678996,-4.501619956452464,-3.4086590703904047,-9.610408373421638,-9.385884553185724,3.1807595962063298,8.550381410713895,4.909042831262551,5.014959374160755,-0.6543302570582714,-15.848717887622362,-20.93902258895375,-17.059804761199445,-20.128599718293405,-20.856194567067597,-12.413498314334957,-10.150424866364176,-12.310392575589287,-6.297989724935828,-3.8268748818868037,-10.547172490226934,-8.182187780291436,0.6567266439359472,-2.486591786113863,-9.297189835363552,-8.67142841164885,-9.785621941128802,-9.276863145117403,2.1247085605188456,7.272083246240658,-3.955229076922971,-11.61558670596513,-10.267164525689436,-12.832385574146114,-13.324490169264166,-6.178898435966108,-3.6495055866199513,-1.2728986004073926,12.974833036542579,22.34066668471974,13.151513869659226,0.8539477363889771,-7.423791437994728,-14.901331349026488,-8.673217345832224,10.589182706213396,17.418412347721045,9.230074346419492,2.648645045915378,-5.290646267086362,-15.779630303295967,-13.802613395855687,-4.449715119290164,-3.2847591113944645,-0.12601756158775568,11.404972336438044,13.779206129195192,6.579686143391648,3.919748498191384,-1.6887824867409527,-14.327656439164592,-17.00429962297707,-11.127194045808215,-11.078997355042706,-6.85002324271564,8.076609254357525,15.126405789855358,11.869451655981894,11.908826638526019,8.020236871427873,-3.3336976387107,-3.6780748478469074,4.860101431736071,4.2574818153698075,2.738313070942624,8.609249737222397,7.138013352743492,0.1365565598355114,2.894555330403946,6.6446572171356095,4.115999434731567,8.455936833612212,14.26244869539749,5.440883850615016,-5.249662590056417,-4.762673488609918,-3.3936997115589422,-0.813386196502324,8.983076230873564,11.24589256190545,2.90113885165613,4.496669672272989,14.83726252538852,17.064993259368677,16.974591009876335,19.084201246011116,12.392555107292647,6.283945719145045,14.484035054826425,19.52130937083615,11.15344083433483,6.3723234990724,5.796319980196325,-0.7170842591058366,-0.84161630478829,10.290769803555662,13.97900161370104,8.746873421094623,6.8327827919648225,0.6592110981260295,-12.14910502869809,-13.174745121534713,-2.87833308855005,2.7264358337778276,7.938904701450149,16.141743055606202,14.02581644627984,5.985704323585706,6.333556735683155,6.27922350979754,0.22465184382549896,1.6638508324253087,7.4374374177284475,4.843199032330196,3.7131734272297994,9.280291713530444,6.797585749822003,0.06265580406396687,3.506740699144924,5.860564759421603,-1.651222705141496,-5.783819200271645,-7.634624858744287,-14.954833818994059,-11.469040120843134,7.9930899680002385,20.273076435304652,20.547969635640413,20.339772967775907,12.032339270481913,-4.545780694034918,-8.550314701094035,-2.2704450296887257,-3.8123031927536504,-5.734356846765038,-0.6361848046458087,-1.9656173803900745,-6.177547903135481,1.0577196203259933,6.321544799774783,-2.0098959591998207,-7.3538228751949575,-5.524765917229944,-7.311754100348644,-3.623960034189849,8.302551871102988,8.729875053280722,-0.11135132621189214,-0.0030838844169749358,2.180967412712439,-1.0133446354172002,2.2543394604218436,7.39521505261042,0.23177349768665811,-8.208936015607696,-9.12970821267226,-14.164204307119196,-18.813051264449186,-10.200045084683339,-1.1353227257836052,-0.9927875122686598,2.716706671251962,6.917773517971309,0.6816622765611644,-2.440653105791009,4.234468112648457,4.875966003684951,1.739620556692692,7.258402341561039,9.831050461568672,3.1039101093898416,2.081847928351072,3.052007150298042,-8.113057877081669,-18.355140231541927,-16.43681952706739,-15.02504333353125,-13.09856422633144,-0.013699862055507772,9.904960018111872,6.5684767295432795,4.503786409687631,3.5344035768414566,-5.739506650348588,-9.175467019873846,-0.5732034520545879,2.340439832567027,-0.43575959273571385,3.0739597325870385,3.3119333902217782,-4.65799365970693,-6.035480658322621,-2.9767292384948103,-6.536002789224076,-3.9179598588545006,9.499250424076779,12.345060188809672,3.454101667393905,0.5180700385497502,0.6420303857554013,0.24572306494605523,8.49854960453951,13.952010288330024,1.585713000595855,-10.546554471902223,-6.738434273960996,0.7405155432555566,6.841505286568184,14.723026966848114,13.233410245575449,3.683686547204722,5.39029847237417,13.034768024992061,9.074575512123953,2.945524935412881,3.719327145522079,0.9932048211299307,-1.7787815935009967,4.4286300637766605,6.155928443130033,-1.173167572082963,-0.33784382548798897,5.297017515223284,-0.23078455109488072,-7.195001779691034,-6.287392992296458,-7.907156666001595,-8.438809573478263,1.488075669593245,6.978576983013135,0.9652856836598107,0.3234631903474401,3.909778839067783,-1.081425646397547,-4.005281994756321,0.44509853124688226,-2.6027209618021416,-8.36472515822477,-2.856336626365726,2.668725848837053,2.0190182325718413,8.404908937308875,14.251084639506338,3.097223625540866,-10.544414027510747,-12.091179267701488,-11.599103691286079,-7.933270693334526,5.42798874750882,10.069087256899573,-1.4011442734558743,-7.692358806230599,-5.4705030993471135,-6.936114830758753,-4.171495558310169,6.122263471712035,8.252704150276315,4.889903309158248,8.114688346208855,6.782331933446514,-3.1186387299253804,-4.114705505572159,1.083204018468471,-1.740570497770444,-3.2703202666109608,0.664919475894425,-3.5715867251690985,-9.16799156225593,-3.5628064778145756,-1.6462470643685494,-10.197123811499877,-11.980580438600118,-8.50800650551365,-12.441012620324475,-12.827179724496157,-4.4737662656227135,-2.8820575134981277,-4.418153068238598,3.1448927520728915,6.139020611888386,-2.8503941573706046,-8.214230605376601,-10.24853959993719,-16.819357179853966,-13.734518663937425,2.0394185939033793,8.837268291128778,4.249488837595162,0.43418512102675266,-8.417107050674428,-19.97625248816604,-15.461043449647558,-2.2594628371106666,0.44764867364467287,1.7998044745812096,8.728528308799026,7.5455886325213481.64546411193931,2.812070932493142,-0.12109788968017576,-10.949679261973673,-12.302711815417828,-5.473138832240185,-2.839996749365754,3.8808094826600286,15.305866590870002,13.544951794757239,2.964093199571648,0.17534186594786905,-0.9051410304354468,-4.204534985379345,1.055776061153158,5.866958966777595,-4.565685468122806,-14.74677900022368,-11.582751112526257,-7.288482863441082,-1.9961146925526418,10.301189410125378,11.219992863607288,-5.4390863136139,-15.226948157853686,-10.861943655225598,-3.6780289115569484,9.040773923908121,21.461731552956287,13.907741436663752,-3.9642306183059777,-9.415422649846752,-8.645381717653919,-9.356812024251816,-3.4142859303484117,1.787621132197695,-2.9206345610030024,-2.4992982748285346,6.038038601706797,3.6393282448066024,-7.227031382820903,-12.290418355961283,-17.846828101946006,-23.590443303501186,-14.587530549275158,-0.5322889938752073,-0.23126107761290693,-3.57167111723411,-0.10043340146121382,2.738161140161171,9.952559297995894,26.507992742624545,32.48118498225677,20.70099696863513,11.576274278339046,9.220542338791144,3.899935385861545,3.2723265839281708,8.475178553079209,5.226342515466845,-0.015310436392968585,5.070120581231286,6.518583229899392,-2.2220990158222054,-4.756171262492755,-2.2040735912249048,-5.175187484089129,-2.411728694730642,8.871785626077363,11.501569514809091,7.912432223056074,9.447650951450283,6.610888480179889,-0.6903599640619582,4.7841649679973255,16.333709192932908,16.566351922859152,12.959526429611897,10.191518172272383,-2.648133221228419,-16.1918601193658,-14.580043184642204,-9.608445237678096,-9.542023020175549,-3.3458643638286136,1.0487837130192936,-9.783218720861884,-19.071912051777044,-15.22805760960959,-11.799495277028944,-8.254245633983484,3.723285179003754,10.107938110636836,4.524528296575359,2.5973560244059457,3.1245960114494613,-3.999710092341097,-5.505584596815579,4.973921358345294,9.978995916150826,7.609423768953549,8.010328033011287,2.3603572670138844,-11.547823575001726,-16.405408192897823,-14.043388872041529,-16.289306125361346,-11.95100151499172,1.3810427798489116,3.717112445796257,-3.3667614956760326,-3.979473310844636,-3.931962092484254,-6.431598108935401,0.5678812252779881,9.563151188623783,7.740973921155067,9.33914177159513,20.813675575967245,25.002274758407903,23.865528340176116,33.73060798247526,49.346150126584995,63.569554389448925,84.48390130385982,107.86230295569773,126.40315714206487,156.98775448211617,204.09889803678027,240.219537438146,253.6044297023672,252.69830261993172,234.31779833711556,204.3718265853945,184.1606106958167,171.68861433051453,155.99725968829796,148.16208911862822,146.176134467439,126.00144489985983,91.72416735536952,63.60814729356802,35.19486754160023,2.438903733739977,-22.897873246623327,-50.40729133137968,-89.57983713709795,-116.42485597389602,-119.20686985309649,-121.44624069238114,-133.10207518713455,-147.75196308070943,-173.72574839802667,-206.8861500782643,-223.18905461700433,-226.20910190216253,-235.92570124196718,-246.8376177405404,-252.55014015604382,-260.6233524698096,-260.99462730722723,-244.40304985011954,-230.58343578749705,-228.39460352951602,-224.12155332362605,-220.71748353143835,-223.41339008758726,-216.2277951256716,-199.2370727735247,-191.84751684759064,-187.74157885074882,-172.1859613567437,-156.9823518444693,-147.41351788755787,-132.20521744618685,-121.60926781708528,-126.44053986101014,-126.0226880856709,-111.6283307144084,-102.84182677331368,-99.61408026829162,-87.4937781659938,-73.10600175441569,-59.4609299527993,-35.83521225458027,-15.645813668877608,-17.960540195454403,-26.03763683304778,-22.775208000150656,-17.11947049398198,-7.148347519882916,14.27585640258517,29.589910019448116,29.596012637870565,29.07036136869234,28.64126645267931,23.401702923699226,29.434769160870715,49.87648502262418,63.40802817130711,68.29191094822505,76.45013512246693,79.32062057819932,73.52476813293094,73.48590580312046,75.1334239534141,68.94726922701507,70.60692479103695,85.28375016049182,93.52046230761479,95.01035359890307,100.72503484810832,99.91864603516136,90.71841739703886,91.78395159619319,99.75790107538543,100.29292751306815,102.60307136943203,109.34789982917084,105.33673801156641,98.1896148946657,103.61559622196414,108.33122273284744,104.16436335381576,105.71602814432606,108.62757596337596,100.13904233858295,94.31650633789403,98.91066203093428,99.44244588110955,98.51634630201423,105.25370673130278,104.91174712117996,93.32272477958342,89.81980804819985,92.4102988229653,86.35542399828933,81.00982835103068,82.91940764576267,81.72791572216296,83.63828673150587,96.86656746796055,102.67190680258844,90.93286800233042,77.72982806208778,67.1138718272393,54.4379183644182,53.55701246510217,67.40330339300903,75.03540461418287,73.8424586756736,74.60597920702176,69.4287314156598,58.148767428156944,57.384114164958795,61.51158152841805,56.09108424581848,50.309895001750455,48.77839845406352,40.58665904424786,32.3777559449704,34.66923375259251,34.584788206311345,27.75018038281332,28.27974577771584,30.47814164214767,22.743730945283804,18.455456572915875,22.596976784833235,20.327073659316994,17.08868034721309,23.735573774591707,24.08041223759609,13.322350128045606,11.673121269868727,16.616140901104036,13.03451114948398,11.739147210264548,18.10314744220384,15.89510659164323,8.89611577941083,9.68708632180723,3.7478066604959794,-15.441258538814843,-27.01529057708358,-27.379778578329358,-29.062754496429843,-26.732383863527485,-20.60568117871244,-27.18762448241011,-40.20184764247608,-41.862696133954074,-39.243987891925244,-38.910978853114024,-31.613571674122902,-24.60102891833332,-30.148668163965105,-35.01908283711734,-30.707041115916642,-29.107633996890677,-27.959851667992886,-20.625726961825936,-22.203414063590742,-35.767479566807935,-42.133390722533875,-42.19584402176667,-47.02407096103249,-46.38778826199913,-38.20941789306957,-37.82402283569131,-39.67199580453718,-32.81434703361924,-32.30992400317419,-42.61101841761027,-44.50442232251171,-39.45310083559914,-39.248300502411,-33.88846014759956,-23.717752717578286,-26.339698183969638,-34.32435969793667,-32.70310781917223,-32.98567449044803,-39.83059587200689,-39.02166915827136,-35.90270747581721,-42.60906915894139,-46.74238714324798,-42.637722539688575,-43.44042851301893,-43.97752289467659,-34.83692208660903,-31.083068089366055,-37.16542348321276,-36.90226912843367,-34.034022828072224,-41.12037693652737,-48.84885055514253,-51.351751718473146,-56.054190274258076,-54.42803222796522,-38.80994502212497,-28.411167529263444,-32.27817526765078,-34.55444018509235,-34.68236014057147,-40.896417085462474,-41.63877796162401,-33.7205128286474,-30.848487752276828,-27.371436674986118,-14.579754480991543,-9.276371934440217,-16.48034844763256,-18.7218578413054,-18.89625479090361,-27.179149230224688,-29.724494735125354,-21.91388353229044,-18.45520335084437,-16.253477839320343,-9.473825905777678,-14.412357834814191,-31.255177063905663,-37.24498802256552,-33.625709333823494,-34.09010241024101,-30.658067553512385,-22.098307094403047,-22.66797281535126,-24.94413843203871,-16.52794737588905,-11.924596944684406,-17.583896465340565,-17.381877562297433,-12.705860430366148,-14.006797100176126,-10.630936147840352,-0.24924976899437912,0.9460607830384624,-2.3724020264086456,2.994069844981596,6.083910022986737,1.6507246807791334,2.5453363475036874,4.001431257820173,-3.9063703263689633,-8.891714952041013,-7.8508172554486535,-14.523073433430884,-21.055766514433472,-12.928092617270003,-1.9219097264435545,3.179642214371478,10.019687678232213,10.13335100982935,-4.801383217718755,-14.624085963851146,-9.209608172773624,-3.03264743726087944.570717915017339,18.95575977628843,23.600627903356155,13.818052038937537,6.303757248275679,0.019091871549306028,-11.880866842418225,-14.699348002482948,-6.1017627563349945,-4.5370919314385505,-6.90433710468537,-1.0637173686667785,2.28203023381142,-0.7722635515014538,1.476404375180329,0.8814603980181526,-12.124789615855015,-18.737610395818145,-9.313199594748582,1.6441603258642856,12.969982103180612,27.20684506205148,26.71411231339699,9.668251307296025,-0.3769423306340529,-0.3234510111623248,-1.2424754820748571,3.5238147769702666,11.763268323182903,7.001155248717625,0.06033232052317006,9.936296866458546,23.618971403650992,28.856234617820625,33.848185172948746,32.904251167408304,18.661504593920355,9.780920260685367,13.27344356344831,12.162045488994384,9.043342888936028,14.990115118850786,18.561989241871135,18.21257936422541,31.091510382858253,52.56379927303514,69.2893246590746,90.41559523384748,118.66256171405249,140.57311853605577,161.20027945831697,189.16049108769226,208.7692098996788,214.9253704805339,224.09879258429206,231.6119507052964,219.92188607826841,193.26167500005118,157.89847167984584,114.80157812410327,85.77803147354203,84.43016560069819,81.94370234789972,53.133332853244426,8.108754935160746,-40.7039557187099,-84.05537698575192,-104.67651884773845,-108.83039732544036,-125.39349556682528,-154.47356073215798,-175.28867947386274,-187.09573113731204,-191.88721622376335,-183.26243810480094,-174.4635972114526,-180.99801068377315,-189.37866081870314,-188.56297999609816,-187.55719870292003,-184.18610929692005,-173.57758304850017,-170.33509417364255,-175.98712129205927,-170.4484790754674,-154.85253523085458,-143.8321448983322,-131.1423833925383,-114.65329783609468,-108.57499172097782,-107.00905741527126,-96.69569095704334,-89.28527229814895,-88.37728272987651,-77.72828906165176,-63.91464405834816,-62.52956129801985,-61.477812664218256,-52.780113012492116,-47.72727586970288,-40.01332957136132,-20.43925601394836,-7.038581865936148,-6.597338871341838,-2.8436356256341666,-0.08316393513334364,-7.1434155959554655,-5.58529181663906,10.86424886705308,23.8100747375895,32.133181506238856,41.1358969158114,37.82375435738449,26.25488811490584,29.84805257293121,44.10901454251838,52.03486068322556,58.89986343094378,64.40018341665058,56.922813171032175,48.250556112824526,52.22587481354242,54.84151224614775,51.50668661757493,58.165450143364374,69.84621361051445,73.04108442156908,76.26529471793712,79.40323353113277,68.40647213515768,56.46103761780965,63.95911727302024,78.8144720779108,87.65090045099805,94.78439230806434,91.88778390743207,72.37525991615925,58.6007544877153,64.27492744711634,74.98781982902808,85.65422938725943,98.11530625994398,97.1492608072482,80.2749090260618,67.11214565756177,60.07011755128984,52.27375165682114,53.70639764730319,63.904596069162395,66.36730957933088,64.6060366221413,67.92714984395523,63.90398078148232,50.09422472075122,43.07892284028888,40.688523402543815,34.76780324178861,37.60822810183408,49.01855649110894,50.9550603902628,48.25945986472387,52.85231292395689,53.7726216540027,48.719707320813725,50.61799888027285,51.59907668468085,42.204847383829005,38.70352534604016,46.256235852493774,49.2558459898874,49.12127190627767,51.55020460431936,43.16256040288161,25.65681671675609,19.319909885459616,20.670976706262483,17.388786205948044,18.63387793262671,25.057006199169873,22.0796734490446,16.166952387782892,19.278625455611593,20.714044744937667,16.823680281342533,18.35393963836445,17.482354983976784,5.91685431454214,0.6058189597322713,8.097358869593897,14.091074718198485,19.092047356140423,26.95638997278273,22.043199584824457,2.677433315829795,-10.286612548114746,-14.098172797346745,-16.8311293297577,-9.776519994574663,4.2136997097617765,4.502850473350588,-4.2282172749869105,-5.5555017535533455,-8.411093617805816,-17.74129761455336,-21.12107017960289,-23.890773418708264,-33.60290535289716,-33.3831991529388,-20.411016269065957,-15.52708543159787,-19.062843401883093,-20.66634041056414,-28.210152920822907,-38.11341356017041,-33.01448362986041,-23.646322314863543,-27.63313842050433,-33.922281438534206,-35.291556391785875,-39.686810847023125,-38.400997342430735,-24.567722869681358,-17.936825913386492,-25.692071049209968,-30.466682964582986,-32.351714846202924,-39.3090950108906,-38.389783778844766,-28.526692792974885,-27.882832516157176,-31.776300367257022,-28.620476456343745,-31.355254298398663,-42.28714511819699,-43.77993503069276,-39.46219842915963,-40.39258916413536,-36.65075325057078,-29.93650102096958,-36.38859319363392,-44.78754066099804,-38.51490539851817,-30.379216674780047,-26.733192267534477,-16.59041416330637,-8.59153084559159,-12.662685303646915,-14.212416409578896,-11.526007242308802,-19.749196754123012,-29.14279551513981,-25.26682367580375,-22.558807461467914,-28.890208113030397,-31.345210185981898,-32.40074596449975,-38.00036890191578,-33.955170749866426,-22.12927067978358,-24.01375843726555,-32.953374942252324,-30.335428384515765,-24.54033783093265,-22.12251182067508,-15.323083944759922,-13.430721161563863,-23.67298145316923,-26.15659926149795,-14.97544518178583,-9.448431340228229,-10.264143184860684,-7.832312351359742,-10.03880972756785,-14.961021798951522,-8.861478012084426,-2.469290484755286,-9.220270284000366,-15.611160140285914,-16.086602635362944,-21.258348156471566,-22.723462601205984,-11.862134960133709,-4.76328515125887,-6.018293376746755,-3.229876233840846,-3.5263606989145693,-14.358130324883511,-19.053857443358517,-14.495125818965223,-15.735048502740383,-16.00463344945048,-5.633183640749375,0.5465063910502047,-1.4387127174407928,1.390071863163232,2.356021575409107,-7.157775418418133,-12.762331315101681,-11.298809982385375,-15.585163507589986,-17.302338908371638,-5.545615208083627,3.6998664821892824,1.0647495415705146,-3.429046042236567,-12.420154895454603,-26.78504314108963,-26.46165506671025,-11.052729741015453,-3.65254132923806,-4.4568853407698334,-3.1760361269248043,-7.001049761734855,-11.474820000779347,-1.9519792903656956,7.639693550949375,1.6592753590216809,-4.513578494374816,-3.730436649210688,-7.32711645291017,-7.315129263554897,4.950564539266651,12.671366048343058,11.020800975091165,13.043712748891947,12.086445001345101,0.6691558738433159,-4.257615595343904,1.7026450021587993,2.436427317097922,0.17336511913638342,3.57203407901983,1.715255618850051,-5.891334590615455,-3.720541591582964,1.5561946277453795,-2.279952784177255,-2.6042236758825297,4.150694191121019,3.8465649674644045,3.078298723430755,12.534130338288888,18.1754454629088,14.939430125270189,15.835136805816308,15.798827749216212,7.297520984891191,5.856838564512951,14.229954864489043,15.689094514879177,13.323266463585096,14.232705362543506,6.243097986819005,-6.885585548826343,-5.418318836979774,4.576871112731063,9.221726972272917,15.782493770497275,22.98412975026164,18.96690691879656,15.211738205932246,21.68514781198457,21.762759691131013,12.71568140747935,10.645556143304773,11.049814019575605,6.64255720173063,10.362530757715957,20.194701461437887,19.072688125218697,14.196580898714885,16.256372178809908,12.53966514213049,2.8861429829994476,3.885206306016758,8.558951758743548,5.482362501832758,7.034340288509779,13.626421111159516,10.173149647067962,5.755882463651485,11.965551206388753,14.602077847786028,9.456188714221362,8.47034498209163,5.770670957452775,-4.001329595292903,-5.069645654826839,3.2963690902347698,3.118854143562868,-2.186666526050892,-0.9963655548174485,-1.18033959797766,-1.9894995443019,9.237962682001053,20.556066270136625,17.330714996865836,13.861605684318322,16.613559585007025,13.6540930395076612.508875558385556,22.00338096854979,25.60334452250959,19.630838737719614,18.780338330973876,16.249750289510388,3.8904396356732667,-1.1774259162709986,4.547123202142685,5.165895745972554,4.8863872948388485,10.346842002245774,7.59529878337448,-2.2089797305365484,-2.279898770300652,0.5877291959761521,-4.633384008727756,-6.127463177165581,-1.68685313596287,-3.7088815426045465,-4.380918747466611,4.8591140385931935,8.081900024864453,0.9854573489326168,-1.8884959361447269,-3.3059936912387933,-7.908155626255634,-0.6422151440364683,17.07013999613573,24.11189304415081,22.033617229815384,21.454697474632,14.593697428852089,5.687576903990979,12.44476402264857,26.123101632205184,34.157320955137735,50.433422231225045,76.75678551574272,100.00649441496094,131.6967317846853,178.19133089035756,214.21817813693508,228.77685919692522,230.44973845428802,214.4859941933508,186.46215740566296,171.85873315540985,166.5657443366702,142.77346390946636,104.98540460291964,73.77485967486446,48.324056747743924,31.044384697519725,25.087580566799904,4.092033517057814,-46.1335951621261,-95.88441964340669,-123.7833323312134,-138.88055079424956,-145.52169946772696,-147.0920638035259,-160.44832039762883,-183.05437295175034,-194.03168892696647,-198.53392708639876,-210.0420697352229,-217.2662984574822,-215.37385686800684,-213.8229517731815,-205.56155551757016,-188.3908712115934,-182.41555081390203,-187.55544086447736,-183.7927665856773,-174.72791160516527,-168.09448233725698,-151.12899479344907,-128.10665514660747,-119.12972355111955,-116.99816987831932,-109.30814575973902,-106.62438457189103,-106.16943797988445,-91.11426532392599,-73.14836686684268,-68.98761205324594,-66.82199503778705,-62.375523661628364,-66.53234403779788,-67.72672730182654,-54.31508724513358,-42.23563321202139,-34.953400293911415,-19.297072188631656,-5.900280111133761,-6.022404439264424,-4.719540385546724,2.1947233879791765,5.49873142684008,15.609752199375475,37.45500096777019,48.98702780018759,44.13807978960176,40.32138367384913,38.298837243488606,34.26419127551297,40.93597238544614,54.62948521618786,56.86951362320517,55.166647987203916,60.23011170408224,56.942723609039916,44.18721037732398,41.43120927038541,45.96213771282393,48.351299202261984,57.547417652900684,67.83436614678021,62.42962345851128,54.69238143388132,60.51018744781322,65.97942450466562,66.46319023405121,73.55366974745624,77.43657026479426,68.8501950030809,65.03352875230563,70.59037384002373,71.69884362248004,74.83093674265236,86.63743922567468,88.71155608025187,78.34868194565063,74.09652620429453,73.47579337078385,68.75287505248781,71.09169606544158,76.55044184647522,66.71707278637571,50.13329602238255,42.61844266803829,37.94120363142178,38.50432144188622,55.272140904324445,71.02831370563892,68.01762813414278,59.86953012083464,54.04971984577696,44.23926439697304,42.66351085401012,54.97776724342952,60.67292663851771,56.60416376188772,58.26052744209187,58.63717207194881,47.626477472314086,38.49506652118016,34.843898048529695,26.36247890109511,22.062866681089954,29.043840799487292,30.667134806719346,24.74866961128556,26.397315767768667,28.99944665355801,22.159647283933076,17.88528216709739,19.98670770096996,19.01920913458574,21.52733577039548,31.24886922615354,31.223918500473943,20.977634276373145,18.469138509364264,18.75700598011936,10.500453289645368,4.5902283788590434,2.536785197587532,-7.392893796498238,-14.577934032294975,-8.235047373831385,-3.2430848492114595,-3.2797120584227444,3.231687535699011,6.164060965195473,-4.914063787776379,-13.794869365103738,-14.029971325893541,-16.28325796690208,-13.462334013329688,0.7227992194260864,9.202634627055762,8.235721080672853,10.479278200864526,7.234161985750228,-9.9750899191662,-21.524345007305808,-18.748235092558424,-15.491047472007597,-10.580661271313165,-1.7349523727351506,-7.028018575061874,-24.832313716888812,-31.668436539260988,-30.22837428902413,-32.62829361076206,-29.004568296167967,-21.04213215306914,-25.229521032076114,-33.48192892241302,-33.721678773575576,-36.403885001036535,-39.564610295903414,-28.190764222769012,-14.028356577578592,-12.951325842430139,-14.35711308333912,-14.330038954962156,-21.669416734254614,-25.516205529483866,-16.712644903814805,-11.45446279350392,-15.432426867828845,-17.63174388792849,-24.23635337345125,-40.478522318215575,-48.1388332016165,-42.329314502384506,-37.83736144428029,-32.167205551264885,-21.055991466592722,-20.445516039346114,-29.99769297101336,-31.11242026911843,-28.717822493392163,-32.603944695639804,-30.4963139476014,-22.430832401831733,-22.22879343742154,-20.900516872864326,-10.149954774028355,-6.609909464273699,-12.758496028325625,-13.195250227436272,-12.972723718990007,-19.521785232194816,-20.346359492249203,-17.07949643199781,-24.515194209628884,-33.111265149650784,-31.335057355078,-31.192863094750006,-32.9216145199098,-23.649957345199603,-15.12509792998372,-19.951852490160192,-23.772408013759648,-21.879750639560076,-24.310539209957163,-22.20829091746006,-10.258882651364189,-6.933049890799413,-13.64318581600401,-12.639327312883594,-8.441333171589251,-10.740140679392793,-8.66893781681855,-3.0897213198427984,-8.210091670815531,-15.115966053778147,-12.941878390078898,-13.79685478877073,-17.334803529468758,-9.351079602780548,0.18573810940665947,-1.2815960798862804,-2.5557648638748582,-2.3654020416266777,-10.990658847323116,-16.171260164340385,-7.388311487824305,-0.23948616854413118,0.8498621049722659,6.31716617820358,6.543836501464812,-6.16799385932541,-14.524702380014192,-14.030296975237002,-17.09338328193705,-16.784756057669984,-6.223729395875023,-1.1815205268016014,-3.9375784024224374,-1.0570780539588822,-0.4196263738428361,-10.814467433611059,-17.036479395498294,-14.531056334779354,-13.854628130104206,-7.844123951319785,7.390373943959364,12.89867357730904,6.637389428789293,4.969729402961185,2.4360529419993924,-9.487552143257943,-16.985973264930855,-16.96393375318385,-19.382133519351413,-14.737146838308991,1.436507263891996,8.00705564640479,1.2521729399468735,-1.0993921320516273,-1.5171019781284052,-7.064005528484207,-5.651074202947262,1.4497307398644557,0.8892841901399089,3.5679337367478694,18.169647380339768,25.57389347905315,20.93564508096597,19.01280846772595,14.478016053507751,2.1410782239433193,-0.35254690655378773,6.711290211827274,5.164331415554501,2.1551878492330725,7.161840854126979,5.32773987760974,-3.2923679105921813,-2.3498314631616473,0.33030501901150955,-4.361665199650194,-1.7377370216328019,8.202512967658574,9.999621526012051,11.603830557854787,21.584578163193974,24.498147592989103,18.815536695424044,19.448047094425398,19.470543636723914,11.728400766438845,12.126244250783392,18.799912878580255,12.386943727838284,1.5739338202113113,0.6093203070063402,-1.2040587722206884,-4.2875554852336935,2.5386598822929223,6.130080084908314,-3.662295869168425,-8.32905728753309,-2.3364763611020076,1.0405599282128652,7.391350021371227,21.43227820844755,24.898911358490714,15.350511062996041,8.652745539791916,1.4334352350379795,-9.1335052363245,-6.011551490599084,8.347004560607497,12.783924580505644,10.099131660405215,10.037266470995055,4.439606692002112,-1.8960886460382271,6.453150800230971,16.958126575362993,13.536838986298918,8.593708804899094,8.023815354839641,2.588860730971061,1.51992115903175,11.451997523888839,15.200490540013615,11.632282686849852,15.371425893386979,16.51477726657586,4.623188033874953,-4.655962566697138,-5.882473082640802,-7.259752654112758,-0.39993459637581497,15.099227010688661,17.224097143678346,5.219449107670463,-2.488093671271336,-7.805863267423327,-12.636831998237357,-2.6590108981137566,15.677900887410905,23.536905094590928.487835979666045,39.82155206010231,48.334383858138395,60.29428543674575,89.95608299237159,124.0077633910554,149.38509445500688,175.54010603026208,198.07880940890428,203.39771046397678,205.13363261760014,214.06299205434138,210.53481575472665,184.48924088859707,145.6921212222092,96.20070034295443,46.06914607266292,18.006850892378402,6.1039264038312115,-14.08544437200895,-38.98090836467992,-55.948588407807335,-72.72938728851884,-92.08425285815107,-108.68060749193059,-130.44651392549798,-154.04001125416926,-158.6447891856269,-153.901188953483,-167.8270927063322,-189.44216226758417,-193.05341851275935,-180.66638241602263,-157.3930581771196,-130.61934776081148,-130.2941629687169,-161.49557454585604,-182.22612556522307,-171.1939300717103,-148.55488556384628,-127.93581273027552,-116.51195767803691,-125.19458054090892,-136.66547552852342,-123.89710984853858,-99.66408746443226,-87.30296624516573,-82.070127385275,-79.05378856339753,-80.04679174483128,-70.97486695931651,-48.98830893812301,-37.13757417958713,-38.39246121416903,-35.34715117952845,-32.85887898446538,-37.419922221126356,-33.50913685786251,-20.534633073195284,-12.464050341824377,-2.10426337400371,13.879944321250234,15.49561149306391,3.643704311844517,0.16098086396050615,3.1651991859242035,5.937724944958359,19.413450386220706,35.86660618522445,35.84644923063294,30.55526240148692,34.03831283428666,34.85436579010906,33.33989146242567,42.10642516923416,50.15048392706686,47.84405779907787,49.142669124552214,53.399965839487365,46.40172151021246,39.269997380757815,45.47246414891995,54.30015466964332,62.62544027481787,75.005775437739,75.7191550470838,58.509470094558544,46.11768675222163,46.408104683260476,48.596195217432566,57.600992974821416,72.13340619630577,72.60631505313899,63.09430293913034,61.43288708343479,58.84632847518276,48.308888262595644,45.36639353593249,48.51078664731766,43.59006592943194,40.617899485093474,46.59522705573975,44.66598538103716,35.52563033015426,37.01741917275252,42.74703365528972,43.69223289180994,53.57362971607817,69.31560807700482,70.62693154388242,64.91037909519193,65.05586511986701,60.234048011228566,51.78217360943817,53.43414854051018,52.9780056815129,37.59447099633154,23.81769127336596,20.844877391141452,19.74625846126903,25.793382763726427,41.21321716121875,45.74584340385908,36.90905162053355,33.87505012402414,34.82149068501624,31.116178398812206,31.515244063984657,31.553165070596876,18.187966914141704,6.310838675867701,9.453158515929792,14.656837940826748,18.958150741876352,26.93068914839828,23.288011907675894,5.531569708722521,-2.9860129257927683,0.1370609470563231,-0.654635391442504,-0.7300014743255747,4.074380465766069,3.0345173323750325,3.520193583185054,18.18373154920927,30.372980535909104,26.46882734150904,20.511354712189224,17.26749165286894,9.205690602865307,4.892417076134983,6.202674313768667,-4.066275831310355,-22.47668948059727,-29.59101756333795,-26.849468082022394,-18.163063129224632,2.2274258560764997,17.836123752431707,7.212839462387705,-15.024213751785194,-27.055341306327144,-28.778345886065907,-17.42372439947896,5.903227803796817,14.822898030931562,-1.4218359442419422,-17.92559502785873,-25.005094004975113,-33.38012877664271,-35.429855993823914,-26.11440231404319,-20.681326220987913,-17.40509149737842,-5.831031329972252,-2.0255539084941154,-14.903274528150614,-23.11004377785118,-20.39788851357267,-20.91704899509312,-20.885454510128703,-15.130264439075779,-16.065764209565707,-20.040601005538498,-12.31623742111266,-5.364701132503079,-13.877989203524812,-25.821491325556117,-33.46462295774431,-39.64117443257562,-34.07648665679329,-15.817880093763854,-7.2758191422677525,-14.259910320628332,-22.340602962671625,-30.756006532598057,-38.08150155555936,-31.24874300921771,-18.689981762401843,-18.622601979086852,-24.39173525978524,-29.129261708477436,-37.968127553856974,-38.1580356910301,-18.05327468531717,1.8294460321427852,4.1682993022816,-2.473997901979015,-14.048322838929137,-29.88567293799492,-34.16254624925175,-24.948662706117155,-22.585588857300344,-26.111058861541963,-18.840948468555347,-9.769276978490147,-11.641727808509444,-15.326522579850035,-20.446039124140725,-33.165754435054545,-36.68704873073781,-22.67114442069972,-12.413367935802986,-12.914143401914648,-14.066594637209555,-23.076451425072207,-40.10204570676407,-42.81622285272509,-29.836204646409275,-17.45356262746219,-2.4407751946471485,13.189558003135733,8.681310909384582,-10.800285837953115,-20.06329393220321,-18.906264578108654,-14.015824725688613,2.3376206963476145,18.873326589384735,13.136365102092935,-3.9450455512302067,-14.351514556303938,-25.12443274455168,-32.62371793752912,-22.538326431927437,-8.19511208599219,-4.2686645062974975,-1.4040861441778008,-1.0641623582265898,-11.220160505091696,-14.320124354262493,-0.47817915375027287,11.17905975440604,14.828427016198969,18.87227935947643,14.516220322396702,0.803614621456938,-2.310324423297957,3.808275256072561,2.874806195462541,2.943140896017894,9.85096874224156,7.095901779605219,-3.2292542476403723,-3.767278645357754,-0.9258254747246368,-1.7221434740538988,4.175768477133266,8.711057406890724,-2.9097786278326874,-14.167117629107452,-10.652233833704582,-5.997427821209924,-3.146758884598756,5.204726098962339,6.347658289175044,-3.1047543650357694,-3.0479805273667435,5.335588834777594,5.13184636036853,3.305088414421504,5.880770489082989,-0.8459105224387735,-12.564204388945244,-12.205249766406958,-7.502112728142984,-7.603635794398043,-2.076359143214868,4.917810797678979,-0.8592818696781537,-7.918102687100136,-4.302356237733853,-1.5786611020738923,-0.7915980881163394,7.044268489500947,8.841978148464559,-3.0010334398692606,-9.15182290734678,-5.810522378846349,-6.039698330081971,-1.49169392400393,12.858067257831715,18.12582337674931,13.955924156656602,15.577540466749745,13.352425156899848,-0.18645680250281327,-6.76165867779244,-4.271531784420283,-6.633398934140604,-4.996199217977386,6.8797911725279715,11.648517075113148,8.509196114185738,10.364535492609042,6.950329905842639,-8.898804300516586,-19.23515918443781,-19.90306390269923,-20.409529066147535,-10.85975904734882,10.742608735973548,21.17205808364899,16.06996322712726,10.887125669677882,3.3722741148671327,-7.081688385433769,-3.044048201522722,11.7198454029059,16.528350640247886,15.578944718464172,17.014736310153985,10.25210982577226,-0.22431876223125125,1.2809499962243567,5.083482514958234,1.05515810878794,1.7028965588482925,5.704654017107179,0.4702545545936818,-2.2751631768126277,6.158975593230368,10.050134477785331,8.491776998959999,13.857264565902883,16.72275680020199,10.431846963757945,9.973260607272488,13.793509661378051,8.415811343784526,5.527061503971071,14.818838547781239,21.345360979860047,22.486778804590642,27.232967619375447,25.28723335532565,12.65407527082414,7.714340476116893,12.022109891652986,12.233040359711886,13.447190036013728,18.285954491100476,13.90735755967859,7.8899763440896,16.99801285239663,27.6066421872625,23.783833165698233,14.123755223775603,1.6277969038005886,-14.56068657384996,-15.945906862670725,2.0959362242288835,14.846972403226639,14.874068124431156,13.7836189119246,6.74177466423923,-6.737992123082288,-8.548541902731094,0.19346130440351184,4.296276084970962,9.137826487745873,17.009891327191816,12.362007489819849,0.22856442677276734,-2.2816029719083417,-4.245918824220542,-12.659296197570757,-11.70429456899321,-3.111022966805539,-2.5450313150204034,-2.6403082070462673,2.2865077250856496,-1.2161259283937698,-8.273502234620873,-3.053951318900248,3.5156585272693293,0.17512740209445665,-0.9042333141925794,0.3917647551807365,-6.739084514167279-8.936381392268927,3.5730103802335416,12.158942930477977,11.508247058735247,12.716766877436365,7.539024125487517,-6.690283511902726,-9.43216506630019,-2.0729170082265544,-4.952839691914631,-11.845857432087119,-12.170630525370838,-16.87930844828806,-22.806427895318308,-15.632523280158228,-6.5867983243479005,-5.379586374941784,1.3895335794465993,11.88669587221712,12.504420632346621,12.652398193732639,18.581772570727654,15.536806071192757,7.503586621004468,12.37862624150434,23.266346563887666,33.93983526600631,57.68372572074514,86.67782028827943,102.1921493268052,116.29419671111596,139.3784170243741,158.45296554743874,177.38621474037907,204.26144409175205,212.87914443104808,185.4850939705867,145.74856501008338,111.42909573770629,82.27856140350617,68.05233502185015,60.69974259403304,28.77783162316832,-21.83542567791184,-57.68441405181492,-77.47632647324906,-92.39073521872251,-100.42398675671697,-112.70651215991734,-137.84857048343375,-155.1286505006192,-154.5498090648479,-153.27748791758603,-153.61332555528418,-147.78002097247045,-147.94370782682677,-158.01005312803107,-160.4216798822216,-157.09701999307998,-161.69720095493406,-162.732765142421,-153.49099538157304,-149.39024806634689,-145.16726669881479,-126.1216181130934,-108.99170592431052,-107.35696781232093,-107.11163518330612,-106.82846736336572,-112.66781677741082,-106.65927290089311,-81.50169793577265,-58.82068214396111,-45.93480627997661,-35.87129360427568,-36.48938778179375,-46.27442810855895,-44.35591855457739,-31.726115731462404,-24.815374216285008,-18.604583704952976,-8.686479926876089,-5.796730991082259,-3.0084343133643054,11.708974598198035,22.071927824486497,15.580358933070066,6.984250826119782,2.812946712124261,0.07853120060089269,11.389058461951224,34.96196254677531,42.69937010472805,32.07243304103875,25.65518360941899,25.14638828227263,27.959213882577,44.35941343025694,62.72302770997646,61.661115740661955,51.108606994684585,44.951692805476,37.0404915854856,34.337465006074964,49.52647155851203,65.39346175340822,65.25318464240206,59.36056400439158,50.52167223898289,36.01335028247589,33.43784982621455,46.1862680157944,51.021591242957484,45.31492137029146,42.3174783753436,36.806719719309235,28.672785496786858,32.49720133745986,40.82156070488724,38.11196549776703,36.31677719867911,43.39707794029883,44.524587134342234,41.10629875939375,45.07727344804367,46.02051791395586,39.460455192173164,42.7726695838168,54.01260191471796,56.5031110000981,56.35207561495185,58.45311009709262,48.93894808130591,33.73512037940375,31.38570649596246,33.15996999289948,28.200911776179133,26.39679376040671,25.920893763370728,18.63221534370965,18.594493955597123,30.46601821986998,33.779581272592566,26.415107014562004,22.69328627555668,19.312007700734508,16.816628362670368,28.725476784088553,44.305702104027944,43.76266014464736,37.04152543746015,35.01650587813161,28.464356805046663,21.93540634515676,26.935120454640057,30.673416128991963,25.862264640493024,27.76041929582823,33.25452987522736,26.65165137904269,18.837063159468762,20.797715780303935,20.299364177016628,17.391234029562334,20.573656684458157,17.15212731795323,4.910117686552448,5.180280925977403,16.00928293951097,18.247639964575168,16.33504695371967,15.870975120190952,7.665617824043216,0.621836998968682,7.75200733429298,13.184023161403427,6.700053423825869,4.23325960784366,7.745100336086434,6.305815924847998,7.861319215612035,14.978070493926964,11.06084598239799,-0.21197213326524,-1.6308995264227821,-0.8948176288153344,-6.3931546228024265,-7.649901936651521,-9.737180726996778,-22.83347414315912,-28.60062457296312,-16.73416124978035,-7.172670487685185,-6.480064639851019,-6.748109383442587,-15.957022557379346,-31.38854167984127,-30.739361689512222,-18.609843947011875,-16.01934104510936,-16.660199451616798,-12.403467324193997,-14.509128651494432,-19.206098605813434,-13.898184789606484,-9.206480628357557,-11.724888577676287,-8.73292098372363,-6.44618265103936,-20.048179511870117,-35.89221793712122,-40.216856124111914,-40.24395909039393,-32.40441508536043,-12.677104756210213,-2.6654532607734556,-12.371596554699641,-24.514935303293658,-35.69197640649103,-49.34606009711154,-48.42368070771262,-30.264608783801293,-17.347359649804094,-12.429837564168189,-6.019620926178867,-8.656144571803821,-20.78404515101061,-21.18231819423899,-12.929397423206888,-14.119312286997484,-15.729401714965842,-10.365689925348597,-12.853156316585958,-19.57391532955793,-15.934490191947681,-14.50540388501389,-23.84202307746377,-27.088411638246292,-24.526029761413113,-30.70004523626445,-36.48180921520515,-33.37229840361145,-33.11103618953786,-34.03487232799145,-26.927203349867995,-24.82434748374368,-33.407378615583,-34.24982139380249,-26.277275043944854,-23.487942473837162,-20.357069684809936,-14.160692681712415,-17.712923738821072,-24.276587044343447,-19.454339525662263,-14.385633568336065,-16.20571621986768,-11.841725881952064,-5.434405612034531,-11.251897091946338,-20.43900583192317,-25.871483859817012,-36.185847004248075,-42.10650230428388,-28.44206008204459,-8.582519307172717,3.4017809388093374,13.126773993317233,14.704246627297051,-0.8699006499222577,-15.62516220154016,-16.10608993401265,-13.232404417592308,-6.321901801272416,11.278236594674347,21.45459904034883,12.485761796271055,0.7347486907564154,-6.069025465658416,-10.875617040895904,-3.2764723231246173,14.073398940094123,16.742369474881244,3.8908909786738723,-5.0358169902785885,-10.274041975126893,-14.633508693171084,-7.968079059634849,1.8994218869302202,0.38344525588626577,-1.539304818478384,2.029127487071066,-3.9646433001769834,-13.895861670186072,-9.866804937965906,-1.004589658303556,3.771228620335016,13.366145809856363,18.64038857797796,6.778380721195765,-3.9730888667507105,-1.352820526094245,-0.662687421359278,-2.1849946479045532,5.955645874847843,11.777627377772168,6.815460384926975,6.336178563822359,10.162421475846163,6.310791143815694,5.317463442576334,12.902906806405372,13.257001376311962,8.139913426016667,11.02032016222364,13.510694846183885,9.629138270311422,10.127932307250715,10.762414746934468,2.662941677250327,-0.6170821837682564,6.0689772951611864,7.056639287533206,4.704076090368749,10.347566212496002,11.94515129063307,3.8435620988597847,1.7115936623705854,3.144975466733716,-4.110004488155887,-7.72095859509173,0.1522433077437948,5.171114271487769,8.981514949700333,21.485198379964213,27.48358443482612,18.549852527186104,12.057183695295421,11.09803722351073,7.011292479390635,9.48606287145027,20.221211585584754,21.530994900910347,15.892624795455369,16.033553061047165,11.003315787403267,-3.162048579302076,-8.234958436403693,-5.04518789750398,-6.080840251519428,-2.9579404038373283,4.952562988509168,1.0460846555157444,-6.990769217242505,-1.671995894091474,5.861837986360356,6.606486574142968,12.285633319972776,18.621972984970682,15.049332078204559,15.725994092902793,26.000146816196683,27.983011533106108,22.45188373459658,21.794930874280432,17.896224719630563,7.911824716082679,6.035756929918862,7.74143773242052,-0.07753531168795336,-6.164678702745684,-3.949844526319297,-8.437167070130933,-16.774178517886497,-14.91743398255387,-12.115073048848929,-12.924350872037952,-4.066287325527396,5.74290709582615,0.1554967047093503,-6.445876163162766,-2.22356781038352,0.2695510294230779,2.549068606126615,14.735760978871014,22.487984931283442,17.693558595308204,16.190124659733122,16.78214440298038,7.915668027975593,2.8377285350912906,9.293124517768826,10.424150517588082,4.724484251611234,3.1728898651961046,-2.299828109250213,-13.958350830617894,-16.240510835292095,-13.532028168327878,-20.46959154697178-26.04639492530438,-21.37279531241061,-19.278608194614463,-17.77776605349943,-6.464409088371909,1.2077601929905648,-1.3001865127462557,2.044666194285832,9.081301962410533,7.498598212683515,8.4452165857841,17.438637780662752,18.66599756557624,12.994889035390923,12.49174501604557,9.104519666611953,-0.19261396049967594,0.2722836432260598,7.582873715338522,7.108291361687951,6.309098661688152,9.544243758094318,2.8444460017686892,-9.345044155430175,-11.210349590972449,-9.616133412210296,-9.15735541982519,2.51662289518829,17.793718129804937,20.250833922058913,21.490601352747124,31.69568587641911,41.21940361490954,55.84038166340801,85.71311347337875,114.41153319502125,133.39009633419658,158.27249149896403,186.38777183665277,202.9326170193377,215.18769529458854,224.2837921256284,212.32083104907966,186.3960478793101,169.55682783799742,157.92719787450483,144.2518725526541,136.4249936086132,123.04240905136317,86.70582388608636,43.30333295104465,10.999524221960915,-16.126807620391215,-36.79311765716118,-47.33411900716226,-65.85954158659975,-96.839918653992,-118.94168803273836,-132.51851167483863,-153.5277968532475,-174.75273788960445,-189.10496008936656,-204.2239616498011,-211.32666608423983,-203.9711945920971,-208.36985713051584,-236.16326825690038,-260.77103643607416,-268.2810156521863,-264.0562051322951,-245.19956821250247,-222.4859409122627,-219.93675249880027,-229.50705078382134,-226.07193515823604,-210.97575704245023,-191.5669020379467,-163.95258160951937,-140.52744327751208,-136.20765857006177,-136.08140712228845,-127.29186532661564,-119.07705477065763,-107.8941656551243,-86.52870593189253,-71.3969970214387,-67.7074105699298,-58.4578827374942,-47.080911799022864,-46.74706385809263,-46.38946540100508,-39.897091087038916,-39.35391929111552,-37.243667240783665,-20.547305577722433,-5.556270777048074,-2.185923654960472,4.372105931865985,11.600647067100564,7.502638125673465,4.831069321223092,11.776836440800974,16.77735307410845,24.89459363995934,45.94547926988449,61.257061584065156,59.34049915023715,59.28408751469492,68.0544716846849,77.24527788149027,92.92820813445887,110.90720520195634,109.26185179931765,93.66425052913553,86.12764691882983,82.15350756800193,75.08412703575462,75.53377368770464,78.01082666722712,70.61438711447082,67.15214192997009,75.5399825186811,80.70732498906844,82.78859706790934,89.96716665218095,88.66411282813846,75.32945462570456,70.74051292156024,76.75707520542622,81.00422304063626,90.04255931617428,103.552796686943,103.89080084258819,96.00882257710899,96.95904003174552,99.26068836362475,96.2503276245725,99.2670777327639,103.31729703066021,95.406899134082,87.75530162588608,88.52414638574699,84.2118986226675,77.84310772297646,81.4311886289879,82.40957434777917,72.95462192732595,67.75133915120101,66.11735095124288,58.583316094722505,58.0372506994419,67.35469583512263,66.10076900651359,57.204905830535864,58.97706753270999,63.82971548959712,63.042835576917255,65.02016217426939,63.33238967689732,49.9699614305721,44.51257217483422,55.76494512641075,63.53247035432324,62.332530098937596,60.77608902544704,51.75810077107402,35.938400196621615,29.723289250950916,28.20910721937431,18.862551850791125,12.432580373024072,12.472238832610373,5.471766646366827,-2.9736306216424846,-1.1209508729684365,1.669977163326839,3.145452371919479,13.8098134590733,21.607313094069056,10.706213877923407,-4.242984576616006,-9.405749264336954,-9.317293167502605,2.19795123798367,26.8592218533418,37.957575469111035,23.41897059459334,4.010416366534637,-11.69550588805313,-25.740272473198477,-23.652541407658163,-6.396390333857465,1.3886342239636056,-3.2943694126795817,-9.998190141796425,-24.64679146231562,-41.60175752684854,-39.55672057561711,-25.07000002213906,-19.311647252763578,-19.879533273081123,-23.06117927913488,-35.18394894581183,-44.023298122845446,-35.56405420402244,-23.8052685404883,-21.265259466177067,-21.550786728814472,-28.075020596780167,-44.978938535257505,-52.73740933495589,-41.98016450890299,-30.48832648269561,-24.26408933241803,-19.324769534286666,-26.319008976302513,-41.755509369450415,-43.515089126519186,-35.1138059521452,-32.45723470532736,-29.033515741524628,-24.341677700715472,-32.513243387692725,-44.022633732988346,-42.41536822274321,-39.74469369305596,-44.1046358541064,-43.028261863795414,-40.99667457631952,-47.60730798487643,-47.309002067016706,-36.01770196001357,-32.69718824037849,-33.724577833301765,-24.93888378580113,-18.738649610855198,-23.164424068682752,-25.234581813974955,-28.440772297966106,-42.24120745020175,-49.62945391653324,-41.373335058459205,-34.70901133045445,-31.953935318953366,-25.35008967186407,-28.406975835139377,-43.78379773090042,-49.486112065188614,-43.87579799776415,-40.10352033644527,-33.19825162577287,-24.74851289013995,-29.025003432486702,-36.104316913675,-30.704758423740643,-26.614763316984654,-32.224349757767364,-33.282150005732205,-30.714036527926076,-32.692979436971164,-27.869792608264323,-17.630178783887352,-21.688343227919262,-32.43530264597926,-30.809349933909917,-26.268291826624637,-27.3370305641408,-24.839547613353922,-23.99144329542618,-31.881927390717244,-32.245267984648194,-20.65628994826498,-15.640256221641502,-16.299744992057395,-10.844448391258865,-8.486962506248817,-12.600006394925408,-10.712531224785032,-8.95007680905011,-17.848088294647038,-23.151948984052,-18.379931348018903,-17.859900829204083,-18.109041750794113,-8.651694225776373,-3.5957750736041483,-9.849748308299906,-11.847115713650693,-9.897597344948549,-12.885079709399886,-8.939551619831864,4.033641795468724,6.752483266243924,1.1984182605297753,1.8968933727508066,0.1910603439785269,-8.442657485247086,-10.247133373710884,-9.169770089968289,-14.514869319578072,-12.166213387370245,0.07631173475219022,1.1075926718815132,-8.221068376737046,-12.318411197963046,-15.427595480287469,-17.242102658058634,-4.473728306824178,11.32542988711126,10.93118944734504,5.724190767118676,5.951152444282164,2.373572959499562,1.8011360093683315,13.941286159475528,21.530738728423614,16.445120709917944,13.536265180130611,11.766720356951296,3.8661397387908414,2.172643746668678,7.873910244398823,5.1139387986430345,0.1379037339854685,6.217975369593796,11.956291605786756,11.428446398954687,16.10766214972584,20.965091421446594,16.69664204536111,15.619581711442178,20.536569541350808,16.75679093494348,10.548836866628012,15.261750614570634,19.66561301414896,17.531619059752938,18.71590130152519,15.75977008489964,1.0711894568906342,-6.040905098281913,1.8591889193741316,8.239166605328911,13.338758584361491,23.11452910384048,22.82628399958767,11.087660856703309,7.419996013875336,9.328750524754152,4.757714672597446,5.02574708415087,12.881320834574712,11.888684241515486,8.528532656150457,17.90723897991384,27.559126524788013,28.273115060218267,29.235479077882303,24.922440641818447,9.580407389026558,3.1715969287078387,12.804790668451544,19.112890950571614,19.99700033668992,25.141069635750622,24.71445988050938,16.008520055815005,14.253302658470874,15.360388577971861,8.458751757375216,6.792994510713837,13.913270368777834,11.074608680538976,1.042673505850832,0.3891340814055564,3.488985623214664,5.902217016819731,16.60685602740903,24.547081457531124,14.4243535053484,1.5534399380792365,-1.0948792894677968,-3.380804525447342,-2.6967191252792393,8.409791694354855,14.131337407023713,9.363099248762644,12.350974659406596,20.888513048098673,21.313886584692142,22.142349555147987,25.493571230188493,17.161248399989795,5.204046768712688,4.597021174357874,4.457701794923417,0.6171757917431322,5.584183643820717,9.741972535376444,-0.29899875516083974-8.920215620241864,-8.293678467579973,-11.135340587328791,-12.127357272773475,-3.4680892822603804,-0.20802360723220348,-2.038127935282265,9.43355293994706,23.540944325524876,20.58078314090004,13.93561177255091,16.40799735220961,18.665115352943793,23.796380314636362,35.65587884321909,32.52411909246127,9.491274971019347,-5.336888251760085,-3.062056195095308,3.35816616273683,14.797482610730297,25.44284978066143,16.742892258066107,0.16823073099352293,-0.6345246076415121,7.477769334891969,15.4891290025508,28.343514860716326,35.4376194171236,29.57588548384812,33.12224459563027,55.89154431153383,79.49949207376746,102.88881794382117,136.82679404356043,170.53600202571084,198.93676319666477,231.2182781944251,250.98203282337184,238.04746727460955,211.85839599199653,193.65623019034712,178.4809317571246,168.7042970974909,164.68385656227292,142.87173151452504,100.11101624559173,63.5401068049576,39.23521809282966,16.63398328235666,-1.2942890435112018,-18.880309292871978,-48.72833858366135,-79.8297319313174,-97.83053727139713,-115.5026541430335,-141.4164119057923,-163.56544541274084,-182.66330331994448,-206.6353659107421,-223.97611265908967,-229.91620772423397,-238.19645615637185,-244.47851721288052,-237.0545379986262,-231.54161194894672,-237.90568766012123,-239.7878486138705,-236.78064691943788,-239.8903428923045,-236.95030913382456,-222.8825855554763,-214.16918134708504,-207.69883065823984,-193.315656394214,-185.44678349561096,-185.6305345984046,-173.0360269119975,-151.74677491834404,-138.73470268558927,-128.99723492313512,-122.20372778251932,-128.833802228409,-133.45974082609396,-117.12033071698914,-94.75376264151133,-78.48343160612774,-60.138586954793034,-49.191203292250904,-56.642947666048485,-61.47283072924667,-48.38641166364977,-28.835771953802677,-6.346361155558255,17.699402852649907,23.908193483438545,11.73180218709868,8.08289404996105,17.473798100261206,26.49548296664747,39.63007022649301,55.363328131450544,58.62254747207084,57.56940623707125,64.73335391598778,65.87393335151376,56.78066223130334,55.26314496622142,58.84745690703795,55.49563020198682,56.74383498072316,68.02309072934874,75.47948383651362,82.42380530232238,97.35481287798663,103.94118116452407,94.0637439497587,83.72415884913293,76.04511785010914,67.31342680005808,71.27920163750409,88.59593712434862,99.41404352612682,102.68660093890941,105.14677071989044,96.44239396049588,80.96246414429801,79.336910472029,86.58371568479528,88.91021073007659,92.64338813545983,94.62027734878487,81.4768439973095,68.16144011430562,73.17339683688161,81.64112356111053,81.91374806660392,83.15426538182103,79.91187573618417,66.07955145088894,60.916748162514466,68.67729484572186,67.83051448804059,59.35173867688462,58.05776067500377,55.844634515962596,50.002594497354885,54.78142371868209,61.529486812934515,57.36561057796067,59.09067239255397,71.49195623231023,75.09206822485825,71.74005453417786,72.24454171899313,67.54472664807443,59.028758568513155,61.42847278820841,64.82332586186013,54.2649272127188,43.797988650305015,43.61227595120145,42.87142589385289,44.494126423269414,54.91839923050003,56.54585457237664,42.31047429128553,30.13769823754582,22.92527690172183,14.231767779669896,14.621093383573749,23.23826279526851,22.820878320996638,19.52740276368025,27.723813705055097,35.542264653329816,32.36473701987978,25.705628485788623,14.69825083393118,-0.017416094779521885,0.3839377634451955,15.784516588853396,21.913904547085526,17.73228804522109,15.079327301302552,4.622644556961971,-12.94698610159514,-17.850623906484778,-13.732467597051073,-12.460528607374627,-4.423527522805685,5.4996213637535005,-4.237216193356322,-23.12821169618231,-27.732161312632567,-25.077138417839855,-24.11395110171901,-17.258364109859677,-12.504515580036955,-20.38171123641181,-24.953415506457436,-19.292893550677483,-19.399879553602347,-22.780769907509004,-17.771293278861776,-14.2800717643479,-15.711171823469837,-11.495647592230771,-11.126323451008602,-24.949070557211662,-35.80287367963786,-35.34114085713802,-36.197553244457374,-35.38396303211506,-27.877141209253427,-29.591575320649635,-39.14206659065583,-35.61950476678629,-26.597986283740774,-30.503628257144097,-39.160429121535955,-45.89361597687021,-54.75645663967413,-51.55859839571907,-28.3369928387781,-10.401526213264344,-13.40356827832556,-24.538632327185834,-39.08204283970235,-54.95854144458737,-53.76191464739769,-36.141832099134454,-26.668396553940884,-28.18283607432356,-31.025718047633546,-41.15883200859838,-51.91497815807743,-44.31055574904053,-28.758321922322992,-24.829421897603012,-26.541026041926195,-29.74854000943357,-39.548611682461825,-41.95447559428629,-27.625126889187477,-17.956276682752492,-24.377102747218913,-32.91434518990544,-41.345414946872275,-51.89826049932686,-50.19348662994763,-36.877987546707544,-31.07025539546757,-30.44945004146824,-25.323570881181332,-26.87280447806361,-35.71428907663836,-35.177648704446526,-30.899934378386327,-35.255766564763704,-36.96017787495286,-32.57859799619372,-32.82271134907554,-28.018635812524984,-11.282995667824142,-4.567039718825178,-15.10032735738493,-24.60531537614849,-32.10606955377179,-42.10324685962269,-39.10353809376314,-23.670974033292907,-17.88323158630924,-20.578901991237817,-20.35890361460717,-26.32085169230578,-36.8301821060981,-33.57141177014829,-24.150761368973846,-26.24084949930646,-30.446590872784306,-29.814044603295827,-33.85301574047545,-35.039671910590535,-23.961316917953035,-15.788048832112182,-15.300101924388423,-8.318271745222098,-0.7649293197154339,-4.5679568690560135,-7.9886373012371985,-6.023919208775151,-9.425801851077367,-10.64352772274905,-1.5643138667578342,1.0951115829256295,-5.380172862025034,-3.5859411582648533,0.5630538205155426,-4.149279549296405,-4.673909147750527,0.244300965684916,-4.5245241530453715,-10.622774113192538,-6.6616658025253646,-6.334885257633935,-10.889790529519146,-3.9065394882137134,5.759076478219997,2.625453057883234,-1.0205662477079311,1.9510246957545216,2.0163577728624964,7.1609555555389335,24.323523849283063,33.75685145571041,29.571069819505304,29.622866311698488,32.21999352900677,27.119637542305668,23.932302840620927,23.051218661988404,11.594529414822006,-0.07377767810218616,2.3288608900822285,6.455225529437142,5.829805316242172,10.295784840239053,11.611364235471141,0.4560540296834237,-6.2951660686874575,-2.3189486863898314,-1.3873840830570843,1.7595523547334775,14.765819981941124,20.418147218175868,14.610708402249642,13.654209776258735,13.495189250357125,6.670507940290819,8.620629888660813,20.484070458489775,23.81156138161572,22.63201277903555,27.39629356392005,25.612663224529747,15.801311022831772,15.531216780299905,21.176389837332085,20.989708899756085,24.40993161244679,31.369807082240314,25.904147493543217,16.006214486153382,16.739637913504062,17.835419397174896,15.095496975798158,18.646345889458026,19.5353765200555,9.627301941484289,5.312309689565371,11.047371872968986,13.349348307428533,15.804442861322293,23.72618020955633,22.650217781747916,11.812755917508191,9.161746407091492,12.870495997582482,13.850020056405434,22.424593754374435,37.48402496195513,39.65162765032943,31.274538521685148,25.15218033944349,15.710056477526368,6.06583681274337,12.216689859206719,24.725633456608474,25.215090013384213,20.05774558677575,13.846131613710304,1.1152009035992148,-3.958908647238423,8.839130187607186,19.394972947014622,17.83593715303183,15.265995868920617,8.255157210775742,-5.216376379580366,-7.174983363485644,2.6173269122423948,5.87709725533659,5.539992107235789,9.674480687962152,7.614525743587134,1.0428931163784023,5.995196626632553,15.60681286514313,16.73913032548319517.667713822356124,19.290236348806527,10.113054429760613,-0.014285802304084605,1.7026701570048282,2.780333811774275,-2.2473385118040414,-1.6864294720958262,-1.1486582435714356,-9.715089254175487,-14.735964928052478,-13.417102168116724,-18.070354582312028,-19.571241098810837,-7.024071263184946,2.4085303583829276,0.41910058187528354,-0.21474723947498064,-2.3223688219205436,-10.83233019396192,-10.596881172446365,-1.4713131992364117,-0.15267510301129295,0.9882987142321781,14.109029978615226,23.72767830010698,22.123441245287278,20.7144332113808,13.667575247610555,-4.902944851289488,-15.28673551767881,-10.836643745775666,-6.509553626420754,0.047255779069848014,12.229067606555606,10.524868174524544,-6.777914622183112,-16.46048675079771,-16.79041380386768,-17.44620898910557,-10.688497819022754,-0.5993828580112073,-5.4331423537990675,-16.932832279310684,-18.874921240074297,-19.16545371856025,-18.74458018311158,-5.7605663781311565,7.362272308654623,5.3878513186777655,2.3729252546059225,6.514775114923185,8.204986200449325,13.028513164223632,25.611794933063358,29.23630923584035,24.577064690969337,32.65715197212261,49.010186357435,59.500939428534274,75.77331185830462,104.13441330379266,132.49916801445116,164.49246567664403,202.87220859161513,223.87548932808915,219.09711975261186,208.630207138961,196.89220104430646,179.21603922991474,167.60848450831153,160.69762367308445,138.98928388629534,105.32689327457935,75.01442726637224,48.04591954623936,28.304688732500146,21.21892193580959,6.557838115931481,-30.63727194714961,-70.27121430734965,-97.2834026792969,-118.12144693645688,-132.52003179513682,-145.44399036995856,-173.85521174332726,-206.41580394644873,-216.12037556208153,-210.88679227656561,-209.1125672335696,-205.83062643666184,-204.08671301739452,-216.0975233060236,-228.16782621712565,-225.71704827145768,-220.11317928136117,-212.67704911428626,-192.50183597420093,-174.692979622979,-175.91426232931744,-182.38951244582657,-184.71649228100043,-186.28293722524586,-172.83319720904564,-138.90514532901662,-111.36652077932129,-102.81717421331842,-100.5009662685792,-105.3408068466096,-116.40878556391883,-110.67407119744763,-85.11103110417957,-61.68752643809745,-42.109465083291205,-21.881201361592296,-18.045662115310982,-31.630922254648475,-39.20901224503827,-37.6407597109693,-34.244704387018785,-19.993779389235353,0.12365330947393538,6.015309358701904,3.4713163776630718,6.7088050591052575,8.239567240722918,7.398644119104575,15.397077033969364,23.3254325743049,22.14638608330646,26.963047992406135,39.81142290128927,43.21825091285391,41.80549082163415,47.92502154378219,52.45388564093864,55.453128636065394,69.59150381085713,82.04662381047432,77.58086023759046,71.30820952378573,71.40522767344228,66.98400790175,64.94072681401457,73.1460279708991,74.63667597479034,66.50156563515893,64.851952474929,62.34767498890396,50.17350415164286,45.85338211577583,52.914801315378824,57.23351890206691,64.88749103653349,80.49682336537876,86.61981060129807,82.27384892956238,82.55896781901372,80.31235061000395,68.39708539182604,64.40598155669159,72.80123785361353,79.05879381207379,85.44552625321658,94.1457848444631,88.84487401292209,73.0246034087775,67.75671577789882,68.02036048086775,62.96667288054035,63.658216830846946,69.89433723952564,67.79034811627629,64.74489820059578,69.5860106880517,69.01044814051303,61.588385779897855,61.20807029420935,60.76238476260783,51.46784557539954,47.96187061579373,52.577454850071796,51.03502041097178,48.927637832162326,53.276811054742716,50.748356032971955,41.4417707379308,38.98887931974284,36.59614699699243,27.89423324521547,26.890121019412604,32.84969785347043,30.755704949075906,27.70904638708164,32.76344336067962,33.780687596533994,29.547864429504628,31.138905604381634,30.547768437831763,21.78659353985978,20.131660267179623,24.935378901378826,18.842666059804547,8.196660858215047,6.09551896383766,4.70864175589093,3.366865247215207,11.04291068774538,14.609697459052846,2.9247881881215476,-6.450093610950449,-5.562838942260722,-5.32541073009366,-0.2915530000827702,14.05368316781812,19.11990649269677,10.457561325595623,3.5845855391993138,-2.579517097904647,-10.687967506552694,-6.5108541629028185,5.185735542647142,3.081418313029141,-8.600731997004894,-17.930073765996717,-31.531621605186984,-44.39811898347146,-40.828348848940074,-31.317321568744177,-28.41241806056648,-20.56280916383471,-10.825592105980622,-16.358342997355564,-25.268919194836425,-22.107358676396412,-19.52740507739582,-20.04316714289059,-11.41444129415557,-6.049696189293707,-16.20680612487676,-24.846060655774913,-26.0556276235536,-31.623950846742538,-32.62338365127324,-20.674137893359124,-14.90372484554976,-23.285340564388775,-31.680408781797748,-39.05120097696221,-46.526519235643626,-40.87413258769372,-28.366048725644337,-30.531028737746173,-39.85384522012515,-39.61636287882291,-36.519474851725775,-32.36570570986703,-21.049355656540683,-17.4328885186249,-29.238461760723713,-35.743667410889145,-31.699196342088925,-31.65831062505846,-29.743134740446756,-18.369810506228195,-12.127761254573288,-13.219153620350134,-10.642322680130068,-14.114601869855633,-30.2390524305922,-40.113388380231704,-37.88055060554498,-36.554586956097985,-32.632262614597586,-22.01200180309479,-20.552321717898415,-28.29205527116898,-27.361208295074626,-23.552913245569307,-28.738883531535343,-31.220684630106245,-28.391685180357022,-32.2455129977371,-33.20722672162821,-21.630166501648862,-15.59104765689657,-21.543135036834954,-24.700219915499,-27.354220184871174,-33.38089531129813,-26.796566596087217,-8.702145865531493,1.1114266880388182,4.207948576041056,7.762977502498235,1.727567554237659,-10.116500131761626,-11.525906938522112,-10.769858801363606,-19.40004478862459,-24.946715824997142,-24.034560652402693,-28.861890380992055,-32.79467155234633,-27.7943113282438,-27.433644449511725,-31.3516071904053,-23.706969432990398,-13.124389052976586,-12.56176063730797,-11.639254292084576,-9.147920576539832,-16.125088304265198,-21.58556476257899,-13.904598197985843,-5.9473409463939415,-1.2355963785483164,9.336800141827657,14.007711101785986,3.405495395106751,-4.596289440452684,-3.5944818918298758,-6.375670707181914,-7.978101995967896,-1.3585054158550558,-0.4912282817012411,-5.712624582955448,-1.6927468843075737,2.6989292227314166,-4.217789263441739,-7.7860633902049265,-3.77788237734779,-4.529562795323989,-3.4738659370126337,4.85369233066614,4.749032306340851,-3.086735207435257,-1.6117710037118216,3.7468191713431436,3.0541135975331026,5.616374197990959,9.77392304096002,3.548807636640947,-1.9345535697105114,4.059392854706012,8.188448512270197,8.60060887094913,16.62400175515582,21.02711524902084,10.118734597097257,-1.4548749808735595,-5.775708764801612,-8.439001028706366,-1.3694587691392899,14.737247600424812,16.624638039254002,3.096056951504063,-4.440529826369476,-5.606539527859879,-8.081954589821907,-5.614248518603025,-2.8684262343450886,-9.542094146155067,-11.63226351075113,-0.3857336167758296,6.246738366086784,3.912760398229894,6.454660493636374,9.970786941180688,8.526080719004092,13.077343075563233,20.488205254071367,16.741565162706976,11.845328814468868,16.095302741210606,15.218622009951378,6.940460938303248,4.8631086883254095,2.6969065265705146,-4.89946438056363,-1.6513544775730131,11.151874504954133,15.59157696812711,15.820442589182687,16.95253064770213,7.570339958485048,-4.0496966561899805,0.7443467259903573,11.02563294719571,13.240012907228715,17.328124025228448,22.89565416118451,19.165675005048733,16.78428090911478,22.450614430817147,19.616380479361073,9.72018268766801,10.214400103216295,12.35643875481977,5.3917728141519953.5461633984962866,8.972227222951476,9.228872485212607,11.705144436160708,20.727789723576564,18.0132797302524,4.1028278997036844,-0.9013783171407893,0.9986870067566007,1.6768232246563575,7.907491142736033,13.413261256826834,5.1005544857175344,-4.079322076443462,0.5224772548775629,8.900972812280157,14.768147186641881,21.58557094143166,19.364399166018828,4.797021566069333,-3.064518143635368,0.7049575018908527,2.5426704468946704,5.073613183878057,12.491559987576037,11.959798153259637,6.666061038973566,12.591400113840292,21.35127768292773,23.372346224370506,31.256449274863478,44.50887561266499,50.969030801056626,62.138409176985306,88.01728315078812,115.43783458624398,145.34716429182183,188.80508193596148,226.82356998695553,237.82131427618089,231.1961780458758,214.76943193953963,188.4308636495399,170.0969823146113,164.02744206534038,142.4964167021385,100.20949094022173,62.273095583601005,34.945318211091255,12.218756810440201,-2.851427682505446,-22.04539719160101,-59.135061828770404,-92.26662388814268,-101.47597045687432,-105.68275911922164,-119.20718234822516,-135.76753067192652,-160.33798287209808,-191.11120051180464,-205.21124959842652,-202.18154895189886,-200.9262904394871,-197.09286242619393,-185.9319147971346,-183.8267889056267,-188.63343297452946,-181.8717682032782,-170.05451103640019,-164.16011922586137,-155.1901466875314,-145.8575063977875,-146.57744296617682,-142.52348753351615,-124.18788314989465,-110.45182563045213,-106.13059685414083,-97.95131489666763,-91.85006760501174,-95.18259325727558,-95.41016215521539,-90.78287746478068,-89.00903604179183,-78.24020988706255,-53.944425897044496,-38.405192659937455,-38.33307389273861,-38.563969069467525,-39.21382657460768,-42.54694124014905,-35.15588319873529,-20.804485910368605,-16.301734265451746,-13.029099267125284,-1.5593931872608815,3.283084065605112,1.4500632867091043,9.35361856233177,19.94681197669147,23.206990337058,31.02498783619153,41.83881725636029,39.386837837340124,31.00941156736434,29.21135268149616,27.930482290811916,31.90976251118463,51.740771307763886,68.68495468065984,63.48964041225629,48.882621686722274,38.07955481322686,32.804830240410006,42.19862047514502,62.11400296416643,68.3774622040176,59.97399967270505,56.10669410874344,54.5118691904218,48.380531769750604,49.399558104746696,57.25305354403053,60.531858520995314,67.1562388383929,79.3943030808361,77.9921019440907,64.64508751269801,60.0470764271337,61.733819962303514,61.96939996616399,70.4537021369572,82.67420751347998,81.85473337089988,73.95981466142022,68.37648062429635,57.766376663982115,47.33205350345306,50.50257704826327,56.77165361323238,54.56324327886625,53.992690596583216,56.682580827429234,53.70561090736619,52.792110763751765,58.104986459962106,56.172069970657965,50.343240258688446,54.29281081517924,57.33644110261936,50.70208598583737,47.110854599289354,46.3153112389397,40.69419765728445,42.5343403901628,53.76306597943305,53.2902737571881,39.441223257940436,28.46996274321455,20.60815121720244,17.11301016038272,29.454499177467618,44.87162382469073,42.136532436636216,32.832219216123875,31.57328743263135,29.312003091809828,26.799803513639812,31.88819477972457,30.751060247663293,18.05847777105687,12.043649440084879,12.597984867460125,7.315157268661597,6.511512414819882,15.405970114653153,16.2289908817961,7.922461336722755,4.151790725049745,-0.9119871345819857,-9.89315814953455,-7.538410182863096,1.2523537468570063,-0.33979910259288415,-2.906147091293269,2.9881338990050343,4.693595448134228,2.042818589206329,4.954141513588618,2.702125966486099,-9.620402300954833,-15.011495699582628,-14.49793558721497,-21.749018572713148,-26.33840189717296,-20.115093829151412,-16.78408230324788,-15.912095519661882,-9.770862612661425,-13.839850054650412,-32.58962569753637,-42.67881806723279,-39.48648714491469,-36.16071685314844,-27.832931287171263,-15.699322225404007,-19.359157791482364,-31.764307939863034,-28.944945009677404,-18.26729901402607,-14.504181164921626,-13.023057749491118,-19.09105137369712,-37.36266392752164,-42.42129420340768,-21.461630319342998,-0.20277089815543015,5.677913546473534,1.2119326726626372,-16.129926447839637,-37.564368873145774,-39.35266080751178,-26.406814620123885,-20.656491279202136,-18.73231223599529,-15.321754056026688,-22.041927020974786,-33.1931665289456,-33.37957479498441,-31.894953205188074,-36.12721393686557,-33.52786344830392,-27.547714612470827,-30.398457478671645,-30.295784370824443,-21.039610643320103,-19.58942630496365,-25.902275544179112,-25.423908346570308,-23.975548756217705,-26.795366741210106,-22.32621263945963,-16.46330645282681,-24.187150534874093,-31.87339792037556,-25.77139016705572,-18.07341368605715,-11.308760473722568,1.5306060727636197,5.937054994175711,-6.6354736174515185,-19.02333238222096,-26.398751240854054,-35.36742563250998,-32.98571621039782,-14.553494788399018,-2.205246848903048,-3.812431212202566,-9.525210653605168,-21.331122287059994,-35.24097573124379,-33.58089975197595,-21.25653306967002,-16.189684094802907,-12.131752006044035,-2.6614113190733546,-1.0881796398721724,-5.855857480646,-5.520211740354039,-9.794564907664801,-20.930621612467924,-20.568571704169837,-11.82240048372758,-11.313391135093896,-11.887111694948926,-8.487031139443381,-14.684831233420061,-24.329054109787094,-20.09795434930643,-12.117418765664734,-10.880717705321594,-5.982456219525314,-1.500562213142644,-10.191265307761041,-20.355836129817476,-22.318719497741757,-26.29392233524687,-28.13780754295349,-16.595674873901174,-6.016904278433685,-8.077198236852608,-10.45090079739223,-11.01838328343338,-15.749081247172258,-11.847544509959661,3.5752272566382803,10.715639982253382,8.393457123352484,8.630754305181163,4.052641048794812,-6.756429211991833,-6.7124435459686875,1.5906167818684467,2.714456867415457,2.5993140557863024,5.24822245945226,-1.6617800601756896,-11.644155850084296,-9.050849860834777,-3.865521652792848,-4.5575145727493345,-0.4601955438765315,2.948187557012161,-6.276338601774949,-13.340328926617548,-8.554204537718224,-5.450566203265723,-2.9353335408989585,7.289001584359657,11.684345460598669,6.415585120124381,9.193053490781015,16.763184246680645,13.8797851306439,9.652469933340516,10.868185851016976,6.910341206024712,4.8848080569220595,17.45758764720723,29.170255905653708,27.754753577188232,24.657599890229275,18.96716304437588,2.7210090282110784,-8.240892065790499,-4.8487367922628275,-2.170715224745641,0.16419878360484286,12.011305208599575,18.90502352311146,11.519723395529752,5.120866577095094,1.363364678249644,-7.446091364677093,-7.348787047013058,6.677377452197268,14.650839702532213,14.262048634781795,16.71604353428879,13.23267654416652,2.4806312715438237,2.8093492486218183,10.757512161012668,10.906950239946735,10.5232914395522,12.542841482116904,5.43375708600312,-0.91169820744246,8.074561337079196,18.188814390161966,18.399369113123768,17.32789977569393,10.415246573076164,-7.9159641441673365,-17.739967474113143,-9.476888619233403,0.23098970373480165,7.639950915687382,17.648120543352366,16.651504633247203,2.3588234797108703,-3.9420499809936445,-0.1600742717550463,1.6546806278767108,9.215334064272174,23.915460064394992,27.724729747450766,23.008523383943174,24.011987541899025,21.937331805094086,12.540939389799593,11.464842672302902,15.867971150747575,12.736248243693536,12.080088724719904,17.69801523638756,13.330817348498488,3.160657455418473,2.6135963258459696,2.8743329848489463,-2.026816251854158,-0.21173490675639384,2.1229907901620226,-7.750627682618874,-15.57425337827952,-11.371086132994122,-7.915778002781883,-4.413777147909229,6.49104763906657,10.078681488382111,1.5829043426985203-0.47981171627443375,3.5061083460496056,1.0394366173640306,1.021857116947972,7.363439544960791,5.427659051084381,-0.43717664767580766,4.4076322834644746,9.86811887184752,8.348954346058822,12.679560101094125,18.553574817048784,12.166086979226208,6.187202660836155,11.234817880404055,15.419408469301313,20.897476331425906,37.587702257469104,49.745237076116496,49.30692438162029,56.74404605483241,76.88273491013307,102.46315202197368,145.66906987249854,201.2507703003243,235.07102390767326,241.02807405010554,237.87660469715848,224.58522121600433,199.99495319703712,178.3172193826762,156.24175997166915,124.24578327065822,98.3663914186687,85.951271262155,62.62453759827621,17.781988177115437,-32.17657549822564,-75.50716147971137,-101.19483017753404,-99.27189857535575,-91.27809309355334,-106.67888838931289,-136.6985562335882,-161.28965732093664,-179.9902508509711,-187.89271594926296,-181.0501637083944,-178.61177488752418,-187.192954252025,-188.4038869948771,-184.09198067827546,-188.45674818340686,-191.2272047040906,-184.73245327088713,-180.6620949056709,-176.08759714553915,-162.3450264426864,-154.03242284479455,-159.06379692197453,-160.89974904602008,-154.27512692749488,-145.20363642705297,-126.2274082319585,-101.43419163755252,-93.35757111467743,-99.06506082743896,-97.66151082887447,-90.72253590067373,-84.87809521999569,-75.02119358059622,-68.7655072317109,-73.47088889120859,-70.59355252981635,-51.43258199176938,-35.0966994482789,-27.68529848055211,-20.344860351029386,-16.930610828023156,-16.715168626958043,-7.375896575517794,4.687525683459889,6.541140017479043,8.28891906732193,15.679028108331803,15.411074672645313,12.46015639774069,23.356287918557662,39.70095835495533,51.73654937828786,64.76074357218516,67.18051604340664,48.016066534151406,31.14347440246686,33.764123687683075,40.87916672036025,47.295384282314465,58.71054365621693,63.625265874407596,58.717003992936895,58.24648260087816,58.87492754482056,51.12225266309271,48.13628943979548,58.73172103323235,70.83066747245115,80.33786584109924,89.65230372128632,87.33233119392281,72.28881287892604,62.63826029103065,60.59372375045851,58.771857877193966,64.91569720147723,76.33469843822647,75.066845646752,65.15985725517983,60.31078057999353,53.99558392590154,45.931231095834825,49.732362578803766,58.07043503555893,58.29871744993032,60.699081558880174,66.49747027575084,60.708559244946585,50.28585292010094,49.39230687605176,50.03601283202213,49.95091251092752,59.285961574144395,67.29908608849122,59.75943285710562,49.757470204444736,47.73145413074475,45.89472115997447,47.82897063517947,58.42938519003727,61.808569556385166,53.55713952050246,50.080041278440504,48.9656993351888,38.69801863100622,30.76233609813836,30.84232122855749,26.03664964124127,21.500915733960483,26.324135759564943,24.636223646422795,13.608019090910537,13.947208306399748,22.956168429887143,24.738889022502832,25.930611815431554,28.257683315618355,18.440415152326445,6.046363812084153,7.644273730590955,11.719098599843235,10.660665505798022,15.681887775843256,19.78932245607878,10.195725063198399,-1.4876475522865653,-8.182596901652845,-16.29233763014419,-14.524158915180408,6.2518167019468605,25.02527793913746,27.077206594877435,19.993453430482955,2.6361049111064476,-22.579475696300086,-31.879150935957657,-20.452233072668527,-9.588476963885455,-2.6258753083298085,5.232492788156412,0.7728802788018942,-13.49810308798498,-15.312814171688247,-8.597580944899747,-7.815960768289885,-4.220819850741553,1.7255159044083714,-4.936283979671152,-13.022667451017561,-7.439191288735907,-3.309218070422001,-8.436143977929152,-9.432155771562954,-9.677809351133844,-16.663784214679243,-15.98242495581005,-6.645472130799125,-8.30499726097257,-17.073194581862882,-17.97932495545773,-19.363981939315668,-23.928771947375488,-18.491277958759337,-12.227708728560163,-19.68814084212056,-25.707837558466935,-21.327966535588683,-20.82987528113877,-20.98558397184069,-11.75171503613631,-8.709153995030453,-17.901743859849905,-20.923253989947973,-18.025401188923944,-20.034320343430842,-17.213747641402467,-8.3511736255003,-8.307541948386465,-11.158662191593853,-6.669878530594286,-8.162894172833106,-19.96823843962999,-27.509002605161385,-30.74123380329847,-33.86342155649743,-26.97055633596549,-16.139510546600043,-19.986926206428677,-28.466152538946456,-25.387174804927106,-22.305247044797515,-25.148005451789896,-24.35042020887443,-26.616293519824808,-36.33503234948454,-35.81327012252447,-23.34851492424835,-17.21816560627308,-15.252415861981369,-8.83785076808613,-10.8935935635382,-23.553490612417654,-28.270197884933935,-26.06932542276771,-27.928329591658716,-25.008400754111033,-18.050277345117344,-23.650371607420247,-32.51032807989189,-27.541405534248533,-21.078615546909138,-21.542978555305655,-18.146843691257974,-17.204733589074607,-28.473513775557375,-35.8483755971554,-31.684511616358,-29.23798485810181,-25.457362228791183,-14.150311396747027,-11.701870883021105,-20.902645696862244,-22.880176313235733,-18.90878333874539,-18.76438220703045,-12.696035204449176,-0.5032900546252255,2.9412264871384024,3.7028164846631197,11.681666629502248,12.807698498862433,3.512278879488252,-1.4395076851408208,-6.95569132958465,-20.25975610277329,-24.572869014833806,-15.870222434208932,-10.347794627340882,-6.731510961874701,-0.39990176231100394,-5.089551846008392,-19.13716089540896,-23.906765063968095,-23.665129456640756,-28.14114119344058,-23.97520191841443,-8.447414280603985,0.6218656107840863,2.0049882648927704,2.6728288341685076,-4.066054577145959,-12.174444303793358,-3.8781186638948397,11.67341564762134,16.42867834167024,17.588759860313992,20.493763583693056,16.256001705190897,11.296939798501079,12.992121937160798,6.980381210894159,-8.244099198356496,-14.760151409354476,-16.583664902366525,-24.749652946454937,-25.42811461768903,-14.39330442656095,-7.936398071605671,-3.0926473571548625,7.79987997321774,9.500185557688123,0.0025637343834650217,-1.4089274683913964,3.0480006146454888,2.048230095579264,6.303539556693981,17.87308518975839,21.463278921844612,21.93797471119103,28.224979247127237,25.52235359236773,11.153297452639952,2.7205955923070118,-2.1558434022224526,-11.172054541109112,-11.379455340908041,-3.7481855761245058,-5.248968056041749,-8.19749863663401,-1.512186755168495,0.5150648625533918,-4.983293774430546,-3.5419758138928072,-2.0894910532189344,-9.794750385127339,-10.970312014509616,-2.2854769646024233,0.5857496245268368,3.3410721522498,15.75673906244631,22.632247963721298,19.236886255808447,19.559194595121696,18.48654734082521,8.514286525736042,5.423461616721273,12.59418772483361,13.671058654390414,11.363614637802801,14.295237698147117,10.833404309427486,0.6530499560002618,0.16322401853125368,4.194086805741761,2.1287323390913517,5.432536839860354,14.550808665129924,14.045855474122309,11.105619112268489,16.689854082586344,17.816074176269908,12.621572675962081,15.940836669829359,21.415650839940938,18.939143733257637,20.035154564786854,24.958294016692864,20.30717667782336,15.126168455025525,19.962380560225135,20.27224500676927,11.095010003067303,5.20483698695587,-0.521431604397147,-10.27680306049285,-9.367863199355481,0.9863467632223171,3.0697219138556417,2.44862714991422,9.19025417524313,10.367984568047401,3.6065864002243915,3.8655217393270958,5.897211893679133,0.8192809956926608,3.198454586172376,13.815522387062506,13.67839666442039,8.776464103019453,13.232041161420149,15.626338269439094,11.948721321272759,15.071985874651437,16.986694622535154,6.36218327911905,-0.5493193529915853,3.364044579566014,3.3263545180567937,2.6101643734523865,9.551404167039525,10.252583225185202,3.6349111703758827.333646106462833,15.906169277623327,17.34827230087042,23.145696700954534,35.73243688785237,42.839318769902235,53.367854360630496,76.82244573743328,98.29026177822303,115.64744882474193,143.03675678175287,172.1047754639066,191.82517648999715,212.8141109954759,230.46966394549176,226.1799401938748,209.32022786138089,194.24408639590362,173.00130316664666,148.61598590300179,133.37606942869917,115.37074497305716,87.25333232112796,70.13257807241801,68.944916554457,63.30701015647844,48.4860083729471,27.09292689488272,-7.46562585726539,-42.12663574949588,-58.172353875487886,-72.6076480077414,-102.08029496004235,-129.0395785218262,-144.3985408378195,-156.97907989495474,-162.18343770082433,-163.46098741166938,-181.73118521186052,-209.24105241852882,-222.0952338128343,-230.9222152254762,-249.84175945425807,-262.6390848553192,-263.54018227691796,-264.42147065567997,-260.58828910388655,-250.91495653891772,-252.8539375346239,-260.5756340099739,-250.313649703828,-229.5881644342282,-218.63994105925394,-213.45767801844374,-208.25527646419877,-203.6586036674317,-186.15916755860707,-154.26263191635445,-135.80442323261244,-138.7993576486865,-140.61656192606017,-134.8277604849082,-126.2750305810633,-108.61199689845303,-89.54422045611916,-83.97040355061004,-78.83189783353234,-61.823409700618726,-49.103058339071076,-46.010375966059584,-38.751910012158866,-30.10999976741602,-24.43878914065939,-9.317632626347738,10.329805943758913,17.19178812239972,20.800327784628333,32.6816088847905,40.269343460093395,42.412141343131516,50.64810958149803,55.6298737987481,51.73067049774244,57.452255876642255,73.46414305114311,80.56104844879918,82.14927160708267,88.12544267177762,89.52215325208851,88.30800123601794,97.55259732078216,106.09659274431058,100.5659778218627,94.93398333523149,95.55102746395086,91.40293187617638,90.30352510282944,101.21928587465696,108.21887663094878,106.19976756671834,106.64071255895512,102.93857831111772,91.26832356469255,90.74640153745325,102.25693628870661,107.31021558346069,109.44637169635169,115.12651220522883,110.98768808185201,100.54909576595611,102.24510492712098,107.4701335068292,103.95319434254006,103.75041304406537,105.81668146767319,95.76562185368196,86.15050690584465,90.21779911278514,93.69129130601105,93.511423714215,100.80662715006386,104.4763166631719,94.06896324716212,83.79254614384914,77.7270968522769,67.20987403674548,62.3636270049322,70.30920006809767,76.19984780063396,78.79027411477156,88.64508730020677,94.05405585440667,85.80034978108148,78.86308160418767,75.41217986452784,65.20332364045333,60.23093958120896,68.44893257667704,72.02865019969909,68.41394297612496,69.81367143170442,65.21436842411362,46.66585512314889,33.530462526906675,31.782596326295497,28.73636056280438,29.305881684800667,37.87972359039774,37.89007396173592,28.71398088346198,26.90873709297928,27.12015910655539,20.5089695984732,19.305677217972907,23.661255858303953,19.938915108281375,16.009432258877474,20.3796768296805,19.690406408957063,13.52922084763168,14.69177492248657,14.212734806088845,3.4576008716688578,-2.988973282931037,-2.3323321874509797,-6.328694614227966,-8.55802230139307,-5.02574306505309,-11.500953422922427,-24.565662991138414,-24.984867859954676,-19.787642391492128,-21.23479196525099,-20.313247624067174,-17.47087134215525,-23.089099771430234,-25.786806168390136,-16.739223571628155,-13.530259507299244,-20.951618125350986,-23.963970140299736,-26.221238875263754,-35.28045262274275,-38.44279505398993,-34.2331269252447,-35.32001270729671,-35.073450941500944,-27.457906816961206,-27.286187805093732,-33.945462073028025,-32.668592789750235,-31.98988188092256,-40.965714426389944,-46.16746039589254,-46.59514099633999,-51.85183283671121,-49.869226679914675,-36.05615953474251,-31.3517975669042,-36.82130014697194,-36.3195502442656,-37.267859814839554,-45.736115104925695,-46.06877118890063,-39.9758489365978,-42.46843258794657,-44.95651349930038,-40.206972973633,-42.18165508992553,-48.25158479969519,-42.96076009710193,-36.730184038428646,-41.83014642381538,-46.400448892974154,-47.219996580405606,-51.73594550149032,-48.83096020686802,-33.62645159583006,-26.45706537919667,-31.867084187552127,-34.626307943515314,-37.51061593883281,-44.964924180821086,-43.61161103289567,-36.14623723238692,-36.90760353509421,-35.71257550048887,-25.017795687718163,-22.159762893784304,-29.725641492540284,-34.927191858127024,-42.91539218127085,-54.31209420066586,-52.119360367837785,-40.940443574602426,-39.24515055425075,-40.33473272363461,-36.11714620764368,-37.6493758818686,-40.82082816220783,-33.31198162016625,-29.27521562999345,-37.72766687366577,-40.612973469385125,-35.075674888410255,-32.47793900738134,-24.534954225685173,-10.312087650773766,-10.854775914364645,-25.10216815556536,-33.050271399359964,-37.28262147314126,-43.57436388370964,-38.964718375371376,-27.73560369275357,-28.675284912526436,-32.85278669144801,-27.68501037755268,-25.975167023614343,-28.607366607666666,-22.207566140686104,-16.71769257595411,-20.81593405002398,-18.4818382162379,-9.439110588776176,-9.725459088525835,-11.75852289112326,-5.079619708050945,-1.1447708802225485,-1.6138992393952218,1.7042782478464815,-3.198884516913888,-21.60449949742575,-31.60822471198307,-26.628609013481885,-20.756426822229443,-12.463156003829054,-1.2164257695556158,-2.235413489168276,-9.436159247263527,-3.7165360131536143,4.945619528686212,2.782682548380407,0.5679365532686425,0.3422391860044065,-5.897008382257415,-5.1886995677843615,7.92367610925918,11.833823661093138,3.54765491341681,0.5510739915629854,-0.32318461619235855,-5.160541953057995,-2.5121749315501836,3.9861850883758447,0.951750405579274,-0.03815633521667256,8.835868498093673,10.003722617100252,2.1580485287503572,-0.02740526735143678,-2.6592670082381527,-9.834226355422665,-6.259532628210607,5.38811695887866,10.159000576120258,16.388912689967842,28.696283729307947,29.056387571791213,18.57735906864552,14.816883285643645,12.040887647859298,4.5437818597849775,6.142213217499807,12.535225858634309,8.38897569706264,4.589046444462678,10.355624745439206,12.852760273670038,14.112033126921705,26.179826106687408,36.553290594385324,33.94342802849939,30.09976101133011,26.020881027947087,13.152265099483092,4.242433281224973,8.399757705518038,11.787653490375995,13.9070688766977,24.82778543513383,30.755354856037904,20.671222248744655,9.378790864390579,1.7969131996687293,-7.488752413050408,-6.106421810441805,9.21036751522898,18.20918424953713,18.331765845978616,22.20359969578005,22.317423332843553,13.744921478266967,11.859992081989976,16.420427264313027,15.67400413060178,18.564388104550495,28.623711894183455,28.28205308371059,18.577720400015203,15.586014804917333,14.22057466255554,9.59562403745884,14.112560873038609,22.711640116119145,19.84907454311098,15.886162260144763,20.311222482910505,19.76111068867654,15.385035578992696,20.174990243776065,24.2385996946371,19.92716603994996,19.402797356227772,18.782781206661888,7.199629000494946,1.2661025861292254,12.61370139009003,24.546940957436362,30.972975070149523,37.13412943841576,31.296715911982144,13.60855804145355,8.420662111852614,16.343082575965543,18.385742612900447,18.940436001415193,22.74838165903651,16.002452495418332,4.71745894565451,6.06074899904009,9.559568658508892,5.437344911261791,6.130725862312993,9.585930848381985,4.577620072346936,3.6172804792763165,13.535132001864339,17.651771681867267,15.39136939195344,18.384905495627414,17.928152662487367,9.842327413710743,8.266640452992874,9.133158863847846,0.23994806612967334,-4.058370485513227,5.858551869390778,13.099594944920977,14.06232983348532918.97016696754514,18.966152953965093,10.520140618540108,11.485754722240996,19.73004262578095,18.51668561219128,17.682295296022044,29.19584186837257,42.63691618253004,57.988121415825916,83.73043174792235,108.45917857376051,127.92008488704217,158.8525282766222,196.86259703888715,218.99809631738668,223.66250377215937,216.2882892084316,194.52747944184387,175.06776195251115,174.27938883133686,170.3209488558411,142.51079489556355,104.29052273620835,65.64578364710042,26.20289355314496,-2.4989491521249523,-21.561064848710664,-48.11814470360704,-74.44964318491489,-82.54187755166507,-84.38793401276399,-98.60723634805404,-123.35249254545575,-154.801744191985,-187.7720080105886,-205.2801466529603,-206.19373729802263,-209.7410130642018,-215.98151722722204,-213.09762463507585,-210.1738971348619,-214.44281626502982,-215.6194029542462,-213.75617661125978,-211.91572822055105,-198.73940882938754,-178.4624536156325,-170.82274636303566,-170.57688175844805,-161.73866959535692,-151.3722132121668,-147.95029744484452,-144.80989214874805,-142.610226488736,-142.9549480707607,-131.20912318956968,-106.8511597762608,-91.80276432368814,-88.4575056482841,-83.36177244691032,-80.49010745185184,-81.91350888976837,-75.16076694828908,-63.528184490345026,-55.93038906674219,-40.98898025467359,-18.476404124372372,-8.994739586625192,-10.847624059605796,-7.145839103338495,-1.7288652095408885,2.1133735940980727,14.1233838802258,24.825060455976228,20.33391066028661,15.99253081480023,22.72680099602305,27.06902650494289,30.41881730297647,44.154618897260676,55.32054610339743,53.60171995893168,49.84893670919124,42.43214764267627,27.608638221582147,27.781961818138594,52.353523216343575,77.79386498061426,91.76880163754731,96.5608765187375,83.40847299913982,57.41646398142978,45.61003480458738,52.2834672975203,62.19791575257034,77.7408153434553,96.22392660454935,95.54525083832482,79.2507458185459,72.04067435824187,72.5397206119353,71.63644275127898,76.00800124512475,77.80909961990545,64.87570557222944,54.87778067938925,59.75013070379647,62.34868531585257,59.72569283744798,63.963543345655566,67.5167722645566,64.47687616732199,65.92891562269585,67.4891993986535,58.070899700216216,51.15406312400225,56.2157150733585,59.62439111429366,59.71732903236292,65.06972748250008,66.2775652467959,58.451175252534995,54.986497740461516,55.1116496078065,48.76387996899944,45.14038884060814,49.24644796881384,47.921673439348446,43.53776257324099,47.02989653666671,47.792985982853835,41.109117785213456,42.06405515015424,47.09212743802308,42.21746101673394,36.76519787270716,35.90255649910957,27.603935940559076,20.209571084428877,28.568084710345442,38.39955880036046,37.57872338916309,35.05663602633615,27.696209870644402,10.479209948971759,3.373540592345245,14.32604012859229,22.849060297260014,24.722897839810518,29.214567980002005,26.7920753906169,16.03368587693707,14.504342505502905,18.16012400408143,12.58103426180159,8.278149071573717,10.67086690534411,4.411112479490959,-5.566350719456485,-2.7391695212647074,2.2229510262592083,-1.3594860288941675,-3.5747451922368447,-6.983931259638527,-19.39926998354137,-25.99805779190048,-20.557775458679153,-20.113427442022598,-24.393903315376818,-21.009285806017335,-18.721995151352274,-22.352549703212524,-18.859814010639766,-12.351189586308543,-14.04251938277589,-12.848666007289271,-5.757847601820652,-8.449365445432914,-15.258599416569128,-12.289739413289954,-12.173586573670047,-21.319584254123644,-23.26211877920781,-19.644782002087325,-23.093948658207303,-23.874112049303946,-19.380550368618387,-25.94520490175386,-36.26270308235239,-32.62483004108107,-26.19541039583798,-27.773993606298863,-28.22017155341445,-30.956096758830647,-42.84585636991633,-46.5228717849247,-34.53612107607472,-25.849291710541664,-23.611302388926877,-18.961409361633827,-22.018451336246258,-33.12239232194608,-33.41829413436048,-27.852262700812958,-31.127837264147797,-31.06361941530968,-21.135348649541626,-16.406792369466302,-15.414007213779886,-9.279495957455381,-11.376411441016328,-25.10433731920489,-29.850794562933636,-24.58957650745568,-23.27886454375411,-19.23897158655105,-9.791199075290796,-11.057760868886051,-19.85918216331616,-20.830633297807537,-21.807193025022634,-28.74466345043853,-28.043242217816115,-21.749248507469837,-21.809916608359977,-18.542781003099737,-8.76646574823149,-10.812623248236012,-22.06520388499277,-25.170280431992698,-26.521958032601447,-30.752856956912623,-25.320337836906504,-17.96049658276563,-23.549769695019005,-28.59333718040737,-24.643421811138413,-26.323212109802252,-30.414277222033718,-23.521720705512195,-17.50279709861273,-20.21164688868129,-19.13664707589365,-18.86152524187267,-28.932719179558653,-32.57281596323228,-22.603787358255097,-16.174935431563874,-13.62366511206594,-6.728348136658862,-7.237012070263355,-16.562254853548016,-17.315832334010576,-13.617917383211342,-18.754972766177,-21.717049682571872,-16.301685456468615,-14.921971981946404,-13.783612324082553,-4.6767373646044454,-1.9928406033851882,-9.197762198948027,-8.945526469815697,-3.8142286574512947,-5.776845378916715,-6.133629107330613,-3.3320603081696296,-10.026448468604354,-16.625370709953405,-8.70723038036465,0.3365042025940914,1.9472152553857738,6.417492859790338,6.8617601144672875,-6.5642274950725295,-15.607501619874117,-10.499001555760366,-6.466895048931626,-3.0526722330246914,6.367191747742437,6.075369016527617,-5.8898888478325935,-8.457503578514313,-2.9589433751908154,-1.912329910503052,3.1623995458724634,12.255423575239767,9.90335603739302,3.9821338342781925,9.099610437766243,14.254799530229478,13.724775751952297,17.99735700724879,19.33114595361129,7.14420381540547,-2.4177656742001403,0.8120366956270679,5.042446293146865,10.459816110189623,20.792736058984143,19.45498791380553,3.427241642149902,-7.465156172982288,-12.171540352029943,-18.232375092009946,-12.313016119955876,8.186722768004294,23.495991892787472,30.87383852300837,36.2936308292791,28.12946156244567,9.13194426309667,1.7307866115451485,3.5382139439480986,1.436092165412799,5.098978799249486,16.00607223095273,17.788875102689467,13.999905161017942,15.335633178733792,11.927690636657893,3.5191391422402987,5.821985464769548,11.822491548444209,8.623350838536888,9.245147622300383,17.851850591904572,18.278367587983745,13.677062591173579,14.700889468712154,12.022190701021641,5.714019599619905,10.10200350713702,16.833045983520172,11.837322264898546,7.302757878498605,10.875815448473933,11.338567576315421,12.341621356450645,20.452150056138212,19.689382026394682,7.270688204782063,2.8388906600031665,5.87561907185484,6.4656512927146705,13.320835285732269,23.17349795292286,18.261032621251374,8.162410496737767,9.249857135886012,9.699622529072084,4.00590989352661,4.873548148732916,6.116754553387058,-1.6894232359515349,-2.877064552895158,7.340455342186681,12.352298070899167,14.885125798618468,23.71366809241731,23.530888852125017,10.560447549983788,5.2074724202595934,8.711927397913856,9.961403610321252,14.871307613615114,20.18026624263024,11.026092220954892,-1.3315770697735942,-0.5261476753211012,2.243462006788478,0.2686426167192877,2.579298600128193,2.9529024489910265,-3.5462133310594885,-0.057040469848884445,14.73285903438012,21.52836108539785,20.085307311063485,16.801554079501962,2.8345979915899924,-14.158442603747693,-11.723558492045315,2.5748321644914762,7.939984371114614,7.467256012845411,3.4665856276867935,-11.000669886294498,-20.92800310600781,-10.710609003472216,4.365903725615162,12.973269029406168,22.929135148093373,26.97609334790295,16.835210085737764,11.349312812083385,21.150359306015147,34.12512497305478,51.9065658534436980.4547955157248,105.88866042888208,127.03296780193665,160.14567390080197,195.9046300117321,214.37276970089346,220.81695920313825,219.43299769929692,204.0789659206479,189.03952247463542,185.72121823566766,174.2331604572414,145.56968364345357,115.98285720733253,86.29115736036252,51.37689684680208,25.301689455330926,7.469297501301223,-22.910564609110203,-60.51879403361735,-86.09563386165279,-104.78251872667097,-120.31991980378437,-124.47096697213235,-132.66165092947568,-163.42216060654147,-199.80426295639785,-222.22549658611354,-232.92362825508127,-230.84013540516173,-218.64860153781905,-217.43985361026836,-231.02544514040855,-237.998617014973,-234.23789028286092,-229.03825671181733,-216.44094579793818,-198.17843328292255,-190.13859513583307,-186.97675791524267,-177.69802617870837,-173.03041843430594,-171.09929650743345,-152.85408551913736,-126.02390580437192,-109.73237164530524,-101.11281885013193,-100.85327051565449,-113.90265656455183,-117.81999579953481,-95.86117489660812,-70.04138036232294,-57.58931327019378,-52.02455637593113,-55.07698034993904,-64.1685470023377,-56.219826279703184,-30.404813179323924,-11.028863157478842,1.5416811526193084,15.63732529015349,17.452277232852932,7.406463045824833,6.379986791196281,12.709720907707917,16.83877993363196,28.21260406465211,43.871796432745874,47.037301569898915,44.752424877023344,49.282176976830776,51.31978753533063,49.774301176588935,56.265857919025244,63.515513308019216,62.46873407905905,64.46525779216535,71.22300014920773,71.0703249679606,70.16218788764928,75.58714699854545,74.95643418854655,69.83633726450363,76.58179868257731,86.31339519767742,84.4278267058925,81.65099595853854,81.77494509548119,74.7697596926488,71.631958224307,82.8054293097893,89.76597088848662,84.64329630070243,82.62888334811521,81.1242166862812,71.48369668413717,67.61756737699051,72.27151905245233,69.28129149186445,64.95581215680318,71.80957975529293,76.16766771049606,71.77316562557945,71.06875141814915,69.2227950163092,60.00337483800149,60.27426398430024,71.02925318484081,70.96471751059809,62.238775281273426,58.69697440112702,54.897656223858704,52.777218542062464,63.77044281432652,73.19270605641285,64.97725408879441,54.54216065997748,51.89649970051199,47.7622064069901,47.281709082271696,54.945259334582545,52.93456396029936,39.71387547252855,34.75364687479413,35.28986472020143,31.872552391005346,35.85578655540423,45.67501948968231,44.5873071572201,39.3034549008849,38.62002218067688,29.0280254726973,13.840599393338575,14.195282613944341,24.0873679981085,27.948745867769492,31.18532472772903,31.23314616976306,17.31373417890845,5.661052973363983,12.109875579977212,20.623352553757115,21.711267024034736,24.196801063787213,20.632091642121942,4.458239420017684,-5.840376413967523,-4.0815188984885005,-4.196524812129301,-3.135363034527699,2.9452657610131414,-2.238101020675541,-16.30898175312139,-17.62971171840693,-10.585629883438187,-9.140746400796507,-7.430113669863514,-8.381220758656992,-22.728885615869324,-33.919292435856974,-25.970266694649,-15.122422478340484,-13.081813350740005,-13.775130505772955,-22.120411912609477,-37.805174329396806,-39.60728415657164,-25.071763439103513,-14.884823959693303,-12.199084194561943,-11.35401555754304,-18.357875056628387,-25.957481641667993,-19.495011140972053,-11.913105808727817,-18.340222302017494,-27.076791298082817,-32.96804078331926,-43.637513963062524,-48.16599716665325,-38.84236875977635,-32.171450587066275,-30.83735685382882,-22.868142078653555,-19.07119664601534,-29.57815371907201,-37.54844317824913,-36.161545895726874,-35.71130514817125,-30.408265805924994,-17.26681745989952,-15.102379310478122,-24.76706872427094,-26.935166443721727,-23.598734834923768,-23.366612896712798,-17.722381964155844,-10.844662030444535,-18.595662723861675,-31.103861185497454,-32.21861675809344,-29.136635316062485,-24.598952555732144,-12.007496526437706,-5.959603002754964,-18.07684768139715,-29.784217400147494,-31.34663484607203,-32.67773990429469,-29.582218631590344,-20.263019574719088,-22.31873438393971,-33.03993474040074,-31.20865408642205,-22.072737842864626,-18.580341183209455,-12.855475771153209,-7.8202000334515045,-16.298702983853907,-24.737191689162138,-19.37958132422588,-13.579126568751562,-10.891356832197024,-0.9009139461007614,5.221822094829494,-3.3767348487833324,-11.406554608588287,-13.412791549512292,-20.676269004966862,-26.67891339601453,-23.56831441660503,-24.318388000350943,-29.833802793152092,-26.445215408669963,-21.446412037515728,-24.563871615483396,-23.10750233579357,-14.696448789323206,-13.099017000296051,-14.248530473065617,-11.587394667819442,-15.983386676575872,-22.689816561907026,-15.19472546317127,-4.204156378700491,-3.3772496927947024,-3.244930738577427,-4.5949399118936505,-17.312937334712448,-26.585102919534943,-19.11108582041245,-9.350922580220853,-3.929595277007195,3.611914008985635,1.6885774322753755,-15.302675115882241,-26.774885590768715,-27.591891165692807,-30.363194609331988,-27.491868614306902,-11.943301486584229,-0.08748397649844541,3.030730797832647,6.507694861307077,2.466624548977735,-11.754709984789585,-16.544485928840267,-10.643260111468933,-9.881708665019337,-7.693068056012854,3.320253954634782,8.076886717946154,3.3865113468014205,-0.10712563298845959,-8.668747778462912,-23.75553149398404,-25.70080325702716,-13.082910561160867,-3.791333020840658,3.4062500804045106,13.157426793438544,12.157409385355304,1.6249818843472603,-2.070912648263143,-2.9399061071230266,-6.339339910111058,0.4372219563068547,12.961174628364653,12.893888684841869,6.680436009664945,6.039934006403797,4.189792905328423,3.0708233056168597,10.939070472445895,13.982757880155392,2.8975096879662567,-5.091084682919611,-4.50733806085271,-6.221043753897179,-2.9024536556956866,10.098110821169417,14.952052220115931,10.878528563037557,12.970216398698694,13.564964213379591,5.933643185812127,5.27372272630121,10.505193277005503,7.156156942148559,4.058395284416616,8.90037388186571,7.008182227155775,-2.176193785223068,-4.730386563755409,-6.0553306467403125,-11.076233979355049,-5.498719629289851,9.446712481852709,17.33492080317512,22.583286002170993,31.045608978163003,28.90811905409741,18.1815195972015,16.25635541702285,17.79741681380182,14.761520578017443,18.447307357050633,25.684844391148648,22.204123029410923,18.118329137129564,22.413015018945465,21.517178082426714,16.107489870950744,18.819766775017413,19.837877859957977,11.722219783537863,9.10582186193376,11.040180979847872,3.575575679818768,-2.4075442289625055,4.827118425478709,12.318928748723506,16.884253264816255,26.29571093615018,27.01363591149062,11.676010141218672,2.6236523276502948,8.191165495763403,13.825577117537419,20.544464538257127,30.957900126876908,30.15690045493868,21.36999489621717,23.00975871863816,27.440159199302876,22.852046284587495,21.056162378044085,24.435585174910543,23.4609465023698,30.306007997692987,54.92364688527471,81.51550978057831,106.5103466982875,140.79402492805792,174.49661716269935,198.5005014832644,222.80827449202783,239.9332643060833,232.1707431998803,213.11328950817943,200.1954856236342,185.0767325650658,167.04964171901707,151.69654128553503,123.61001952798586,81.24986818817624,50.26229456418688,31.62210478135049,3.606291533813758,-31.682134595370222,-62.45718817557524,-91.38919803608093,-111.3614184984001,-113.35805662031817,-118.94915548932696,-143.58612901346953,-166.46697780162032,-178.2716867370561,-191.795198556606,-202.63312310095841,-204.77300866874532,-209.01447480203245,-209.56631923871927,-193.9654801672249,-182.07222947527526,-190.88046831722286,-202.38432346287055,-206.1022543477206,-208.3449030049973,-199.91856729968347-178.76142891590163,-166.12391889550508,-163.18529446883412,-153.62755619674226,-145.3584663197666,-146.56936536227835,-140.67489273984756,-124.22826143738104,-110.06608868659828,-94.70667709730279,-78.8127918463331,-78.23979567898381,-85.06756883904536,-77.39928593790263,-60.336018464303564,-46.24006754392675,-32.5707875520086,-26.301097002093698,-36.041265510925896,-43.62250044495134,-34.64666843789161,-21.161382956695363,-6.927928572914556,12.614775845203585,23.263849039435865,18.95260577509151,17.815868863947042,22.971238083430322,22.78124929672142,24.382532405458996,33.31487590258275,37.598801818134795,41.24044086377826,55.09511194312952,63.87214390477455,58.85127249748624,58.562936648452514,65.1501364501841,63.26495001813887,58.47969195213841,57.49945799010349,49.71092819269862,43.19064619643537,54.85786894906094,68.35486013116986,66.51815659034656,63.15451932300748,63.226042706305485,57.85805190055505,57.98600331276797,69.10114072009044,73.03139063334135,70.13188694500495,76.06146286759639,82.9871153570072,83.10439876415802,87.24253013781916,89.849859821143,77.99694422319479,67.45121309968553,72.14670479225587,78.60925801999687,82.15195425660762,87.87004675685263,82.16439712278414,62.642161119912345,54.072131262484845,59.879299674465514,61.97037230145644,64.10548530517649,71.17613571185169,68.74514723087837,60.66326935077447,61.6878877972749,60.073256242826844,48.95270812224339,47.621375060051335,57.56687035633174,62.03082580028291,63.133362857209946,62.48658601010568,48.74015332844746,33.600658974907,37.13233810093804,46.5504767897763,46.37827458379557,45.053534383620445,41.968973675716526,30.266227238445452,24.296352366668792,29.77742767804062,29.687524542438595,24.775270624197514,27.430905770580516,27.803389809927182,19.976020896341872,19.23802686135869,25.2842588018324,24.919006432047063,24.337863117005675,26.841530810039384,18.93494116047669,7.485891517606188,10.360615485421356,16.687799317896438,14.221289409785278,13.346835114401832,12.181776091449084,1.1023420039083032,-5.371721656571553,1.5697795374559766,5.009475706404949,2.3128421423805894,5.502005996474113,6.339278558971998,-2.0010151475120055,-5.2120333218756745,-3.556645121352235,-10.007680229640307,-15.183859073048351,-11.339971646304207,-12.217217288806193,-17.295774749751217,-15.52878019958997,-16.35611052017071,-25.285776059813227,-29.502695782145658,-30.687591414025604,-37.306225147812484,-36.49378132263031,-22.696970089926708,-13.431233229579536,-12.301112493142533,-11.14772542901658,-18.02319067729265,-33.03431257910032,-37.49957434400574,-32.53834087955666,-32.13091269849288,-28.813314430507553,-19.10171052862175,-19.210518354544085,-26.877791113052208,-28.225410272455004,-31.711101639220544,-40.24001875699801,-37.452685699460574,-28.238841242315015,-28.811853061772887,-30.02637517176516,-25.074937357608654,-26.78701356066474,-30.123683135417473,-20.34092040795565,-10.023145850486138,-10.6934896472664,-11.112256639297463,-13.616568384919002,-28.30066626303812,-39.794198137447594,-36.80746469122853,-32.2394080102408,-27.373130149739204,-15.770194356332048,-11.651817856485609,-21.765805955582046,-30.54905992635432,-36.20083475148839,-44.41461244119827,-41.33154400660239,-24.204691749783272,-14.176967208181813,-14.035262881226213,-11.969890066800492,-15.400038244559227,-26.348426399141626,-27.63179376202531,-22.68221733202275,-25.78467719620985,-24.875042837082386,-13.634192539609938,-11.896581546507546,-21.726230285462027,-27.14919815245006,-30.917848924739243,-34.83244867754827,-26.12569486504985,-14.586926689970138,-20.074173480014895,-29.944763009549604,-28.673817557974473,-25.893158696339825,-22.851835416405798,-13.732729234306202,-11.740513769107046,-19.561105265691506,-18.51224776669887,-11.859419127212572,-16.831889155772814,-25.09282656773127,-26.081114425695972,-26.812159571243924,-22.352030611900446,-6.0121110978463665,2.8470114957212687,-5.638052915823557,-13.60192210285839,-17.332422276194745,-24.27408494255253,-22.20151316354167,-7.792784414079826,-0.5111497335146427,-2.040678417233327,-1.3373237662981654,-6.056721727599389,-16.269609566640817,-13.751011270770402,-2.657798854263147,-0.5641507894180064,-1.8820220692949432,-1.0463380729741683,-7.670049493114955,-14.261619623003808,-6.740744307509223,2.4380083091048563,1.6700389104327085,-0.4952606279493653,-6.7432520389643855,-22.66158394770916,-29.516252356629188,-17.853226630658376,-5.201816291341919,2.60408690782506,10.083686112944106,6.979789397095066,-5.106427536109988,-5.770940531776597,2.968760303178483,6.373151429424541,11.006386900353093,19.080942005047984,15.915513597136583,6.062990222830871,3.4402122192016735,-0.23967573689506105,-7.534473537700262,-3.219592878647563,6.916964831456382,6.9822890761430525,6.298896486263534,10.975988092058513,7.156235734513391,-1.9940926265153212,-2.751420141202644,-2.9350467550608945,-5.6739801501882186,3.5175025001466027,16.84431232201502,15.591778747176916,10.130176266857536,11.052697246177573,8.574635035709646,6.702059327789831,13.634841074061214,14.394546515818174,4.6941606716359425,2.5853072232998944,6.526341129720464,3.358373892662061,1.7760774596282574,6.281313123418311,3.6535696083328006,-1.015575593092393,4.947127674462244,9.349265337128458,5.595810094174725,7.795499791704602,12.488956254572704,7.866404304258045,5.845671980842492,12.181799660110755,11.994758750851886,8.412796423449851,13.815527013576176,17.75850122515454,15.618053076433828,20.719018054883666,27.10302542678568,21.705491310085325,15.69385449484735,14.698865917642992,7.342896155177754,1.6740823245964624,10.958600719988155,21.52763900530036,23.481992193222116,25.17589394358053,20.35031021228521,1.9979850194812805,-8.944217672747117,-0.7031701388042642,9.884695158687641,18.068569921705222,28.515954516047003,26.773298720202547,11.306143109187662,5.981166384818148,12.178766818123739,13.463938878671996,14.903833321882068,20.118419448234732,16.726943130972042,11.39449898925286,16.662229743521753,18.464307026237993,9.915237514256344,6.750830771739864,8.127486408318914,4.520071169028921,5.0818319227547,9.940737591369839,4.6596695777393515,-2.9298354698475295,1.4047193343949669,6.356758238541325,5.2766305817891865,9.091954994824194,11.12728596234324,1.0812400515094391,-5.199305318989841,-0.9789077004773594,-1.8651624689883892,-5.529474539838896,-1.4963262995333138,0.36695694954541214,-0.6969511341866339,9.637568539442475,21.64764732273131,17.95271440687099,8.273650719080841,1.7000248504099764,-6.5226741947905795,-6.781734917861051,8.11326101025613,18.61880118185354,14.414907224897474,8.319335353499412,1.271879034323432,-9.722780190714522,-9.394154133653293,3.952265157718495,10.469770740946842,8.040633056252169,5.110780724138734,-4.091828232202804,-14.6721877214168,-9.9251172111423,0.8644412550739684,-0.20529268227391606,-4.82600842863974,-5.280220385410988,-8.84857770336474,-9.698713012556027,-2.143281750464773,-1.3611663124506939,-8.060814772964154,-3.1683654748612584,8.74640944915988,12.164504932166162,14.16988822989234,17.397127051594193,10.877809857390698,4.266161860978607,10.421661727787866,15.42954672597414,14.974811811446031,27.344458871698176,49.611238643234934,67.86804663804473,92.83125277054596,129.53378446916062,163.53563009287282,197.78639769392555,237.1681605240472,257.9160973965802,248.09811779598738,227.51845217894373,205.7202517496857,182.77997272892145,171.4169004777328,166.96858235145442,145.55761025775132,109.93059154775267,78.3353776139989,48.46235790564873,17.253409253145094,-8.261831380604447,-34.988654930116674,-69.11493503000331,-94.00172585670336-104.38374686664896,-119.94905806491487,-143.9383675823634,-165.55761148688444,-188.14247974746144,-208.0215346515273,-213.77985001358417,-218.43398623746455,-234.7743332054236,-246.02837678398578,-244.15343210440815,-244.74726937595972,-249.71922515811798,-250.09951967767404,-249.03531289675516,-243.71713808173004,-224.33201734821964,-205.0931807401539,-204.09256389017617,-205.6289470529955,-192.15131908292233,-172.43707240399485,-151.7286629197861,-131.51844668059255,-127.66212087335782,-138.34720223692509,-138.84601586377144,-127.59373476048549,-117.76019157251991,-103.10106300961252,-83.47076796740626,-74.49273922682292,-70.44881049371354,-57.353625033127905,-45.674533231272434,-41.174081704478255,-31.93431714571618,-22.953258758355084,-22.363629211972682,-15.157857392990465,1.1776465765664055,7.904958245644181,6.9706924928355924,11.220564953988488,14.673315574975572,17.75299245889667,31.85419836762251,45.296231226297515,44.96497646451144,45.92845076816979,54.45542075869902,57.35131850850622,59.58124231224897,69.92141349217623,74.40969206018956,70.06669993597178,72.04907618753151,74.28699665792546,66.49835700299884,65.33653356937045,76.9162423463925,82.94387388671316,84.21802464714486,92.12901169449012,96.12010866303858,93.59189107005648,99.62165636620747,104.98266823853639,92.51256615271868,76.82083780124515,71.85073204145209,70.32947047575352,75.68053894657,90.74144618545301,95.86034732477792,86.89555616514743,83.01440581002932,82.84967277492127,76.14370096868035,74.59451746106035,81.09865798420992,82.20693292542995,85.07831216994545,97.28553181880521,99.71305107057795,87.43671239075528,78.73319759380243,73.3227613397156,64.43972812709828,64.32098784907828,72.44874413098174,70.4273924181594,62.06933360532082,61.04081168420223,60.05810157505563,56.53934293087687,61.44559587075102,67.04965773974784,61.99203276459176,58.47488032934653,60.44987588332405,54.9764004985036,48.490735988355915,51.48546278518284,52.19370417925611,47.89159379740746,49.026251383357,46.55629425158551,33.50355637302634,27.15836924331063,31.314944303797862,31.019502713762428,29.520790342159586,34.12231263396352,32.86251550423304,24.354068622599367,22.107654620784658,20.02922064778427,9.270793359062363,4.4659973134769375,9.762166527832473,9.976553865715273,7.667125429824905,11.72784801301861,13.254546390595086,12.498957530712026,20.34327332596819,25.37809476858176,15.543246282750872,4.867740908105946,-0.658630679394617,-9.137965145853162,-10.623621036552938,1.660211311868875,9.863848220593681,7.9894102116836105,5.307946817376806,-6.452616417274129,-30.297559653820702,-42.40095591468449,-35.115092999236865,-26.069703771693966,-18.07950599498901,-10.062834970004573,-16.83561266941575,-33.39128998639253,-34.83698330653664,-23.138765243091967,-14.047710777616462,-5.400879381544711,-1.1112750611531548,-12.440437681172783,-24.99572411398104,-21.78993072463083,-15.140208261261106,-14.472011516969413,-11.857573554689761,-12.476945132445913,-22.121851226988863,-25.948952804338347,-22.969374053536626,-30.476583126910565,-42.5764543913449,-45.09710088410626,-45.271284103212594,-44.06744166259749,-32.904329733904454,-25.1758212756098,-33.32726598250738,-41.17517990446951,-39.08470465283966,-36.51931470735594,-30.515827346830687,-19.36701260777547,-20.459232075312762,-32.376776234565796,-33.68346686724624,-26.851406425160278,-24.803647845802644,-22.691705674140437,-22.618003874765932,-34.617389448146156,-45.62656912031671,-42.80954423045789,-40.00851639331778,-42.60689342447294,-39.76336832613944,-38.67049448575385,-48.12092850524196,-53.3712964066936,-48.821529133487516,-46.181014708722344,-40.26527675344125,-25.493295524147918,-19.092082419272685,-23.877519195103698,-23.830679176045038,-24.285273819259075,-33.333044289718444,-34.76798266198418,-25.069769695926908,-20.187183726762655,-17.50943924816515,-12.978536996287634,-22.136109348115212,-40.91568667211326,-46.25450045001689,-42.23645985225823,-41.752881873018275,-35.312191668482434,-23.507059975075098,-22.442934642233933,-25.542228975958196,-21.416942696947693,-22.44460564546813,-29.71644783925005,-25.196836688891793,-13.36875760919704,-7.627758010464513,0.4701414320971753,10.45538112303307,6.058035240681498,-5.613793920273239,-9.620369859107962,-13.405252571973904,-17.061964530215622,-8.755143225553951,-1.3477009821131882,-10.101353765503992,-19.969597866313766,-20.901522373788826,-20.29880433721129,-11.63380623759988,6.420386685444585,11.150508515866024,-1.5354418033244466,-12.13718722486506,-19.150143798737655,-26.187103112457923,-20.130994824094017,-4.161667701921617,1.586798932780705,0.10845139146099836,1.495277133809747,-2.2755437850348974,-7.730357758169546,-1.3743484690380097,4.734363314552962,-2.0293909911692434,-6.7814913810293085,-3.8045421926183556,-3.9903503631147514,-0.4887185224266777,11.743587583744382,15.058734938104202,8.838144498572397,9.870701377180554,10.645386633327629,2.1069021299267856,-0.004485082257457695,5.824733285156173,4.198630367814836,1.8297811160737962,8.093439396620095,11.142754251331668,10.32025057242551,17.292284771360173,21.58155886509942,11.852347238531497,2.737911998380339,1.4729232721755594,-0.7003470335924673,2.3047698931184675,15.130100207478208,20.912920184323443,15.555645530730176,12.461297998219836,8.047107825434693,-1.41015930633742,0.616288981708,13.929817022258803,19.692580743527667,20.530604598584794,23.757129645193398,18.837595757309668,10.493438816271526,14.810497974785303,20.418550678259056,14.69092051448896,11.173494368416758,12.701934055949192,8.473143772423148,8.195114940301766,19.131546526528467,24.32558822372224,20.206491575341893,18.756425023305184,11.850753692932198,-6.232409853787217,-15.608406676891065,-10.435652136407487,-4.959668966278856,3.3355764905753027,17.742240027522197,22.548197544172325,17.98589946979125,19.560579639331614,19.538462696281393,8.2379167393003,1.1561757033809397,4.257845669371065,6.810615702441504,13.221534466962732,25.82034642747592,27.433643979306442,17.12132933375696,10.65210950363815,3.664002886945435,-9.873971153901019,-14.99546188314935,-9.39997231989429,-6.271522992560576,-1.37561668295162,7.749438361840847,4.058890146791286,-10.367429496380849,-13.506290171663672,-5.615671796338583,3.780631431492374,18.697571944402164,29.25800056233073,18.095486508444885,-0.6498859593580804,-5.782052971000457,-2.9569879965243566,2.7032779529986755,14.499709759197275,18.058231535458873,4.113189519699129,-9.090695209589834,-13.865142749590682,-19.612662668829884,-18.79249840192655,-6.3578943961257846,