-6.973990668399805,10.104728359641248,12.172196566503715,0.20123333602547877,-2.626697394725923,1.9749824371824034,-0.6153869024628318,-3.3334005977846233,-0.8582051751155177,-1.3368560015625952,0.6370146192454467,10.351360952561912,11.45730870169154,1.0371545618645386,-0.09663248980037342,9.360581517804683,15.067483606003552,18.880023503833552,20.20199111510412,9.668401524272705,-1.9115520981707843,-3.0350715818270135,-8.243585695450676,-21.34691419857586,-23.633405608051316,-15.68156110997468,-10.617759613985875,-4.752490782709071,-0.39153181640879997,-8.534422840965238,-16.222235904165323,-9.302423551004452,-2.2187423544531413,-3.063615963432549,-1.5792010474137665,-2.967151499499626,-14.76276496939393,-22.563345374078633,-21.24671570531418,-22.10743929854238,-19.80254607548159,-8.104546485160485,-2.5846375044491223,-8.070698392148586,-11.693308149962112,-15.186223037498172,-22.204954983577167,-19.123490617555845,-5.762416179517421,0.869210500403922,2.288051690771785,6.486023898459715,4.13680338979106,-3.4287097871325734,-2.384138103794495,-1.4149739691222831,-9.911616869890203,-12.312630509677973,-7.114850313730466,-11.65781646105034,-19.939956177825252,-18.667345440016547,-16.610496547399336,-16.22540530826516,-9.392283728887028,-9.249645443690136,-26.997363910971703,-42.38891986101905,-41.30996551683529,-33.59169288990446,-20.02552954112877,-0.2797479809112158,6.73517283958627,-2.2346971907481676,-7.8664408439867834,-10.00908084798495,-16.028453070540014,-14.52855259977527,-7.203330938590918,-10.751905878212698,-16.51383164551985,-11.718970399924283,-10.18875065369635,-16.248457681320875,-17.482430451806128,-20.94162698739635,-32.20938636492279,-32.204830471135175,-17.76630861299345,-6.238655222062594,3.885141267854986,16.365130438823876,15.95380762100169,4.189786465506865,0.41255836738887125,2.2704289594134783,2.4364437781938104,11.730012964709186,26.463394242516166,28.390722590997257,23.54616604758508,23.304387539242374,16.81739222551926,4.885199657157683,4.533007234530039,8.905973355830863,5.508421535686848,5.1293421530818275,8.195759601624966,1.072473359068475,-5.819597922734918,0.5932475203598289,6.071603845285821,3.5846781594783934,3.2798622229394194,-1.089578862093724,-16.17177290695281,-25.163960426492572,-22.747475953718997,-21.599883329385143,-15.897402758924606,0.5442068930820501,9.620403962877429,5.47346646044735,1.4561702915566146,-6.096325013860055,-22.15434766554775,-30.534829303084763,-29.08001290135508,-31.688508368187527,-28.889199214693704,-9.188137764101324,11.169706429549345,22.927601287405125,33.5699656770791,35.54489174200132,23.494851522294248,16.518408176039024,22.224752174551416,28.233212930095895,37.55975357681646,54.739215538077275,62.27138708146285,54.22020759166283,45.360057072841485,36.11307018060887,23.206847470467935,21.59338241782412,31.86071092998821,34.09917623108841,29.994792777883177,31.971424516744268,30.53070214579819,22.894003658274812,23.394320774416723,25.042191827304976,13.949385366799682,3.2142693760898107,2.5124604357267493,2.333040601939488,6.671549805156493,21.943741454954374,30.397344236183706,24.044314810513644,18.79615170564103,15.828539688990098,8.696505272753459,8.386771717926754,14.484856434924836,11.271694780281535,5.695638347912262,11.283431168066995,16.737205021474992,15.041128278983749,15.256221721018157,10.539414839608563,-7.367975407405857,-21.37895924134247,-22.268508995435255,-21.99207832811461,-18.751984623104565,-6.1720022290453205,1.4472518359622637,-1.4666195987269373,-2.244060801461669,-4.534872067299568,-16.430919062743087,-24.520832889367604,-22.878030705265527,-22.353933885351445,-19.888577921880454,-11.118694609889591,-11.596869072053245,-24.308054855344416,-31.604838857750075,-34.58495741297409,-43.12372144545147,-45.88796784262314,-39.733302254705485,-39.14905625235818,-38.0883093255395,-25.922449637662154,-19.191713791164013,-25.249306991176717,-27.629838042847975,-27.257635537445026,-33.196528085388266,-32.00765094494996,-19.94541097745391,-14.962647188859483,-15.955674922658494,-12.074704393351404,-13.17555777002897,-21.42151127335132,-20.68802804124896,-13.651968569552384,-11.674796658051113,-5.849852097415829,4.691736469552999,4.700272453654554,-0.5742793603677394,0.10281813414145802,-2.474387027820387,-6.29780033536599,4.437093845697536,20.227855486974484,25.122426856189804,26.940252554833478,27.51661971625728,18.065648724131137,11.458353666216428,18.605459952694492,21.575866194874386,13.290655944250474,9.4554835597715,8.622413311663978,2.5273283519789467,2.827833649601643,9.406520001185033,5.405897876645755,-1.3349823810707575,4.1890723886526136,10.041520688943582,9.790688378055263,13.794992974384728,13.962267093217706,1.8938603730034305,-4.307585490919114,1.671314050421001,4.173610499633219,4.554616470013542,9.552453919731846,6.547243019340772,-4.7202857215087,-7.918576189402549,-9.020196860953968,-18.419514771443293,-22.701103856992823,-18.795818600149563,-19.926661965321575,-19.764014445017118,-10.253886346055161,-5.546683570246104,-9.021828487167744,-8.49050605579535,-9.471329074474628,-17.61381548827621,-16.720281457055698,-4.475449668244033,1.9302401345044602,4.321272883761847,8.757895056968124,0.6732045759406633,-18.85492662747027,-26.70753764590728,-21.784528736676492,-14.464268599716982,1.2570595209980793,18.65705849991756,17.781089040008602,8.59414001117175,11.038478381508087,17.103566582557505,22.0079980998838,36.848259991657955,53.03059856739515,59.12603118650429,70.85675291210899,97.57403082528812,130.10676903871408,171.13688396915595,216.75534530085585,236.76318005349742,222.94994222685838,203.40833015962332,189.90017581305756,174.0253106528115,159.28099097621072,143.39686122340595,114.5968961246013,85.84186574296146,69.58555785949824,44.537158425078005,2.7069619274708696,-31.564141897883363,-51.322057840144694,-69.28903595421062,-88.33317360603753,-114.26334231922081,-151.5418888391688,-177.3611623223456,-176.30609506754882,-172.73316258002566,-184.61998171756449,-200.5719823727046,-214.99195096425245,-224.72028694936932,-216.5656914636334,-198.46946397148855,-192.81961153830758,-195.47134288848653,-192.15056417872464,-186.0472466011606,-174.9112101511767,-149.75907179417197,-125.83286543727142,-120.54890120630523,-122.3254589036604,-121.68139619557873,-121.94148460748798,-111.00471697792557,-83.36697031787868,-61.630933438983945,-54.30525092768218,-48.03332546844943,-48.18592371959726,-61.822359862583255,-67.79689174053222,-54.575307848114846,-36.24354097221467,-15.199806064185644,8.315584385704735,13.222524812776548,-1.9945173834686134,-7.999535818591159,2.954457484969631,16.16331692603276,29.726188472749,37.95896687937681,28.30016252098438,16.969121711200845,26.959663733448117,47.37528335565369,62.88674999583095,75.13184620705451,75.93750152340928,60.54701122935842,50.739902738435696,55.99452117697257,60.126318881357,62.18347094220529,68.6875050493026,67.7027679135206,58.84695099301507,58.5662186308592,61.89045530915924,58.069745283364476,59.28328385722641,69.15179744898722,73.8747017044347,77.48414896030665,87.7414071708007,90.06701920311833,80.38355770202108,73.8944669788514,68.04338880811062,56.431039504827346,54.41652605501882,63.64204661076661,65.09700736176228,60.7722084611042,60.096752760488506,52.577378668581275,40.145388564600026,41.36039318059994,50.55651817545703,53.27582948489764,56.46868529365252,58.91357458234623,46.69269917903482,31.241184786441103,30.298940801394302,34.53970343215511,38.08714592968987,49.49742082860227,57.996396998478815,50.99984911305512,44.08098584689459,46.35687225752788,46.16202467937604646.47471588222888,54.16362122582705,54.51069804540808,44.79605574095504,43.18445960104608,46.57369935040809,40.90316576846988,33.41142877521613,28.643887601689396,19.901530870453453,17.326607639437803,29.499932479854337,37.955007878960416,31.829871641428216,23.27395247357264,14.710079170815622,4.382436191941817,6.126173799545486,19.776067620511885,25.48562006606061,23.705631152273025,25.71666007982366,24.18571670996353,19.451105152698602,24.94635821079503,29.851932056776953,18.607700205569785,6.0242579095501725,3.761907140702128,2.8699347716883867,5.508315360252395,13.854402482829832,10.764826800996929,-2.6009017851172533,-3.54299192060996,4.454993840833639,3.496766921222137,-3.432012741600677,-13.136163485790489,-27.590352221684356,-30.996997550797282,-15.705535847249552,-3.435734145308535,-5.11412769962262,-8.357390848375216,-11.545403975508172,-17.466529553950046,-14.439750077418996,-4.225751504152651,-4.224944921383526,-8.907500426180164,-4.798688973474773,-1.0611224449759318,-1.0576202646490263,4.182683521985521,3.1385648605658023,-14.345010608631659,-29.353729742631515,-31.86334164858023,-32.70609957041442,-29.278575107096074,-18.96642460000164,-18.93097558890586,-30.37838555188257,-34.98110420174482,-35.74882441808558,-41.889608308502204,-40.43262762796534,-30.411578811366994,-29.357760923011902,-31.19373950785196,-23.53432359333148,-18.77974728177471,-18.966299158464484,-10.335838922303115,-3.375610177467275,-11.272676555652515,-19.421035040628375,-21.775090192181487,-29.369175158112636,-33.20901174139649,-22.871471446648975,-15.827360446832813,-21.077745978170398,-26.607657902461447,-34.767356322666096,-48.713473231232086,-50.5235792760437,-37.77079945368099,-30.309876334103567,-30.05166446276146,-29.79221511809966,-36.72450272820685,-46.132190023392376,-40.894324892380354,-28.793082366274565,-26.292025062529255,-28.04803691104656,-31.223037009797714,-41.072145059948134,-43.2605666764445,-27.566889792654074,-14.777351042370768,-16.953248024875588,-22.9755146684984,-33.36416002163131,-48.043430139019044,-48.79659233531601,-36.64700102326253,-31.63256539369531,-30.14341104315806,-22.284203471859442,-20.358248097379064,-26.222528403752047,-25.52446856948436,-24.607225154456792,-32.8079341891124,-36.31229787236636,-32.494136423578986,-35.012783425584885,-36.09225757981743,-24.96193703410163,-16.398302163058418,-16.75672783326771,-14.046812785127955,-12.8096253167434,-19.66263918892079,-19.762319410782375,-11.562070203975962,-11.557482290448606,-14.00683463430357,-7.469056476440782,-4.189773657813507,-7.7442297021813165,-5.110922971750503,-2.5544756385440652,-10.141695313484739,-15.481965092829114,-14.791768837334523,-19.25365507684693,-20.41602596143936,-7.596300322385847,3.4225947281578697,3.498892645956156,3.176083580237266,-0.669554581517391,-12.7300189813095,-16.566959257890655,-8.651093110865707,-3.8715750850291073,2.1993023093286292,15.27493493536996,18.41771678452786,10.87614917959256,11.775524351321717,17.279310311266467,16.012593282573054,16.541594552184115,17.88482108547354,8.11242105322539,0.12690693097486783,8.154189815213671,16.515499448937508,15.80207371045067,15.549113617018534,11.087303600071923,-1.8558352861641936,-5.797100630354798,3.4067485101291086,8.88634724246638,9.767490196879786,12.006533206002416,6.711505473278203,-1.1137476369022337,6.225057823006123,18.588702210057374,18.656915280016065,15.725353417443365,15.45459997298548,10.450357580050817,10.551857373471101,21.73485630512041,23.28716387079852,10.854479271226351,5.865780318472552,9.837771872149773,12.174317122576436,18.629954912847623,25.402513447895995,17.354317285217622,5.887221964595094,7.893064758180137,11.973152076259618,11.374775804174899,15.936536090006086,18.25902907032778,9.280835405979403,2.9752050205403835,3.036566412822692,-2.3244006584281003,-4.124169009757659,8.225086072129251,17.948316698929204,16.37016263897474,15.793670863371107,13.381829981579148,3.319083124375173,1.9247860349874266,12.257296521571359,16.003654139702036,15.453891903619075,21.07957024859643,20.945440267723964,11.25981194955831,7.389090784400182,7.972602594314022,5.243659355760112,9.427766497243162,18.86656245365966,15.633913763849222,4.294512818362874,-1.9106643574752729,-9.154365085283803,-15.881858874299814,-9.354988273639258,1.5683254009194978,4.738802483898684,8.61432402156433,12.13220111676592,2.8162048304095166,-8.362102514379998,-6.430936046068963,-0.6514771213103904,5.849984207810809,20.892905929870143,29.143052484720435,16.194597887087937,0.5148368690507579,-4.544818913772652,-6.086124836235045,1.050270498230025,19.73209136453911,28.99053675553767,22.14552478883935,17.067257294938248,15.12415623416156,8.192239645443347,7.06619887318821,14.495474966513989,15.267940788960836,11.959992011283713,13.688056140381942,9.299545459473551,-1.2294843153855046,-0.22941975839403606,7.195697266882385,7.6949821051534855,10.168451194311903,15.560929839135918,10.477067261489452,3.8310727352763445,7.890974903249934,8.467965478392575,1.2162959463110883,2.3549047270428387,8.34552599630911,8.52893782119191,12.710310520411142,19.906465112335145,14.972601757880533,6.683005414663111,8.46246470097075,9.450695615918248,6.750435958653607,11.930417354642142,16.155605816640072,9.157190053632252,5.970830032727184,10.637427042213941,8.624411305489815,6.596548763816456,14.897678761131154,18.163264813121497,11.72530913143925,10.66995861857549,10.610728276337426,1.6918353809598434,-3.3821072446453604,0.2482908499247083,0.42910182187071166,1.6634737568996354,11.246543017256013,14.428346089294902,7.800075580320176,7.313880896505899,9.683511395833264,5.142352690177791,4.388988106074892,7.63175460875341,-0.30442025297245046,-10.305226245861665,-7.289749899878421,-4.273897974494959,-7.1741823506900575,-1.415061888348528,5.694744097219999,-1.266896758061673,-8.950869683596409,-7.98884323274088,-9.08840589445365,-7.524361956103769,3.3495518071016828,6.493515799372055,-2.5812486215955683,-6.538671324959777,-5.311433875510103,-4.99866927774869,6.513195558060773,29.828011354852908,49.27360589734245,68.21250941525953,94.51500467196547,117.69403527719267,140.48748067084153,176.2445595610191,208.42202250277887,215.53098273971474,206.43879394676304,191.27484156160378,170.19316767925233,156.092363484983,151.8635579130646,134.93269721001144,103.32505428201321,78.11956262056012,56.38889731243414,25.55045637069114,-7.668901609091631,-41.15124959388849,-77.64749530470709,-100.28198090263189,-102.44127755793248,-109.08066167871434,-129.9847151026605,-149.18967535560472,-167.25593050042897,-191.94371127569354,-213.754001649252,-230.8632469493158,-248.4089729522692,-250.81832576476592,-231.12016241257794,-214.90244353757325,-216.35381437846246,-223.70391320992883,-232.456211606469,-237.54186285197025,-222.07257578564247,-192.30407673754473,-173.06070474456897,-163.71893862584898,-154.55963529972013,-154.74337048915692,-161.12833574793478,-155.06090339312502,-141.26406969433845,-130.80425221302596,-114.24196654996965,-94.79219317976126,-90.74019658930314,-92.58602998461176,-81.91805426076978,-68.6021346595833,-60.48843897461114,-49.06702587975721,-40.758546638345,-41.90618086488559,-35.45431975203563,-17.3033467363651,-5.22388937798908,1.5881372443535455,12.710886325621148,18.277727775775208,15.481063667459438,17.035566689601247,20.567846114118638,21.76366508136435,34.42251598180957,57.68422562055509,71.28070102996514,73.8350178503435,73.15264543709687,63.62550819847219,52.40718511778101,57.71342144499081,70.26603745008069,72.62347630262701,72.74009203230047,75.86390258881522,73.6392022969206473.83577919105569,83.36097436615992,85.72074492231943,77.92831322659778,77.15382650616084,81.09445151288548,80.3559069393928,84.02168771767577,92.24002203783414,91.32571819378907,86.07016182322566,85.88831763428371,82.34167213516523,77.39644501166352,84.23664744057618,91.37805695218469,84.17316044687473,76.7961841746979,77.5230881902306,74.80943683211089,73.17720648155836,79.86189868512633,79.75606853817455,71.7215474420764,72.67915760386911,74.9057280478429,65.11103290759296,56.806693277177104,57.21532878935679,55.503012913771336,56.073839649472134,65.85588296607516,70.40219986488454,64.4830786823648,60.43310219340363,55.62536153019875,44.76494719244103,41.568551641396276,48.463990464842816,49.89966863829276,47.69840811786578,51.15132981653856,50.620821145020976,43.14195343262512,41.226459661375884,40.26742554364189,32.04445875153573,30.49387713739018,37.976559168880655,37.03624451310294,31.22369634413193,32.78972745555671,31.862466794232013,25.142587856043708,25.500906550516234,26.75476141695752,18.44170522010759,14.075872258855032,16.937779953790503,11.216960695489682,3.4688562038276323,7.791324971085829,13.389642200756967,15.138025330962533,21.888236023887632,23.327120060658906,10.325009950639739,2.1202418544825754,8.215595337096728,13.673979718843455,16.637005013723623,21.08325880441403,13.423570357584392,-6.00706609450158,-16.997732148441557,-20.092165451267796,-25.59969432563812,-23.786469494170756,-12.659138810594456,-7.898564129866005,-7.108208920248229,-1.8032704284718584,-4.129069044371919,-14.905292852020343,-16.81617394452048,-14.102849477174303,-17.6316304695559,-15.47515912240142,-5.75583453303552,-5.430097099784742,-11.79843859164011,-13.407280412481912,-17.31752729213854,-23.233377592231946,-18.516491737958606,-13.016197337713578,-20.544712764250914,-27.296948442777822,-24.91358896952499,-23.41101078976554,-19.3653990887136,-9.202548052063536,-7.352395100270339,-13.720956758787414,-14.46374127426354,-17.408599973856784,-31.046042669701738,-39.02904570020101,-34.87152520677198,-31.19734550435982,-26.499965161621393,-17.37522324407525,-18.769457917458872,-30.85835635765344,-35.17879083876801,-35.136152684231135,-41.19851303200085,-41.516909307807346,-32.77063532636126,-27.271333962416712,-20.09836940902705,-6.946941355342333,-5.722070546237451,-19.70753137663936,-30.77229233355336,-38.754048145720894,-49.66463886867638,-49.76752751166333,-38.88267857428801,-36.726954778382144,-40.02902922014328,-37.41133414118127,-40.99846586687258,-50.95846784430399,-47.13326792843256,-34.99684971946306,-31.571385729436756,-29.02070531356189,-24.647447100651924,-31.14349102144706,-38.42649459333174,-30.33884430191485,-20.145054620944485,-18.26695903196584,-14.521138877604418,-13.349486913934776,-24.030738846099926,-32.979058409091806,-34.7612902046808,-41.46318897689494,-45.50989130796009,-34.013787315380824,-21.036040529972603,-18.478710847291765,-19.698686229633495,-27.420018872824382,-41.24822726262916,-39.881169613691874,-21.94885070833191,-11.129046593210914,-8.791838595956698,-4.914944266975948,-7.251399264996391,-13.797894338506325,-10.421309326823682,-5.764890056117112,-11.227772643898437,-13.490309676864925,-9.227622803119026,-13.772673305412226,-21.248398820568347,-18.67352382354222,-17.622908103235318,-22.086899635249893,-18.434610145322452,-13.332122961725535,-17.192882778147126,-15.498510251385003,-5.456004785578475,-4.234115515151599,-6.74185499418563,-0.29333974595205614,3.946647261499159,1.4864525353890898,3.184264089548954,1.1416786890739115,-13.307074318261888,-21.81712848927817,-14.53768280655114,-4.742794359252914,5.899253453245267,19.961551304824162,21.032976873653634,5.966144695732346,-3.8419500402976787,-4.093925768579125,-3.126731333806402,6.220210475173921,20.399127240831273,19.168951031096523,5.990752448419396,-2.556526885637037,-10.07953018575602,-17.95806357225788,-15.239275659268056,-8.697726283861343,-9.573844713483698,-7.950186264130771,-0.1882571287676691,3.1573870491165223,8.533831391538689,25.261172351071302,38.91388590065376,39.25976642262077,33.731820150202935,21.40912258275737,3.4644245696128086,0.01093918507327174,14.235077089255826,23.264988234118128,22.545602302772274,22.58972009385668,18.60876083281577,12.18789135645163,15.793123883540728,18.228917682188065,5.73404985738269,-4.495609344733334,-1.144572268372625,4.2601339279085755,12.602543174034057,25.236279720566,23.285847310160385,6.241645754498403,-2.5497757884324175,-0.5908572331709308,2.3284727456890533,11.718009973637333,23.059236566466158,19.984571797140006,11.134405141903944,11.704592485395999,12.358958147027469,9.094938803351875,12.076431912284502,13.974330949477672,8.638082394429167,13.209340442569555,28.77266870137109,34.80267479017863,31.307661024697836,26.380515698586958,12.563691442286029,-2.250184532757203,2.533975614251873,17.166647937279414,21.00363444100111,18.907590427486653,14.853280948065407,1.3984197759528545,-8.165589176823737,2.0949014818956018,17.162907395238722,23.833775705370112,29.062807912201393,27.249250283149394,12.065472806264522,2.154232797487232,5.243873662743722,6.469657407041096,8.289551366447816,20.273536013852603,29.483950001034742,29.49129513048323,30.803292383517576,26.313320402687044,7.0841308700841275,-8.584471571114717,-10.196725723667917,-9.080790933883186,-3.0468381094749097,11.954945449568672,17.126712173145823,6.030614473851353,-3.2465744773212757,-7.788654705775099,-14.879563068070047,-15.953557960841625,-10.710111244766587,-12.524335729689462,-13.764039400279081,-1.0487349084557653,11.626724258995582,11.563677825055233,6.84895562557285,-1.984090295748063,-14.48343683797507,-11.782850434071296,8.152908323390069,23.329966929808602,30.379307927733628,38.903353406475084,44.7608184962879,52.0776796471858,76.34861474116204,109.7677464857526,136.08646639602702,161.2677336586854,186.1448992051792,196.77220070667883,199.07805311100122,205.05765569243513,203.39866741980413,186.3989201624327,162.36233557778195,131.94470061534054,97.78575789893901,75.3836686646608,60.82553318571833,30.564014675847208,-11.294625721639555,-40.36228116867732,-54.66622653463996,-62.465864345535905,-70.55883436145032,-99.22345510162191,-149.76975523440376,-184.4939972033295,-186.89253009651173,-183.09021664866162,-188.27565217726482,-200.50081914139852,-223.33652628342531,-243.57185984610413,-238.93535006626578,-221.94725931931902,-216.65178215473867,-216.18366795341746,-210.34642783761996,-204.54098045285522,-191.83273053767084,-167.02589389611836,-152.26248648834138,-156.78069937381952,-158.8447831871627,-151.0854606102381,-142.34398058076493,-128.00700954622505,-109.55967234135588,-101.78259253807059,-98.82968168483752,-86.55590692605128,-75.69497702028931,-73.73001464232345,-65.66220881235212,-50.708529708132616,-40.12864056547322,-26.98916055563841,-9.8781550252137,-2.2510137099393113,2.1913504556418384,13.878859375262573,19.100245994488915,14.558544701615629,17.639554350423683,25.732039036619156,25.78462523460264,26.47281671459508,32.80319964144329,34.454427143548415,39.46520750543287,58.77808297037643,73.82034113156737,72.86771234367845,69.91551058590925,64.65978459658211,49.16375727506077,39.28487404628381,44.948361819876794,53.84285323052842,66.37034927564746,86.11784703766152,92.906390707727,79.86535949378272,68.51055037577424,64.75910059122484,61.6774969234397,66.60149655174129,76.76059094349684,75.72029873517596,69.58508223992962,71.45330763982653,72.03360291335045,69.00058050600754,75.81761183904719,85.84610952158357,85.30796711906703,82.50395639619414,80.71723231693085,70.2480366680770260.88663456536638,64.59764214658061,68.19282438268033,67.0208667788097,74.15947146565716,81.7941827695189,74.99289036723155,64.50787227914391,58.495929309877006,50.247919130959275,50.23675967606249,66.84938815865401,76.97693134808672,69.27410297541,61.8992848849679,57.54593829836263,49.04992674248084,48.51474153306196,56.68077748457908,54.47300802170879,44.76656762245745,41.63000307536759,37.81457658893042,31.77590074505791,37.68434253868331,48.31500916157866,46.130459053343834,36.84537541878308,27.279613102918454,13.103616087086525,5.219159085743299,14.040771910395739,23.838234193783435,24.874773829414213,27.04732919006837,26.680090437813636,15.513028391571419,7.536593754979289,10.16875859289912,10.36680622266162,10.041971057331994,17.835702995142007,20.42129986314939,13.831271947782529,15.189323239233502,20.806628998773725,16.376386185526027,11.078942910088267,9.785945762626744,0.9701435796828735,-7.858695026972006,-3.1985276623469585,2.692146730519437,1.6419765927540233,3.4994266976447745,1.0415311030558487,-16.241169997580442,-30.162604894246186,-27.937161623310224,-21.959280375480418,-14.804132307626526,-3.6877221076482636,-3.7078666328325034,-16.5208527289892,-21.270901579733497,-16.949837022913712,-16.404524003441793,-14.20393180087566,-7.889654646485146,-8.92581980561895,-12.113212399819874,-6.751772403157911,-4.629430177086802,-12.502726154358967,-18.90514154828912,-26.52676900474288,-42.64535644656563,-52.109980048636714,-47.03607050122969,-40.322086836988,-30.733573522836743,-13.144762307642074,-4.978725978693793,-12.559901014421465,-18.93828838691384,-23.283203546547917,-33.758281616284165,-38.530186586039385,-32.778117815840886,-30.635536504453675,-28.799575033086818,-17.06394775387113,-10.550188427540125,-17.638451361076356,-22.40417653828595,-24.295142733360898,-33.55808551560802,-40.703590524246934,-40.943908182752025,-44.25908438533423,-42.21134215448002,-23.598925116709168,-7.519423569289639,-9.466476749332646,-17.981861332679543,-27.885066642136533,-39.06802569958969,-36.659292135759465,-20.737855132980926,-12.34806346451052,-12.840298958227772,-12.561902117459912,-20.40933532330229,-37.18520220880702,-45.47205493677189,-46.251293927627565,-49.6368425148401,-45.94845015996082,-33.855393194577715,-30.422295136267735,-32.25938055298625,-26.168984503358672,-22.235544441767495,-25.29173046722908,-21.259680960277127,-15.342477445582801,-21.352463507712677,-26.965078924952657,-23.485979009615555,-23.16453868667612,-23.063518212724002,-13.921987367175099,-10.554564081826594,-19.863886265394378,-24.95550969943604,-24.485705309890857,-26.52618381335259,-20.396077375479763,-6.3506272651503,-4.905935768308425,-15.096244061099778,-21.439815142856606,-27.340931505101224,-33.7184731537418,-28.517688859977856,-20.216956586580558,-24.469267273720614,-30.07770640844418,-28.20661202314486,-28.6115815439041,-24.706894710796618,-5.894370446195153,10.873351701394308,13.539414862802682,11.136918068714543,0.16344734818752915,-23.0565918211198,-36.208400317647374,-28.221845409310568,-16.73600080949802,-7.810275094179822,3.0162303002511117,3.35393748661512,-8.484484897409551,-12.36931007067968,-7.823999697598097,-6.904774777209741,-1.88262208905412,9.012304516976533,9.944744096328556,2.8070396144196446,-1.307138262307625,-10.121880350600177,-22.335627177231157,-18.20710966285601,-1.2481420982683264,9.493108599863483,15.624639125495502,18.25185304998386,7.567925212841554,-3.181738672863448,4.34916947549511,15.089913019973439,14.857317626684353,14.962554706071863,15.244225885248008,7.14902044283705,2.833897774844907,7.113809895210445,4.887578789368757,0.40655282267566695,7.8426411227754285,15.144472592923693,12.2853743461108,11.569543153206112,12.109137937525,4.749542171214707,2.3289348445770317,11.20122127416455,15.23150755639368,13.790030393685953,17.855115088160616,18.07070020495083,9.555153145107468,8.428978594890507,13.749390376398896,10.739565937666654,7.033620989382046,10.280772158658577,9.093467145267972,7.205505249856088,16.025498557627827,21.79140442876181,16.703744710738093,15.882291133851789,17.855089917283266,12.141943389965128,9.467796648083633,13.344463520985837,10.653342853533392,7.926412253827485,16.606978180282873,22.07381319164053,16.324257965464646,13.140790531183026,10.757425604203345,0.9767602255284893,-2.136718764227325,4.9162760812645026,5.256816966043083,4.105288819260801,14.690652863114055,23.65650580348514,22.01159612790314,19.559286781976727,13.171945841376834,-1.1426633667654826,-4.842069907278853,9.493879197109596,23.911604271981243,32.46967795708473,39.33279874043725,34.15654157273745,17.949347633256707,9.94934279619537,7.562940199726699,-1.5989911672324455,-5.672622709618345,1.875924279137625,7.01252152494277,10.400180607483055,18.02968954435687,14.747651983639889,-2.134709198431974,-10.259712523323252,-5.839712505042655,-1.3653261372324668,7.100942612660529,19.659457591073174,20.10409011873048,11.287186936593763,10.022683934650098,11.281591165773058,7.969155739673612,9.182962508683175,9.78042606254045,-0.26505421557379893,-5.2225299328749,3.7944915159462314,10.206645950648815,10.457166459339085,11.732383630649437,6.045690242460307,-3.5989464530195456,1.0528273352756292,11.085197566144005,7.160612652711432,0.10765700817464685,-0.023833326437421976,-3.364799073445246,-4.707712211345891,5.4123750863645,10.778145136098706,5.360953363580511,6.92101229451382,11.26190158630262,2.4330485830877393,-7.135443349430819,-6.51667869340096,-6.994244928619188,-6.042464377805473,4.650514980858956,8.549366589236321,-1.9928914848063064,-7.256958970998832,-3.3670458089084394,-2.378146350984784,1.2777622619069469,9.854953687512786,10.60423769874022,10.56753307902667,24.52557864310276,41.30873134085961,52.95091138074143,72.55463416740248,99.12289976491331,123.69155018397495,156.4981632581124,196.88344638238908,222.6514862404791,231.3993878481152,234.2329922799947,223.03280644780324,195.75151511535148,172.41262724663417,155.67642575064878,132.87811508600402,111.92130713759204,97.60751197591767,75.12483114684167,48.607678501599466,30.906511380419346,6.966893146739056,-33.01508493180598,-72.21808315214153,-105.80856594020949,-138.0665507015068,-156.3125414926221,-161.33832778137418,-175.38024919076213,-196.93842165538712,-209.93886601127386,-221.2972905156528,-236.57747918708873,-242.67330906451315,-241.08589796152617,-243.51192131781957,-239.93778680172193,-224.03488711547146,-212.59423779672773,-207.1221620481408,-195.9784729605914,-188.09227376646754,-187.7740986242475,-180.12133444457268,-168.5048549182783,-165.00851292386645,-157.50555152128143,-139.25836473982451,-125.28860067953042,-117.07173242538418,-108.07890550964076,-108.18343743118241,-114.02668942571071,-102.78056567975258,-78.87311517869288,-63.86161617126886,-54.07154701473255,-44.46427750571553,-44.514245425991774,-44.0040996077414,-27.919444565677722,-10.620669976865058,-2.463003580663887,8.699187426886223,18.78620286558364,15.389154228540072,12.972209201771237,20.98562675505601,23.381559552790424,20.311354529720273,24.555256116933066,28.46657910635426,29.71020456491424,42.43107057506881,58.49920592490756,58.59797289391682,51.54250797509005,50.30130426751214,49.843792920956815,55.871425705320355,76.75436316562312,93.77602991507545,93.34575680437673,88.76583894492491,82.68689535498869,69.98270264512689,66.63169484293955,76.91309203052145,80.6898520702277,78.85860770995203,83.96588833544646,85.55412396559421,80.27347375383032,82.74052241510618,85.93423424657378,75.81893055986826,66.78660599065972,69.67455764130577,73.0487745630856377.66202116567138,88.55853547618027,89.75608913822856,77.18300906953478,71.16136237801615,73.8760398378401,71.22486111408807,66.99280582404005,66.12099179779179,61.608743470192586,61.87575689405778,76.20969329527792,84.29782993389861,73.1181255541371,60.65223135819613,55.80608836976065,54.24772095962695,62.93377261961342,77.65258277960255,78.68294494724204,71.23458063703046,72.75093333962323,73.5888299758838,63.765966353080564,53.99663346112661,43.63240203099579,28.524382058502624,26.19376506180203,40.513658455638456,49.17248780825748,47.09977499349607,42.80536371717242,30.39572847617565,14.814284644625639,17.04039085832464,31.30975845324012,36.74391715601939,36.67904980729622,34.61956980459645,22.046332756997565,11.944649367183535,19.3798294287343,26.938197338242812,20.993984575107447,14.072286750526814,7.969237089707824,-3.8566893994881553,-7.562352821177105,1.7686683703074766,5.260866533543982,3.2236668994181814,9.44890723004987,12.165374358471745,1.1075451285947748,-8.852024665679707,-13.636955678564904,-19.485070166384013,-13.980255395125594,5.008526957227797,13.456613815449016,6.082447063166772,-3.1909484556689867,-16.94346427744769,-33.09649675433419,-32.95965433143098,-21.36343454905309,-17.150173530180144,-14.97566404388467,-10.531964020464454,-15.757367639214117,-23.706255004645715,-19.910489284356146,-15.313754300334269,-16.39994887862246,-9.917657875829555,-1.20830187937765,-5.008261439582535,-11.147756687261193,-12.384465418411267,-20.44283891455335,-29.115347655810286,-22.8244025052364,-12.378864765226119,-8.629714577293573,-3.145741719397634,-1.7300244236789832,-15.18516775825478,-26.967815961579248,-26.291551047696473,-28.45651393915155,-35.296019585669754,-36.59319434932553,-38.975121237422236,-42.58421858900613,-33.57077314658193,-21.43020185697151,-24.539281095772655,-32.33024034827854,-33.35689059685082,-36.26955893154273,-37.712441130613634,-29.189625330431923,-25.166039867754122,-32.98447317701125,-36.96847289488877,-35.3026608191386,-36.742348390351935,-32.498556413012224,-20.624905598683007,-19.42291570009787,-29.407843222053025,-34.11755986666099,-34.738237809962264,-34.62771677475648,-25.020773499106653,-15.505243493493648,-23.23672417691289,-34.94014488292131,-34.71654630031281,-32.28997573921851,-30.17124534562501,-21.16840806571323,-16.415564018124247,-20.541778441521586,-17.529815047500893,-11.483643689922758,-20.25774105941759,-34.43016930104087,-40.42799121839482,-43.693262061880226,-40.64435011343363,-27.4034280154537,-23.31294934443802,-34.28146458913532,-40.27738890582156,-39.725772729064396,-44.13577721900351,-44.66597938744034,-36.62858198176292,-32.670041227739816,-28.83229471860091,-16.36218878137926,-11.739300294804691,-22.037019046699818,-27.73418430565971,-25.579402628371547,-27.606332472129836,-28.170723462280264,-24.417785532585803,-28.337470093422418,-32.31249476681847,-21.356551742860134,-10.130655521787745,-12.513897757176963,-17.580845897899774,-23.06341748850776,-31.35954391669565,-25.41119752964964,-3.3749429577193393,9.169338118830177,6.524515277609019,1.5359838676518878,-8.590403905970003,-21.553288245679635,-19.020469206661907,-5.1658000973020295,0.6432591373173037,2.811349642073889,7.341437360794675,2.522529104351618,-7.288046169842634,-7.5922789699433615,-6.892689007170451,-12.619783095955976,-13.038417858197088,-9.485831378673993,-12.750005159768774,-13.672053871419942,-6.584542818388739,-5.458928968299491,-9.989911199559558,-8.09862986847369,-6.033293688395764,-7.81456569376743,-2.2025814021688106,4.701922865311241,0.002027819271976483,-2.603438854183195,7.055597008890031,13.71023799339281,12.362900044788628,10.017784526426865,0.2942738089397001,-12.867449788191033,-7.946944302633976,9.281585294165168,15.22725320891184,13.969754342597964,14.66039775672085,9.290699562034685,4.463444240444023,12.522462516796157,19.90249210173561,17.610121190599124,19.03464289868211,23.14625407265362,19.252781873348354,17.208660911476667,22.26102245930298,20.37412309315528,13.64611351746683,15.245954984618797,17.423053162152293,14.319997999349518,16.84336393757513,19.891473149663746,11.708548241369616,5.680192162988837,11.124196659873578,13.7628913800341,12.665040033674419,18.761588130146766,22.36135812923593,16.733062243800436,16.4814767183678,20.605848234026027,15.780590074510549,12.854323248279822,20.430602126599375,21.081168738190605,11.01577218415557,4.906592484537357,1.547752300541344,-0.6484219503096167,10.115205161337807,25.522596380461565,25.99508547844009,20.21805380266227,20.93104029391506,18.99530836889311,15.123046721035324,19.533256781665745,22.31674322357879,18.149594891816808,20.27957508572983,23.09813254910559,12.400354133946706,1.6853381305469755,2.1742309801058566,0.8150854159793379,-2.875347374460358,1.8267612680431569,5.789536020032609,3.383253601953499,7.915069448927068,15.602378858161964,11.438174842672561,6.5564214991034815,12.970621943212494,18.17043160671053,19.598861983192634,25.335568620252484,23.72653147368151,9.912170890340077,2.3288555567853115,3.3786884848845142,2.290491158618079,6.948284044087423,20.08967192016606,24.988077410243058,21.775664790814485,22.464735931839463,18.675461365098002,5.636577175875133,-0.9102100507671518,-0.089449253613896,-3.104838375730511,-1.3619587151145494,9.280925129418566,12.159124175966404,7.868156707561067,9.605748994634592,7.626557518516888,-4.922720111752291,-10.174708799427796,-3.436488140416283,3.6517379985102636,15.243884127390947,29.514191041794973,25.194307476543173,6.2372150466217064,-2.074430549718436,0.3793656302835584,3.8520639594169293,12.166024192907809,17.06671920382346,6.141536364735987,-4.869694211270011,-2.1307835895949494,0.7461520633356591,-1.196174752653394,0.858659800202205,1.6189279674414685,0.04622984244002848,10.05024664766523,25.76080426685608,29.6847553726395,29.04008775953541,33.62181204039411,35.1606414113851,36.59864129302319,47.793208118251,58.573269260835744,66.11473276385854,88.97508388357888,127.09929054120863,163.63397447025486,198.2123398245782,227.618232796951,234.31668267876844,224.18982629904212,217.56348707575864,209.22008741443656,192.19385248308197,178.25905638299503,162.58996628528328,131.77349269498092,101.82390094683274,84.96446968535685,64.35876480125364,36.53310382247551,9.988789728557478,-27.67086979421874,-79.48683251917527,-121.52134279189735,-146.06765738313973,-163.05374988228087,-168.08209339761785,-163.84809320891299,-171.51660113307275,-191.25234474543004,-206.32109503341934,-218.55711898510592,-230.820073674693,-233.54396726664896,-234.12342400426573,-243.8122568584805,-245.52092851410254,-228.97619039899655,-214.20741625390923,-209.3788089944615,-207.09140993414204,-212.94887108423794,-221.2961842047899,-209.28265688029546,-182.54492211045482,-165.44201251299785,-157.53721610027563,-150.76588182996366,-149.01158479117967,-144.59283453557828,-125.827920568253,-104.17968308396854,-90.84198671179422,-77.80243281404182,-66.95417454576726,-69.00498412112118,-72.67599301205905,-65.1625879986641,-54.22766059187811,-39.03243990251231,-14.897861711469663,-2.8227902632267945,-15.001882683598197,-29.658844549459936,-33.585849583173555,-30.183690069183697,-10.466976969456075,23.325755432723536,44.74781722557859,48.1077297413189,47.157162381753075,39.27678562085603,27.89402816201585,33.68424037668581,52.916218339337696,65.0109789811774,72.141460169938,78.0628326125804,71.05310308782616,57.97695189846034,55.938154544146784,55.10217801507414,47.066033973763304,48.52890479521923,59.753537356697684,62.92190881946388,62.51752738488709,67.31194839690993,67.7359636649907567.00897158225722,78.60142581335714,90.45623415248163,88.94333047743022,86.5863981887758,88.57483204695207,87.0026192907626,89.38396112541005,97.51884058887073,94.8135160773362,85.89369716377854,88.45190886745141,91.46982774705626,81.91330293440502,71.76031116100735,63.89654031666274,52.51819036351121,51.364710035143325,62.397368870208844,59.97924654598913,43.57934225425882,40.96658919902588,55.44895644073853,74.7184303507853,97.21890758479367,107.66084062209814,89.73282515230429,66.43827240847708,63.58094293588806,71.52863914946373,80.62445515736734,91.48055935343956,89.81828121906368,69.9499330059184,52.033017707779734,44.20680380747265,38.14912897910027,38.76806567569513,45.15679107233409,37.349908636663955,16.954713638852645,6.583314564328729,8.112758744104369,14.438942773441616,27.893758462804946,35.68464523845384,22.731288781968395,6.750766301140686,5.966412064421548,9.624615650186737,15.519346726257158,33.11895794716744,48.512122653529914,49.938247697711645,48.870588764405554,42.57294577466664,20.4084523409668,-0.30769004809224665,-3.716015786051911,-0.9535239559848416,4.087002118779134,16.3713778392527,20.219633195941782,5.5834652981336355,-10.643289179916684,-22.382904273988114,-35.9476623893477,-38.788033339340494,-25.308386883947456,-14.83350415871824,-11.208393940697267,-3.873470290802317,-2.2197506746359292,-11.232677537817894,-14.27911873386237,-11.66290619572214,-15.927826570306046,-15.818088753913829,-3.4258702794976954,3.960631791887322,1.7030253396450916,-1.5622370158847447,-13.850175776830957,-35.196897550178946,-43.895419806381405,-39.3718896898932,-40.859987730490914,-45.73885426582687,-46.45039901854979,-51.24110228901049,-53.64558257155829,-40.498589548622604,-26.1563062459354,-23.62778355309733,-21.392384510623437,-18.735064462175256,-25.1342244973964,-28.50345240129266,-20.48942819815379,-15.731075211578968,-14.296413441944077,-5.076448028186855,-0.29461645590668684,-7.7669021294018865,-11.1745437747745,-10.501354549652028,-18.75914986185884,-25.512737697521658,-23.364739973500274,-27.696236245864874,-37.755343525153926,-39.67581951115501,-41.76375908684754,-49.68339146660817,-48.10117555316302,-39.083642743157775,-38.89768865124927,-40.64060706902591,-34.64695919343646,-29.48347381927182,-23.40316153945868,-9.844588166270773,-5.409639946854199,-17.56878700816866,-22.9117235201883,-12.251749751833316,-0.07385973656580136,10.606048975007065,16.083551594325098,1.8317695236916736,-20.55112960423983,-26.40072384649345,-24.65640402874275,-31.528545042821055,-38.864680899212296,-44.66525540460946,-54.54807836571188,-54.99646925034664,-40.26353408714638,-29.04036902481547,-24.9440150176665,-16.881859001698334,-13.025344714583852,-18.30481666033989,-16.451055771390504,-7.091549853762162,-3.248658895228908,1.6375426505852295,10.652079531356797,8.961762006248918,0.23735630061989044,-0.05500682216090502,-0.3523717442110053,-9.480600349836324,-16.272564876950746,-22.362017919147803,-38.34195609772976,-49.96545763147538,-43.7887787869929,-32.11308468640179,-20.05588840066861,-4.103170610000108,0.46687253312250077,-11.80754692923744,-18.485645327515414,-13.33209723108695,-11.2493224894685,-11.615102823042362,-9.950910257595204,-13.30192681981738,-15.053314914077118,-4.19566975524928,3.17755833383036,-6.540869284980614,-17.60587147831661,-21.63390303719646,-25.38631481522066,-23.16658784833983,-15.302675508319378,-17.46304722770134,-23.67527413205627,-17.075238083283455,-9.322174165360947,-12.805900832673624,-14.675028379262843,-12.555254387804741,-15.683614602536931,-13.068803761915536,1.2635852891643475,8.814418288497404,6.719994820685022,9.075268867680276,9.55509689479116,1.2279456905334252,-1.0040098712499266,4.228567007437661,2.4463677616693476,-0.14951079237013776,4.699344240355826,4.189922061486149,-2.328437391791394,-1.2700540989046067,1.2611685268670523,-0.9744001827149005,5.627883775152304,18.314183872354743,18.932134433246993,13.003946427021315,9.9030860581892,0.6770590559228911,-9.006712897556682,-3.4907065389978693,6.367411201132218,7.940110506029869,10.873170810918605,13.000137679118117,1.754805855512406,-9.71235014639904,-6.314389882278172,1.7915620929518747,11.6818286792307,30.38929032332643,41.66625573221204,31.308417732249683,15.568170254958611,4.432538255190025,-6.32716583145275,-4.812234233474345,13.319253993786003,25.670772312878196,24.75035215823073,22.267406842971944,14.897766380109784,2.40335046357279,0.9381885556720997,6.556761741750706,3.9449383976897776,2.886960040436061,11.909063391699704,18.317740649404534,21.766725778438175,30.51307612156916,32.67809796133754,23.113269209412103,18.74688860073771,19.01173619759625,10.987877883743572,5.3292813782267565,9.577876211103732,8.593856029066245,2.1137645044045836,2.4673370772840864,1.6121258286354025,-4.994172463970759,-0.9060995681660922,12.220339343434775,15.902558664832668,14.334287054648208,15.705653592582337,10.507812060066975,4.866383802249088,15.452539048369,29.876467289363166,32.2475736633204,31.45175407509101,29.43255563094826,20.644601743665504,18.731855598857543,28.885233698895924,32.2165823729499,26.575113609102992,26.127702407448766,25.103968517513714,17.123958489905778,14.45121378207384,15.795443521988506,11.64016580589954,15.898528432702928,38.01373481173122,63.57953485853305,90.47388309692433,128.59815262371768,167.48972207227138,195.56037264181003,221.36685735697037,241.95775847468298,241.91450789531544,229.3148744325968,216.34950547006696,197.18870207511594,178.71035743889402,170.12986520218348,150.5663155002668,108.86347078866646,67.4175848017594,36.32883020056828,7.745729967938875,-16.52928757141014,-44.122577157850415,-90.3710222408592,-134.49181563669075,-146.6888368345237,-143.90596559811652,-153.0655893757961,-169.5513469181871,-188.54918577082898,-209.68979182208557,-215.905500972433,-206.04672610960984,-204.78273532558651,-211.44813343564846,-205.56803552149643,-196.7715755417138,-202.68063862867484,-212.98354677531955,-218.04664390705227,-218.57422499858828,-203.23029347383883,-173.78633054756122,-158.60363031826932,-163.57204758907358,-166.8029697401745,-163.6847427588302,-157.94002626240018,-142.2272926016112,-124.86624711115847,-121.08515619553255,-119.014490220445,-106.0724784297477,-92.03426054076529,-78.13690186297022,-58.55093376432637,-46.43557859730819,-47.338084162391624,-45.09496055372058,-39.48862906317221,-40.126022371639536,-34.17602885078549,-14.272499723826504,3.1617977732235016,14.427285916822205,26.458344985455387,28.69279231996985,18.562125086325004,14.447804153324718,19.13016080380123,23.47667375115188,36.33656840916609,61.620063559245736,79.00961825760612,80.17977149074295,76.82196500398497,68.078550802345,54.07457852595566,51.70821124590681,57.96237311145511,55.33703098954349,54.48384954414346,68.09127496500821,81.24626850176088,87.4324012803284,93.24185745829638,89.07063754527269,73.79730647782128,69.9318650335615,79.96805127722877,85.15914990500164,86.11491338499759,88.98794346392525,84.87268986264428,77.9410313967004,81.87452654449163,86.31949123540976,80.3821528105151,77.47901099200982,80.68146312536959,77.07520469478125,71.30218734442515,70.70498545876133,66.80433091020664,65.11432972488898,79.66420749419228,95.86784171835134,95.12118324632951,85.07536819820106,70.40869267437512,50.23752432352056,43.56961242015006,58.17168779653785,71.82141335051294,76.25311477263793,79.44596484852235,73.18203255528613,55.647698938691875,45.885443434645225,45.771816553251846,42.95358560262132,44.815593138248545,55.24697798503975,56.00941085843350546.44926800278568,43.249447881202926,40.880791319350074,33.36444541382984,35.522446882018265,44.4953823848997,44.031756880514045,42.75703245850811,47.52749819938005,42.75162597127863,31.223924437514544,31.169008674544415,34.87918378464078,30.676061630278177,27.213771185305898,21.60610114402788,3.7260075731722413,-9.55983060942425,-2.792577857710849,9.417464460333774,17.39874758364779,25.596214690850932,24.64579791487066,10.554732900689547,2.012478881381096,2.696960634105142,-1.416637180023428,-4.815996573134086,-0.0667261751304058,-0.7425849846842634,-7.417307568965555,-7.087001558933453,-8.679151751768497,-20.421240315400087,-27.97469753769567,-29.382850604893413,-34.51231099558745,-33.96187326317548,-23.794351683407754,-23.691720585069024,-36.11573025669246,-42.28308067376778,-40.70012439745479,-35.10336197424151,-17.57945677043976,-0.35614308671520867,-6.016257918152637,-22.794820683666632,-30.30216465086044,-33.83297446082128,-32.930102216814014,-19.86769141750422,-12.788159544756821,-25.456769498791726,-41.01375603727693,-52.300503981524145,-65.6220000505047,-67.91719035054827,-51.96147318629956,-37.74430614171741,-33.22374651912379,-30.1800377736397,-36.61262657173853,-54.65132535484071,-62.43410999665404,-55.11400496894212,-47.46172219540899,-36.42260542767289,-19.536079349562268,-14.40227067878352,-21.584433587142925,-25.49449852982091,-32.49372094532924,-47.79092061519762,-52.75322406941565,-45.41439313608055,-42.18160265739388,-38.42162120521655,-28.862331985980873,-28.115259740989085,-33.19622732479933,-27.72949685417172,-22.362090258322244,-29.441933482571535,-35.841742584496686,-37.84067371820501,-42.340781981857766,-36.05633882622081,-13.836041435628658,0.42775262574223216,-2.5237172205142686,-10.401369197902092,-24.24546328004212,-41.03787678120916,-39.89802727075797,-24.089836366874934,-16.637543613445132,-15.726310043976214,-13.245940250700626,-16.455308983508775,-18.12302640989856,-5.422529784868186,5.959849947289756,0.6046586529140936,-10.26159423030049,-20.950397043822242,-35.74452142340888,-42.135510671833444,-32.458108264808715,-23.046873551903133,-19.30844870414624,-11.791551262116837,-9.617430965660416,-21.150606555252132,-30.259000382939703,-30.978606974221062,-32.57164048203124,-27.527452217968953,-11.22103093271761,-1.5642362767148092,-3.9266966400478607,-6.452858430558688,-11.441374539249022,-20.206140604061385,-17.20655668964315,-4.723271524828215,-1.9199728329157484,-5.452400902407598,-5.194273730387739,-8.025622466766867,-10.828966678281594,-3.195546658136704,1.4362824163803045,-7.5927988744770545,-14.342562681365193,-14.072007830968108,-17.35272574067185,-16.818751164808937,-7.775856378185564,-5.719934940934376,-8.554376632848943,0.04111194039477928,11.769692625820367,15.785995261093737,21.199481206800282,24.30798227473197,12.871152628995217,1.5089938000220124,3.8023281538711267,5.707958230513064,3.9394763141186178,8.553239953635128,7.573418227260603,-7.434840232894702,-17.632606555450728,-16.307457137122103,-14.654777739697225,-8.139175949150474,6.128853938845419,11.344487799820131,6.551588645406571,7.414751242271086,9.347873322395479,4.323883048742292,3.8184943100965056,9.00211734911484,8.710276884872858,10.507172040528399,21.611853523526328,28.645182241735807,29.870024411739088,35.27176612291228,33.41586705369508,15.733458510626134,1.5908169142024733,0.10573814694910344,1.6829031317853222,9.395945360409995,21.695587191653516,19.69553648669195,7.040120393654305,5.296503636362406,11.73350524954052,17.32082782063119,29.224555075651054,41.0305486045977,37.2218720296315,28.234184173019212,26.184796169334263,20.27227538511265,11.852370448914648,15.4406756146657,21.367124454599637,17.670605895878225,15.261264612628281,12.997289823600084,-1.5079238539694018,-13.99743744317008,-8.9100644394285,0.900319587178612,9.096225612753216,22.581076208431337,28.70583629660299,17.563409120119484,7.15326893714008,5.485519593149419,3.225568448872939,7.979577839540891,24.27780830896666,31.056505662011997,20.903330720308823,8.400973461329261,-6.080627409499561,-22.545668040916265,-22.230244980718393,-5.377466547378866,6.703401510312894,13.63829434900537,20.278912240020926,14.638779671708736,2.513099644347891,3.659272174568549,10.42085283985832,9.900546046310167,11.594864402348763,15.26434488922374,9.827006569900206,6.879041264949958,15.161854650714673,16.73505789395656,8.143931501412814,4.452596914468753,0.7678512587181339,-8.783618438285462,-10.337924708149783,-4.715658544193456,-6.166843615917407,-7.280142760086003,0.2560225841543371,2.577664674988638,-2.060342093159998,0.059102449830968906,2.3702645602651637,-2.604384359241047,-0.3833202114106058,9.940508637622,14.234850158259004,18.78773814481165,28.568621380541185,26.297368541115432,11.341188231471223,1.2367703519864424,-7.104070839671435,-18.411689277525408,-17.90166963160295,-6.720956238941151,-1.1974081591146792,2.299187017077376,7.634664245467425,0.8566811488937462,-14.743786285768344,-20.149100095627325,-18.498911987501508,-16.746625651773147,-5.087869093802955,9.332506350247225,9.344215120390023,6.210062097785263,10.812262781919896,10.039268033649458,5.498363290074419,9.979908609069188,12.257539129710628,4.999146389907948,3.268088104842282,5.119512816740536,-2.105261589430931,-5.881084382635024,2.471888910114748,5.9891539957654,1.4157834340400755,1.0991366619799685,-0.16421583880275908,-3.673809785224109,7.042129443500768,24.52352698613155,25.730044670065148,17.541342615676594,11.95972552441425,-0.2580908842496319,-13.159631871868148,-8.916950571041735,2.1675828715010397,7.682836201658796,17.052157614666697,24.157031041569432,14.023853263299983,2.5686270020986672,7.407036617809005,19.312855362451543,35.32442724311748,61.62860749123647,87.72713397095012,108.9210812887334,140.85343398188724,183.84265238673012,218.9149679924425,240.79129939431476,249.7297982678188,237.04354008145043,213.2951972612728,201.1930296275218,193.00438133096546,171.0697640244316,140.43881571421645,104.29767582290836,59.990429028319056,20.287069207422665,-7.968217749336403,-35.912526863403656,-60.270563995847354,-67.77473348222131,-72.35983312211434,-95.565607866515,-131.1858535621615,-165.40284882894878,-190.38394031921337,-194.4019713559657,-185.13263841710372,-191.81367308001404,-215.32949550001004,-228.85735776108288,-226.63301268596013,-219.37355715571704,-211.13017143318413,-212.21001648395534,-228.27511987579908,-236.60449347825994,-220.62515543623408,-198.67389293560674,-186.37106798917412,-179.5207808998069,-180.14094670115594,-184.65842120165445,-171.76375038303848,-142.41425931565186,-119.85222062450404,-104.84552594239011,-90.26419959213179,-85.63055384199924,-87.5001963844031,-81.04025955715298,-73.35473959567402,-72.3848816646825,-65.28342948310157,-51.33073586753365,-44.167514707807214,-38.19316843218715,-26.73275184003191,-23.008456888009864,-26.292509684332437,-19.856874009364358,-7.1276351074224955,3.292917202564948,18.407783999938378,32.28313902192484,30.263214851520765,24.6647745488086,30.513346924393403,37.8453021941471,43.663266905959944,55.647058147372704,62.652136575321734,56.86543625460578,53.59420926836561,55.71642252989192,51.580936909327214,49.71184395928154,58.99846880709626,64.26634346050567,60.53000053045303,60.128409318421184,59.63119519083891,55.011516438339186,60.94436860834368,75.68249784278086,80.17700912617624,78.51285644675202,80.88077894941915,78.53956593936991,75.0287763889261,83.43139142252274,90.42244758186898,82.6312858982033,72.1750833613626,62.922601110908005,49.969880858813724,48.17306445302343,64.6036591945788,78.2275157639221181.26050500694353,84.28965800475048,80.13586724290738,62.295189964557636,46.86207414225182,40.6700721645702,38.749715213747415,50.49186775174958,77.3432061676582,95.99115411797086,96.11476882762335,88.73665463641515,75.01839068193817,56.810509268745975,49.65791566429359,51.28449753176242,46.91957383021639,44.420004973086144,51.00974636921466,52.418162062807625,48.255957612730384,49.90789539779528,47.168545889706515,35.02569383649323,32.089181498707475,38.38542236697434,37.96378435504625,37.39746332116647,42.283446056303944,38.55907338478677,29.89283969967089,32.63154130744592,37.27696502161449,31.40432138798637,25.42351044197583,20.983339591247365,8.8649221856532,0.949423334170957,6.619894402063702,9.217368853094218,4.781554108917298,7.243536801618953,11.507343815411328,10.474310669236587,15.09103640283817,20.96129922237599,12.960647117729433,2.6997362214693323,3.159713735398948,3.904683177989278,4.635374347473604,13.857371836473726,18.862015338626925,11.706956879590706,6.9728824124131235,4.793747599436518,-5.986202656541485,-13.299710103262152,-8.183245597041452,-6.079074088985656,-7.299832137987717,1.1193241983181483,7.448146482087012,1.4565621003090805,-1.638156591246373,0.4022367397177513,-3.3942751848725887,-1.9307578897345394,10.59749215311939,11.485629895969321,-3.9700904787801177,-15.494265432931439,-22.043917915160165,-27.626382043838788,-19.809592354756163,-5.809546046397235,-7.328674634643926,-16.906766430813867,-21.558580145223765,-29.992349592873687,-38.60297497192914,-34.25750316649138,-29.58880582319847,-35.52400829444626,-38.11335408694165,-34.81383786296262,-34.97126537051762,-30.017792286696164,-16.891724371232062,-12.898623232466985,-17.15992163238023,-15.254652929586424,-17.099477491432317,-30.573504994438025,-38.86558616998686,-39.591887156246955,-43.64369150353624,-40.88086417892101,-26.235775543762134,-17.916047412283596,-17.920999699730423,-14.879750655514002,-18.81278575663702,-35.261748028744556,-45.272255688974326,-44.20644005812646,-42.75981029552608,-35.10871389062799,-20.954028719654367,-18.697313777478836,-26.54865557967962,-27.18830133084595,-24.070535636365832,-22.803076794406167,-16.225503746702476,-14.153414536398632,-31.15607563743366,-50.59350754303897,-53.34939278375588,-46.552069175288246,-35.704528940118834,-22.450450683683044,-24.03357196233344,-42.94242916907555,-53.46983868884291,-47.66475255429901,-40.56175209038789,-32.96245216668055,-23.072091825613505,-22.43743311379999,-26.382389740099875,-20.464942707444997,-14.965426184938146,-18.613912517411883,-16.216119962018386,-7.27295591187972,-7.84263783280433,-14.384424289082652,-19.61530874741019,-29.29340312629277,-34.780181538437866,-22.438494482140065,-6.599168082668945,-3.0108091934852923,-3.6091960862092147,-7.146243460966928,-19.519771108435712,-25.923303153676343,-18.211987597379334,-12.618334770640583,-10.101082805887394,0.5042095184765207,7.612969309441279,2.704713675027171,0.11973987218649687,-0.000428034276895195,-8.231896503784684,-11.394308686319576,-1.0087660915730097,5.323541425813486,5.422854053832515,12.354278018765074,16.250668252932726,6.547482908580502,-4.9306421538858505,-15.75137608819946,-30.41704117891503,-32.33032665876436,-14.592095072331507,-0.30530474106714767,0.15510366747491489,-3.536890158688168,-13.197144293908119,-26.25162293004141,-24.295199389205695,-10.806745908786267,-5.654276197115075,-4.208208666479194,2.876548398383355,5.411514169499267,4.3055938996432195,10.604449618663752,13.819500121646193,5.639312392133138,1.1248062930241058,3.2512459457146052,0.013862688901518316,-2.4177479437056557,2.3588229040661193,1.1759125153942318,-5.574352333292004,-3.713398325149285,0.44670227290622266,-0.8662355057303883,2.2944594404833327,5.683498099727392,-3.7820796871990807,-11.891975925764624,-3.2492298970431968,9.875252634009193,19.88457887481479,29.778159394963616,26.572141709641514,6.462665102598542,-7.4073210782557375,-7.877384104669568,-7.458235782839603,-1.3328486444271124,13.490093607345692,19.08116677547538,13.139509759143348,8.885808271989903,1.655089963775986,-10.569448493756626,-10.775776619939869,0.8621045368810032,7.955257976235784,13.870553006986693,23.771142628656317,23.52331163885536,12.899519807253235,6.4938867351676315,-0.21334960957684657,-9.232862367489023,-2.207877618358105,18.57635011851434,30.56076631389781,33.274162234621414,33.62761280325354,24.47854866905315,12.936501790711446,13.942896172480316,16.92024486331432,12.47285126725128,14.072802883341243,21.50878811117735,20.160562055980456,15.620198669959368,15.903226152972476,12.52192547040493,9.250183106350784,17.008881661432483,23.28236666875125,18.27358642593785,15.744202266692593,16.367237001286508,8.122641411720778,1.9656973034809486,8.420773025378942,13.69298808458804,14.216699673704474,19.332591355405533,20.356722245077925,11.60007594698801,8.211613472865993,9.74473177177526,1.8992054946155017,-5.072957155423885,1.6231335937755689,9.299131806195007,12.031252468771394,16.54211977798461,13.515887632788772,0.5165344721322258,-1.82825942673646,6.973646810047658,7.764680229931974,4.537730928582963,6.396181898996561,3.3092507106331706,-2.406458386773432,3.098915408344205,11.089850427679469,11.438830622501907,14.023519570810862,16.58731141289773,7.474606012061755,-0.3446139962408141,5.806697012559976,13.538985041995453,17.777397082444764,23.00962449867559,18.568275096176297,3.3276715677554525,-2.8281299208682014,2.0311470882187668,4.911737100004686,10.76351400866048,22.04215729721692,23.718648676356345,17.063989590163366,15.561674165260452,13.921226418513381,9.184172817283251,13.67308100677073,22.47929981306745,21.379832475732435,19.75987819660251,29.13649048636027,41.6928065820558,56.120117454651975,81.53424547929217,113.21839313004861,144.95817295018588,183.54129400925467,219.44803263427968,228.29796929495893,214.57217527388752,199.96958460056075,187.23051256651792,174.1394203943379,158.33948100881847,125.84631937356994,79.95636531769026,48.404257786511245,36.4474047818299,19.912008224093153,-13.27379022923647,-58.29343708088335,-107.40141083060917,-138.21780809753312,-135.64954603183685,-126.84636317490506,-138.5487208673993,-159.4691696663308,-179.84442949017335,-200.9422224458886,-209.06174664419495,-202.84234054313157,-205.24696296688637,-215.1118380859565,-211.31474416054354,-199.074648152299,-189.3584208794838,-174.94310643693024,-162.11783345298227,-164.76183114714536,-169.35207223813902,-160.81040345762028,-148.40335122183762,-136.06108005574322,-120.3364233483461,-114.69126130845173,-123.03128176905781,-122.17032455659803,-103.95519818047131,-83.27106917954401,-63.93362462129099,-50.64086099016302,-57.444313366081026,-70.18079453973523,-62.51577282386848,-44.29272671106147,-34.58255816153573,-29.167978020718444,-27.45228139565522,-31.621680044672694,-22.458331679494382,6.335305203426477,26.557064306397603,26.310049819854488,22.258392380822166,17.284834315729903,10.40764718596959,16.079428725147835,28.935312423230783,27.606322755919305,20.233488903878733,22.700272776760222,25.736641522326085,27.096544552419513,36.83183707834158,45.446018099390635,44.800849052499025,47.857863167775236,54.3636746310512,51.14774948199753,46.63148374085921,52.13590543460292,59.26834033204831,66.83811940760002,80.00786373046773,84.99846093350305,75.9519316787492,72.93832142158718,81.0426473296742,85.48509968423288,88.06299253552176,92.41405210155293,85.81949875615001,73.06461015225692,72.37448121852168,76.77878508220584,76.6040636877881,80.8813990861465,82.90714927360051,66.86649210695975,44.80834990770454,32.05593003571743,24.4902908164723825.64765622699228,40.88907808277106,53.46525568074267,53.846981906755744,55.2119650561534,57.388648305172914,50.579417444566744,47.25518385413725,56.21538538646479,62.62599416830647,65.23900369906092,73.43573157919563,73.77245316169414,59.34289551298643,49.51715267575821,48.054001419677064,43.08597188405929,41.58336015065507,47.396910881835055,44.10173029070453,31.28535518300597,23.255810783285213,15.52775274763819,5.324152952832011,8.193451481020825,22.988664108317707,33.93947535234126,42.50097282436361,48.79320321047264,40.03535846920315,24.01141791202361,19.601721072278096,21.253081926886296,21.68850990804808,29.43146681442649,38.073116603505525,33.23987311684391,23.90834529122766,18.64959802111011,7.046131843566411,-7.275421015867327,-9.332442241280816,-6.962291993298443,-10.198659957667086,-11.008262230366295,-13.573792155407904,-28.211403809483638,-38.90408632448933,-32.239214397165824,-22.36002242997304,-15.584894723521636,-6.034011251235797,-2.5750322757395505,-6.733165303349437,-1.89853636496319,7.412844511032334,3.4426372429979972,-5.617778629934148,-8.412444744022533,-13.758990740066118,-20.087847606688022,-16.12240360629373,-12.260457095543984,-18.66121264723595,-24.221774572446225,-30.03264207860092,-46.40239503178469,-57.28332980313231,-47.218148034238425,-29.562077727469813,-13.639031890572248,1.5561943489764083,3.2570827996013154,-11.03492069884608,-19.865377460315873,-19.214418129780178,-22.199607181659623,-22.72443766629599,-15.881747494575341,-15.657496766451082,-18.86203051277841,-11.13362558539923,-5.16470829752089,-14.181759711406558,-26.42481261449939,-38.31457289864116,-53.438917628759754,-55.50804553302264,-38.527680964557746,-24.559737652578832,-21.986960342029946,-21.42305832796636,-26.903344755735038,-38.39650635658784,-39.0619196604846,-30.59964952736311,-28.264197710985574,-26.514708307911683,-21.780624384201225,-27.111314772814865,-35.889349197595,-31.74841703907057,-24.130532431702616,-21.919532471532165,-16.332903070417444,-12.70166602607112,-21.067592327428425,-27.34146037934977,-22.160431169051634,-18.507248716197736,-18.12125695544796,-13.827474802934113,-15.454038014564889,-24.732272859389873,-24.332301581355555,-17.683009816241285,-22.110649647911405,-29.720624774486083,-28.810567456991954,-26.14547470368327,-19.526051357209635,-4.262154486950717,0.3859642597020112,-14.094828661793148,-25.02847841361751,-24.567858438838336,-24.97895522000276,-22.260791606553525,-13.959135033376608,-14.934190914477817,-21.32577068124407,-17.425237614962324,-13.623097726569997,-18.888658721096775,-18.44944351226748,-15.074621620330975,-26.20304274893645,-41.030447025236164,-44.217791957383504,-42.59277589591401,-32.82604076006381,-6.833138720253698,14.659401448909684,14.551630639271242,6.396072728307574,-2.9505726493239046,-17.244781125574704,-21.605943162090313,-7.488149611949443,8.069427764083168,17.678509391906463,25.455545442049562,21.330591001280506,4.525885031551161,-4.385426125278437,-3.8066343547724384,-8.08389793598194,-9.451811063110537,0.191913530032652,7.127660778511275,9.48380872662898,15.275071830004558,12.026046816118946,-3.9350813678222023,-9.43745577528599,-0.6156480947966458,4.1550280563346025,6.652725197345454,13.503370106935973,14.197955429545136,12.47898089455137,20.352028097497264,23.055726860648267,10.428064677301755,1.1851194787142059,0.7400483137797661,-2.6370319582034267,-3.050798851272141,3.094498206928814,0.9410102849213002,-6.176967529944273,-2.2046592391781483,4.051649934357945,2.6040231919790657,5.033643328570362,10.689643152240953,7.114302504118437,2.8982203345200332,5.563418156044349,2.806331107043794,-1.505772341436867,8.75985366813034,23.798342523530142,30.41191173567063,34.93371610300111,33.43846656196886,18.713602763563806,8.61073138172803,12.712701087507407,12.434112484004594,2.710883983788448,-3.857113756211266,-8.938813457295224,-12.324399061316083,-0.6959862919685174,17.374518796214144,20.780940597628415,15.809741133968739,13.835076681483343,8.75656341275166,6.005193118069867,16.953058679166098,28.329762588379626,28.175600357315346,27.23270594339698,25.849206600907245,14.781870333144173,5.477260867093174,4.983464796769018,-1.0230352608797215,-9.29901080296351,-4.35565608835004,3.4090546369384165,2.783215322430423,2.7613933444115797,-0.6314448680752482,-16.02301041739383,-25.035549763985614,-15.564497446025731,-2.5131955497041227,10.879916287462349,29.31225961766924,36.289110245131404,25.4695952392304,17.10481997997073,15.561532909644258,9.463620909890107,6.20548774560571,11.014104996919189,10.504532269121006,8.041063665612235,15.643556379069615,16.667775220617006,-1.5674615399110277,-17.952056927267655,-19.445736223557766,-12.891285712047775,3.9938806580935777,24.508557403193656,24.83433745484016,8.51984259861665,0.3518800331144334,-0.1365025914246989,-1.6331075347762862,3.5732191298901936,11.413949688403312,9.27845082962589,6.048230435736464,7.903782255927503,1.8411124932298666,-8.893980367868018,-8.728195514381419,-4.908027784239069,-7.324517067314684,-6.538002983375132,-3.0014293890673773,-7.607027778558199,-11.44308676164426,-6.05174311188392,-3.8094746075979873,-4.900169317662782,3.2666200100234586,10.99492844703206,6.409844713158205,0.5443206191233507,-3.7813826036944773,-13.905992075948205,-16.817756629190352,-4.347910441141714,6.4884904689911105,12.484351846685861,23.57237158092622,30.040506432189396,29.48586505896388,41.81794663215069,67.71328858902234,93.18280807496674,124.15006739145241,163.91841646682474,198.2979305797528,227.18080038126632,254.72456215857585,261.39426844655503,239.59586409365417,214.35945600584301,198.95114429500484,186.8888586848862,179.05702136218773,167.69495758521055,134.75854151544436,90.17156874978537,56.59302188546289,26.235845971577767,-13.455782960765621,-48.02709617228379,-69.58591057030603,-86.08731697085648,-91.3782228155177,-89.12446925612225,-106.03962606343751,-140.1153128759936,-165.76412769196745,-185.26287901882404,-208.4478053135045,-225.8516019736149,-239.6234613617824,-258.59874488555647,-265.9183489301938,-252.57199153733205,-240.14446992955055,-235.567217172709,-229.4008612804498,-229.2284889777522,-234.8462717429093,-227.26809158596944,-209.95213141865878,-200.1724199110983,-192.14006387766204,-179.26116228868455,-169.4340316176836,-156.16430090231276,-131.52983875042528,-115.30518887427698,-118.79683217756347,-121.44651732553535,-112.95684177995012,-100.18166170836595,-79.04221814071666,-55.14781019132093,-50.321324241228375,-58.471976903707024,-56.25194507163566,-48.70062411578224,-45.187569521527735,-33.51052432614412,-14.194746622886406,-1.9583522427386562,6.452075051978598,12.86776905476547,4.249087981149062,-9.353974516161827,-4.024865978328737,13.340057420677612,27.8744782436615,43.247458790093376,52.85787557846506,47.86825480750031,47.38934966347185,62.540867522055045,74.2080008616633,76.41493026102319,78.11416696017295,71.1170186652265,55.83723687192784,55.45118974249499,70.74851903206309,81.90524073165433,89.54467555841376,96.48079915110874,91.78022354364904,83.98558497819185,89.32602434087765,97.09977810931636,97.93313191759786,101.92290748779563,105.91174895304621,100.40811078917272,97.13409891547016,100.73883350160742,96.1356771430732,87.01267002553979,87.4392653642588,86.62281815468577,77.39412552660723,75.76346463941033,80.06064831540982,74.3620596135869,68.30983087043676,72.21416685933804,72.9634711248224,70.62153405985772,77.58804992874711,82.97202682078131,76.79704817858652,72.84309470719043,73.24129118763939,67.9802355254523,66.53786130802735,74.68439924803691,76.8032230601292871.18504049978931,68.4235660287373,61.39480219216306,47.999223199596855,44.90846735756185,50.373691456189576,49.27370802370737,47.97906315459235,50.4750624091714,40.80350668691847,21.21517151382382,11.181140362897658,12.287664115027562,22.07807381580344,45.769379837506605,68.66849834394405,68.30349019908796,52.30417032667036,39.09928650948761,31.23523567588566,32.79347719308379,45.6206761958544,51.147752504833576,39.880500746810775,26.516304360074663,13.328992147381868,-5.973716034163359,-14.775543643729268,-3.1568680258128845,11.943018694916915,24.208807176377846,34.70781321604455,27.07894721949377,1.867272909035023,-12.874082735973737,-12.024066286539416,-11.919019480394729,-9.46419827003544,-1.0195810766339166,0.312775243167255,-2.7466551408874245,0.7383473226051698,0.11217955284199499,-9.815300200486647,-14.139535140043366,-13.423598174407413,-20.03955925405785,-27.02387835873288,-27.892472854727952,-30.857622581706252,-29.202176746431835,-13.023181294786193,-0.728752557965104,-6.035502982613738,-15.327765806240723,-23.566877041431418,-33.28820295905552,-30.42098635275256,-15.040671635754592,-11.02826288957082,-19.17860237812735,-21.95561282166144,-24.44179533277758,-33.66525218446461,-37.3893000371479,-36.32013309626678,-40.02789210601678,-36.78126050230419,-23.692458689179688,-21.77314610339751,-30.80571317935798,-34.217578442094656,-37.59806495186477,-45.32142983396746,-43.865301202998985,-35.93790643084986,-33.418807981491476,-27.74185012432345,-17.829561087401963,-21.888152391845594,-34.962675238749064,-36.41247577107887,-31.086874782236126,-27.84907609338913,-18.989083492378995,-12.0586237450432,-21.95552564533375,-34.97953576973059,-37.07257646054604,-37.98994659579684,-36.142794498780766,-22.655320645052836,-14.133433006869474,-21.70389623794124,-28.91592983131735,-30.603984209143825,-35.42567492128063,-37.09251014199774,-32.07732231505126,-30.493737481986212,-27.584388892212306,-12.622618783227933,0.6762742412050433,-1.9714491428420682,-10.992255583323765,-19.908598719705854,-30.73170976739764,-33.00220887412481,-24.364080210265342,-21.43232503167077,-24.777885600571945,-23.79140032180202,-27.340540206027462,-39.28596612832155,-41.80223981387676,-33.07263951450651,-27.991276879036665,-24.864396274332105,-22.223200518744605,-29.37174213292002,-34.79783895991446,-23.070825556389487,-10.45020100016237,-11.81441660023405,-16.099692454933706,-20.330108030055776,-29.21411839245517,-29.059232955633263,-15.481745117260047,-6.536298177748261,-3.411058914497347,1.3237750373586135,-7.520568837263766,-31.81299894865102,-43.945565613495226,-37.601614195977426,-28.444747870116636,-17.888011612913576,-12.094110595983947,-25.002958082623202,-39.267639096915424,-30.282231456320254,-11.449092607417807,-2.0522731763075033,1.175936965521594,-2.8066168608369417,-15.14549725971147,-16.640967567770495,-1.0049680195338873,10.387612989201441,12.095311544770373,15.197360638809585,11.969986096579609,-1.7769223481548284,-9.673903408992963,-12.005495240179652,-19.8717412834614,-22.89030851795066,-16.327013188397267,-14.72959218512451,-14.812218852871544,-4.58999228124066,3.062116340048676,-1.2855783629132467,-3.128792790098414,0.39421700808766746,0.9657468559508459,6.931453534917677,17.993207467731807,14.942742428286369,1.9349832501668982,-1.6341079918329775,-0.054686739101876713,0.4391778783560616,7.9181733610695755,14.008723309638139,4.782929209041129,-6.097080824781614,-6.212626261121916,-5.679540770974914,-3.1420900629482347,9.204674656935142,16.011552585376798,9.114992137879263,4.823011268685969,4.650068481909995,-1.8315098473185798,-5.17514105315761,1.1955825338018964,5.854030572286843,11.247213829154752,26.389604111223406,36.43514586178099,30.134477228385656,19.743477331776177,8.39965544581056,-6.31408343468957,-8.130228768348399,7.206011292345699,19.961687400794833,26.571286466927134,34.65827940957103,34.76425352541862,25.734803629408656,24.035996783651555,27.222845074771737,23.62631346243343,23.43383008862484,30.423070450325632,28.274804222518853,19.904079817694175,19.613540898028994,18.597181913155765,12.10659747710687,14.569154217118617,21.162362848737246,15.86187484618908,6.949621866264734,3.0274163424273137,-2.589314459298211,-1.965865806905823,14.444323024533261,28.374322662118963,25.451230448437073,16.22623213510248,5.949836811406362,-4.844024345576045,-2.4614778718204096,12.47879207640158,19.06907318365338,16.330920025554946,15.83178122135704,10.27532626311052,-1.287428474066965,-2.197299589811613,3.0870305736465067,-0.5758699427220084,-2.379160754483816,5.114377294552657,7.886135828437144,8.148411702304362,16.100628673260417,19.267535323066507,12.879403126877001,13.412724682438917,19.35758839561935,16.962193439470852,13.053071263340668,13.04443469829937,6.108243983241746,-3.1935420487650097,-1.4951226738760082,2.901596188795285,3.3015589597279336,9.663152304913503,14.724981671563654,3.001618938707379,-11.526508402307728,-12.706840434512813,-9.06601320863028,-1.718128318457802,14.721501063437689,24.47753899500438,19.63941606429398,16.915450162671046,18.113452308771834,12.519968967743822,9.730470797181697,16.125470854653894,18.100028514473323,16.733903891950415,23.399249789737112,30.072293892051196,34.56104320148724,52.43242142373304,80.19322580882958,105.49827494375319,139.24623849061325,183.65634643758793,214.8677070179364,227.33585799543013,234.55326458239827,232.30449685552438,218.82697603694135,207.95165520434693,190.9225310060893,153.0988997222193,115.47638228467986,94.54439948888563,74.64631848662758,49.33358863982829,19.704805614700476,-26.88681730190092,-80.7957026413407,-111.54987754739835,-121.73239422071373,-132.9437776324395,-145.75974986213942,-162.00943289038037,-190.40138881100498,-213.77365428747996,-213.36397479062492,-207.19812284885438,-213.4957380639456,-222.20784501475555,-228.88019878494438,-234.4942507021984,-222.12790671808622,-192.0210224598112,-172.2826469927595,-167.30567782289108,-162.09987999311687,-161.62375926763337,-167.546248202616,-164.50639993913006,-156.29966226236098,-154.88982303494876,-147.09102131918374,-127.00651896797943,-114.61862730789356,-112.63130504275267,-107.88690054128901,-105.76991459917002,-105.00970634814531,-85.46552127605588,-53.82859198718446,-35.745277192135234,-30.80474693510811,-32.169013924210695,-41.9659733308704,-42.74416449024093,-18.752199065624566,10.029682016137656,23.30872830843517,24.14684454558046,12.80778411235847,-6.927079064015532,-11.131572107374037,8.458332728060748,30.766968627303005,46.135452191314776,55.74026872329512,47.83005395792743,26.752369008679445,17.69611179851168,20.860696304192473,23.32879730772722,34.16422874005693,53.693565307049,63.000561913557846,63.91992576030029,66.80750500924543,63.02362072694913,54.60317014122084,57.891785077090645,66.27398336574073,65.62373252074362,65.26930992184093,71.43715636792804,72.44003089033117,68.6150266380815,66.70267835519321,59.27089465225944,50.61674510842461,57.76126808047651,72.17003868349995,75.88675350304328,75.02222082030512,74.53806175664256,67.00103802882327,61.99987642241096,71.20063322158472,80.59609736419604,81.20617368649707,82.62497776571763,80.20910017985094,67.92102986298673,64.38178612879791,76.106671969727,82.18191946551183,76.29384161214979,67.24256283626536,53.20747272456072,42.181891263059654,51.60267463274906,68.51313317896843,68.77589242381686,57.46955562677118,43.53233204575434,24.665839391088014,16.164726938072594,31.920744021130876,51.86237520748531,57.947699802304896,55.69235514233367,43.08915014966499,21.36856286719322,16.430578620241633,35.65500145190594,52.7015021951303157.1215807068479,55.82247193469475,43.49331170946277,25.194258344591137,19.320133140267302,19.01651783440893,10.234947745040337,5.5997164789763545,13.232172749152552,20.591090541244636,25.878121963334568,31.465598585234176,23.75166718699184,3.2179780416873935,-8.00564497595467,-6.073229952158542,0.04627235515158701,14.692906970892569,31.42911589938977,30.600759700831226,18.11686440266199,11.245713309887897,5.059745815349489,-2.5815980261060267,-0.6169836201894323,3.506599040413266,-1.7555735146881823,-4.3166767505638495,1.654086891237708,3.0000757511501086,1.6826251125954468,6.86785383560383,5.454707398979796,-9.56679361666987,-21.289684996128663,-26.634998907982972,-33.83535993764175,-32.42079414266856,-20.694994136646876,-17.562729409577184,-20.485487125478258,-15.130170846867237,-12.280381814071056,-19.03768513199242,-21.69183263088071,-22.538804483101117,-31.86623421989595,-37.586974120562395,-33.848487577384674,-33.69071180565711,-33.257577906618664,-23.086733270037836,-17.233392705597588,-23.162433966553593,-28.37202082927684,-33.4582857703168,-43.590544450568416,-45.43020492985827,-36.46227650969254,-32.38784080693855,-31.18866875265978,-25.42930500802423,-26.24469645159934,-32.750227410573025,-28.782065175084117,-20.77800716897321,-22.353406345910326,-23.988711877151566,-21.680473627439333,-27.21408199752509,-32.7714319386313,-25.52115873689305,-19.270247855403433,-20.823306863378967,-15.704821381351785,-9.226259304131151,-16.148772483971378,-25.042920946920567,-27.117849379779678,-32.61586137149729,-35.59459876315707,-24.32577915357205,-12.915701510320023,-12.712746577950256,-15.27161418751729,-21.828688493376124,-34.81841674301294,-37.194467877873635,-24.84535200535381,-16.165281011927984,-13.963541339458,-11.14252103047229,-15.200291315953272,-24.73996629648913,-25.058658361778015,-22.00062333688955,-27.918943566646604,-32.37107729516526,-29.88210575204188,-30.39847664531309,-26.461829862703397,-8.664809994183903,4.717869820308171,1.2636270336240925,-7.305381911761305,-17.882368749828817,-31.39482238673843,-32.29933861828555,-19.038654382544507,-11.447957723055486,-9.423802445105443,-2.003793940254093,-0.6972616007796271,-11.260345540044371,-18.038663051478537,-19.72502620387437,-22.780474289272654,-17.058019233037175,-5.50240602668054,-8.561833653671565,-20.621551847249155,-22.462511910053877,-19.520234689591234,-17.57168154494117,-8.356369196593375,-0.9086389750539983,-6.149727080607526,-8.646635227388025,-2.782441413992203,-4.359045173281899,-9.289549199601371,-5.14512944916674,-3.1807173358733474,-8.505367212603263,-7.971962178826999,-6.425125154631067,-14.326005187393504,-18.334461566600176,-12.79713060204243,-10.882442499359916,-8.177870587112242,3.143959550333891,6.0286937995684955,-6.849385515104258,-18.854400308524013,-24.826615202693525,-26.14332288444175,-12.304411028986735,10.95404975125539,20.04305324302507,13.836200558342163,4.873122620613042,-8.31971214630141,-18.9893209696223,-10.5651473445923,7.685315857393773,16.808806573931673,20.083271665093946,19.473803102182977,8.26072829219512,0.6105087754872605,10.497677382085028,21.41163067111364,21.92475510091963,21.32073495602859,16.389491164425422,2.8545113246062592,-2.68334626971372,2.4476743005646093,0.3774871498433965,-5.444543571622035,-1.4921120364106923,4.004515860722351,6.4336206325002046,12.79799727012203,10.453863957551286,-9.929031246674164,-23.6672014127561,-15.85665688576023,-1.3278880813096272,15.340386816607964,32.13283785268664,29.72226788761307,11.399706377931743,4.57927102666066,8.96254089860916,7.930954349801911,5.708881226254318,5.003695390299179,-2.1710879625194694,-4.654166402362659,9.311227576590303,21.61570028013484,19.40506243615811,14.883966428739999,10.21865296035003,1.238023083065487,0.9827227945599659,10.971780391117553,14.15109810382477,13.174523069399703,18.66784871977064,21.107851208013006,18.863492192081292,25.429153906581117,33.89022302580028,31.204978500692853,28.288604622026757,29.82128569216378,23.323332186904807,16.084395530706352,20.342159001348538,22.043114541373253,14.836244194786982,12.486461761524954,11.057927960782504,1.1435985518814547,-4.351997916910293,-0.538573797221966,-0.2601707169920646,1.3281181719336368,14.557091391145756,25.23248841731507,23.655220922943123,20.46106191303709,15.463576087338113,4.48525360989308,0.20664855268320576,3.6047199276514483,0.2871988165278325,-1.98981986398983,10.378153572022676,23.77365824664724,25.524226712708472,20.228701039845316,4.6225270976589865,-18.55010025094365,-24.294859098489948,-7.883082821763289,6.551215034602095,12.191789115107769,14.759488381526486,8.34775337220598,0.7308068507833494,9.731541764562177,23.898772317870282,23.998731101026813,17.575701417276832,11.343886988972441,-0.2492272496859984,-6.895338692588573,0.21166598141828574,3.7697919600254037,-3.3251459694902565,-6.27758153653516,-7.479239874007817,-15.834274847158666,-17.978620790044822,-9.552627258129291,-5.687313217697237,-3.823430844638899,4.732679603050311,8.31324458964265,4.741962110247579,7.6758713526617175,10.293200888416436,0.805824774915326,-7.301932501315912,-5.459078050959121,-3.881610457833382,0.16554207063657056,11.854048190558062,15.20924033272088,7.255926965922274,8.623956423088488,20.06294713853248,30.027042294737484,48.62832052072942,79.3880236596321,103.95035346687203,123.66966389693158,157.53637363368878,201.7569825771286,241.95586829183438,269.999207206459,264.0360917745086,211.67030308861519,146.04454606001246,103.83568371630884,81.37143858605008,59.83490126770175,27.088216786334833,-22.247050535542897,-69.25275790835224,-86.11536046292532,-83.93869855603964,-93.83604440166542,-117.62656524465304,-144.51717757442395,-171.89279948913173,-187.2503084306507,-183.47852959996254,-177.7148011791042,-175.4829862667708,-164.2228954647652,-153.25859551533492,-158.70773665127368,-169.26592793993478,-175.14759860118212,-181.34006766875777,-176.24773400585696,-150.4741449596987,-124.84186659589903,-113.15536364764336,-107.96113418441747,-112.81678493999836,-127.54631258109502,-128.00297826958132,-108.28443841114552,-89.81265496731572,-74.97430282085625,-56.9250562140337,-49.95163506491367,-55.735925758400214,-53.41770519549371,-44.414596399622866,-41.61849712787192,-35.61257477144884,-24.82642047985022,-24.16362616237095,-24.09233360046257,-8.332839603532085,6.890204642204282,7.222054965443153,3.738139170440702,-1.8538162191340213,-11.265912618306617,-6.854422702294703,12.365314567343127,23.40522749317863,26.162863190406863,33.55639385732013,36.678957697567355,32.44865220179661,34.9993576417205,39.81397707556284,37.191170099482434,39.3172971603538,47.78175071678344,46.48027086666189,40.183814164487394,42.16720541857401,46.27132244003701,51.61516022844025,66.12774789558823,74.60640022844176,60.22876761110681,38.96011696351691,29.231939089754533,31.03532543180082,47.638113208270035,72.84629439433861,79.32970984263375,62.94749177953291,49.89392563465002,47.73223083147906,47.89411666464805,54.41556159650212,63.03894838897337,59.88448925008812,55.45378740953341,62.82344585413741,67.40679000447574,63.19667998368962,64.39039605266662,65.69645156879655,56.03035591927881,50.045521672922405,54.40945134093287,54.67986517496726,52.71059346231338,55.49958794451144,49.59164172819459,33.696710381345504,26.392887859177257,26.775943537726334,24.878397559197758,28.733359054072945,38.39616683903808,39.82182196844905,35.94107936063915,33.45400473270493,23.77826675973654,12.279736293335393,16.50699653531989,29.837465568638315,38.25305577689167,45.35240630312612,47.48426089027444,34.2042630095091918.96844338113894,16.97602418759579,18.550685437511277,20.04019526706296,28.87897233488571,31.6464515610373,16.035377148200695,-0.9585012695356521,-7.378133149970986,-9.514649727254659,-3.3220410401359315,12.259332409197782,17.78567929199879,8.756741426136356,2.827539476656416,1.6093797936878624,-0.8637645235930653,5.452246270681013,17.50952126668511,15.098172446256086,0.9835945631781033,-9.989980102820395,-19.577764883843653,-23.086720891829245,-8.550897425355709,8.201713335613636,6.252578382768877,-4.454078208960066,-13.65808875070963,-25.835574936940695,-30.060280721935605,-16.487689490978852,-3.0197955147670488,-0.0019470134784037585,1.9364790175784792,-2.02771162301373,-16.766412715273894,-23.821481520083267,-17.185613383322906,-12.391940156135195,-8.525060717253108,0.3905267138705635,2.0892350445081718,-4.670272347587808,-8.37072192975848,-16.7616164393432,-35.19278264717738,-43.71797763647047,-35.373423424264104,-25.904915671193134,-17.774590072048888,-9.945395726872746,-15.592560569233196,-29.07546619621425,-28.63863675563487,-20.520971021673112,-20.476648278291673,-20.749947477982918,-19.090459156628476,-25.793639228564285,-30.834684756513546,-23.109213192631245,-17.634169749415012,-20.27743643166652,-17.631699175810297,-14.991889233671186,-22.551704774270995,-26.0009890002769,-19.874508655331475,-19.00536882262815,-19.210179821341637,-10.697416341891445,-8.440012966445595,-17.227878446273206,-21.08321123745476,-23.346825848696753,-32.86825140413914,-35.91216398973126,-29.49207238918505,-28.818498678532297,-29.03348579722964,-20.520289738085665,-15.26772886817535,-14.990163390710613,-7.839757802423758,-3.553852110031265,-12.621069829737392,-19.89812933094091,-19.77030378473598,-24.131890915961367,-26.533017115589733,-17.902620242528346,-12.634922494207647,-15.44784570910963,-12.943169658365067,-10.609967705789634,-19.31459364070593,-25.865024126136554,-23.80115223649635,-24.860895837300717,-23.063405744734034,-9.03171936954145,0.9319995454064531,-1.5595304531556682,-4.510482142822995,-9.275424699881425,-18.408249221167722,-14.772867877023298,2.5592169232093713,10.973226117934198,8.078459186993886,5.064601225804097,-3.1628772132820657,-13.781937581731135,-11.914999042789958,-6.968757992875808,-13.04844613843857,-17.265708354857836,-12.684825230756267,-10.866000748205913,-9.216524135545564,-1.823992952761179,-0.3596439491438821,-4.611738192521927,0.32297468293921927,7.152892155171871,1.7623487129319546,-6.138506425894184,-8.657552304794093,-11.791933816308834,-10.37505290095892,-1.2434297377727606,-0.41908569893724135,-9.080193691572333,-8.820940424517143,-1.6400340926944428,0.36255126632883705,2.1746720458151274,2.1435196764788653,-9.248484111931235,-18.149212079130947,-11.308351854925387,-4.052567125068812,-3.3606286910756724,2.430063378858578,6.693896902923257,0.33154453840790277,-0.9204753267628837,7.278146934695757,8.828223392333445,8.099559328006105,15.069099956870662,15.06989080081776,3.602777560801092,-2.6434178666159704,-5.400507838229599,-13.345401298430255,-14.729619658673933,-8.707185771971256,-11.45900403703057,-17.478054599881077,-14.049295782265432,-9.199691539845805,-3.837481624333428,11.921691297021182,26.218075974632008,25.47402370304393,20.71340944728209,16.4080979529164,5.623272680004672,1.4920860161800813,14.294046006129545,26.450461898130644,29.5568150106009,31.879862874098407,25.787055768317003,7.39488747874108,-2.2921015610226605,1.8123255478666338,2.1062683400388433,1.2626226274915142,8.946572889359059,13.65535495297287,13.60444817875888,20.251592596830086,22.14021164047876,8.014067804766771,-3.44690279650068,-2.326484503101655,-0.13949554280287935,5.750319940087978,18.863781684073082,22.7250589000261,15.702365086966967,13.621015255993019,11.08573874879454,-0.4510033526143715,-6.4856250171102445,-3.3580907097494905,-3.5247504776352168,-1.1846883587322874,9.36036320728029,12.5076544397047,6.928997942816169,7.163569896735835,6.61936897426876,-2.0135049184464893,-3.432479180516115,3.9577736738847795,5.665507283079115,7.882046058506143,18.426616679915394,23.27564159289784,20.567430654878116,23.67022858603843,24.35416434996684,12.416151544057287,4.0967679337715,5.878247927686813,3.2449498698792247,-0.7749017398219356,2.6587806260453037,1.9405051031841791,-3.4386079483390306,1.5564131071072742,9.050419167543806,6.323153269020867,5.505450781236418,11.199435928804943,10.665456336616575,8.036322701430153,11.080663679647003,8.265280829303594,0.162378293728223,1.672239243071068,4.604857477811563,-2.837848732135432,-7.524953717445094,-3.8922756098379963,-2.9356668132517525,-0.7188725459738521,7.334043715555813,6.75925447201104,-2.7258329398475283,-3.8882241556268036,-0.6358959440447578,-3.688550423580161,-3.6534270049619435,0.6660236383760789,-1.6375695248693642,-2.336581990751342,6.242163829405023,9.328140721663733,4.083284906646258,4.505578222227104,5.831753029302182,-0.5316617875853429,-1.5373059554668775,5.975350571946819,7.426943411356943,7.395963599061121,14.795723638028885,15.624193352478418,7.525473073536648,6.004973584110634,4.496384680041903,-6.896517963571245,-12.177992717467589,-5.608497232793542,-0.1304653882690816,7.678460844444269,20.09332304614337,19.34205641250718,7.092857267499477,4.261404828594326,6.85012284601317,3.927031744629463,6.175613188849903,14.559519071606807,19.340232405288575,32.70482017267146,61.91968525502803,89.36711306545311,114.49811768710967,153.34939860642876,197.23782658402118,229.0050432073316,248.6239119178564,249.26205611804733,223.13198814174694,193.61008508462783,180.86715041524093,170.049068095041,152.0651284695042,134.37267250793926,108.74936663112295,68.95846791343173,32.06321021532061,4.379092327676242,-24.535509080729682,-49.145167843906734,-65.72080803519331,-92.4736258217385,-130.62988238567272,-160.18097728396353,-181.40713432366078,-201.45964488697285,-209.70801900267486,-208.19536989420513,-212.5154264683641,-217.662357163582,-219.03713827900407,-229.36920657007227,-240.22739569657287,-230.45246594831917,-211.31761797748806,-204.41193121882247,-208.5430524256503,-217.70144351945908,-223.36924295920724,-205.08457457748227,-164.8031029742124,-137.57291870248872,-137.25537249471182,-143.48437908411339,-144.74557804243472,-137.6305975105069,-115.02238492056071,-92.35882800720897,-90.75173480166217,-94.71548629266813,-84.89777758904114,-73.20299233215277,-65.05879141580517,-49.982028891369794,-35.86609149187417,-31.29764378230129,-24.330616081245623,-15.958623882047462,-19.05747072177776,-21.842717003704323,-12.553884388192378,-5.114519791608762,-0.9376051629476376,12.210592669091543,24.612847196188074,28.622868444852216,36.21720577939989,42.37187708627016,33.36753256088587,24.10099637730749,30.57097452394971,41.377003594370365,50.95238891220756,65.92908163831774,72.12910640995513,58.75930910901384,48.931092149653516,55.464256582358935,63.54216744073946,71.99501889959541,84.1945825426852,85.05212084073241,75.33283397735943,74.24122067943861,77.87525893755902,74.98778628712793,76.35608959457191,83.50943279945783,80.64820444905922,72.11549523063849,69.79244702690707,66.27107248673173,62.26068357783731,68.70707415384803,74.32141437889405,68.76658704933936,67.36744713288945,74.80923924214501,78.96835649014874,83.14961557731803,89.93737264493654,86.12994106641688,75.20981009000661,71.67825562115544,68.19447825352381,59.222852668845896,58.90168084341444,66.30356595688326,66.90127088228047,65.14571765284975,66.80802891258554,62.779587615313446,58.12422984189603,65.49812603188767,71.4188332007224,62.11836254625426,51.6504340294024,48.09292414525807,43.7167705556736843.346118765579696,48.83411536342737,45.21443873458064,36.425910616813056,41.544495837278305,52.68770088715111,52.794811257009215,46.021676283663254,33.71351855530157,13.552183598909787,5.4511151477930095,20.531309383052662,36.564054812774785,39.88607947450024,35.61819942842326,19.219747140643452,-2.7631831146048276,-3.2550772827137795,16.773239216345484,29.936859104114873,30.50078914138618,23.18146998998764,2.98518700359633,-17.438353502169015,-17.057553317900993,-5.44758729583559,1.097656346118166,8.818791750668598,14.867855177953828,4.361585757230336,-11.926303763417867,-16.431424558925464,-14.892734485791674,-9.178202567481849,5.882869471523512,13.373425370512647,1.4964380518467397,-9.684619647728725,-9.205202169401774,-7.7716810466190545,-3.649782076019606,4.603857518934721,1.3434605647915996,-11.418172448671443,-14.813203346428217,-12.893593341677667,-17.12444091505848,-18.985427609643445,-16.624249385759125,-20.36771185297605,-22.37076778212888,-14.59593233982424,-11.95321632179363,-17.72764227877693,-16.85018519419079,-12.776108464072871,-14.346314071411166,-12.74444382533591,-9.87035924001745,-17.481794465108212,-25.485223204368662,-24.46988708357709,-26.617488062533585,-31.80961870101161,-26.409436778939366,-17.9744307406578,-17.709861497240503,-16.972513314978514,-16.311361752051006,-25.17896198496491,-30.75832536163855,-24.60614958416961,-24.604044779137563,-33.147855790485984,-34.784755734417935,-35.740118149066184,-43.577357162687285,-44.59626818163365,-39.19369774029019,-40.40253917048052,-38.37907262681466,-25.784787944555152,-20.883977358914567,-27.078720606398825,-27.96559487254304,-25.972457628158637,-27.918714647706107,-23.432357375301255,-15.78603475611794,-21.669836523673837,-33.68760769385903,-36.90057822080376,-35.6626976771161,-28.901882510319847,-10.10640814641668,3.66631485245632,-3.2793659815629237,-18.654700602928997,-32.65425852278518,-45.57723211585661,-45.83963538868838,-30.62858376859706,-18.4743895540076,-12.896491961948673,-2.764342519520404,2.793803086704396,-7.381431127183149,-21.692569815859557,-33.755087007084306,-46.404951059000375,-45.84494686596753,-26.829759429976825,-13.42884694350523,-15.799912630361296,-19.5833593619964,-24.329679929571927,-32.245921361095625,-28.99009484715979,-17.87832870631548,-17.119658285792905,-19.147331267543876,-12.21973831548252,-8.09043297649407,-8.747803500948772,-2.4857892325617574,2.017301298146657,-3.8166909358628076,-5.59836543719847,-1.8785436972773195,-6.67839337047679,-12.711979198436204,-9.631302334096926,-7.840819570829853,-8.212681776891447,-0.8074162354926848,3.09728028637708,-7.0959149155636485,-16.625145930917714,-18.476121807208408,-19.901118220820806,-14.349803954479475,-0.027328270307279467,4.645614555628933,-2.6926601994652666,-6.99138837018956,-11.112574745934385,-18.4722305932585,-13.927234451316867,0.3717273246697017,6.425676907588121,8.722188033882372,13.972890628992747,10.065866179632065,-0.03285398567213926,-1.1890066707951765,-2.10500195396578,-12.322406679938098,-17.58594986228185,-15.161351510110377,-17.470565274193717,-16.289153492122757,-3.841029291633851,3.7017983002488606,3.3724052386069245,7.859912575629648,10.619840325484677,5.994419695994079,8.119370719921099,15.498202106605493,12.2480035925759,6.258531678525553,10.502860299769388,15.848840454171624,18.973000949270677,25.48764753792588,22.48275413950984,4.594213129038444,-5.864723443065425,-1.5762792526665015,3.686423613135501,11.424188201730237,23.065676656196615,22.861683317747524,11.938681633790885,6.248853525111146,1.7225037387226916,-5.529740347641085,-1.1254650084748694,11.342292327826824,12.350280478676687,6.569262867536794,5.587086191690843,2.788028189556182,1.1594846626260613,11.528871126992122,20.47568079347414,15.75162597179059,11.976824051876044,14.622561310449646,12.458565989432227,10.86756439624309,15.56335915988522,12.518627124048727,2.99262669508603,4.113870918306848,9.88558919202456,8.611661584237767,7.494288013886629,5.348820818391714,-5.0333774648469385,-8.866623076931925,3.2926222166399697,14.724914570854859,18.68128726490991,22.585597346309175,19.46363486520933,6.933955665823243,2.07667846470133,5.118449740309857,1.2725034956075207,-1.464260354108032,6.4292785303795785,12.202061188453257,14.808160825636413,23.838424382833317,26.002319278762503,12.379073446369171,1.2503508380525732,-1.298293898144188,-4.548992495473543,-0.7764033457039763,13.467901557477502,20.376092590471877,17.066139162468694,16.30626473534176,13.21864487452131,2.859238067394201,-0.49079598320876905,3.9219629008650307,2.1807789709377765,0.4352791899131747,6.159249052174992,6.251120851597745,1.579421985630512,7.63521904111812,16.479946732086173,16.55648686778318,16.74199535977581,14.43415866966987,-0.31727029318154276,-9.950355386683635,-0.37250305870326184,10.1541410695657,11.420555311597356,11.926754340669437,7.285783743015662,-3.3213254116052577,-2.0163124495897136,9.008105369592453,9.44442393508622,4.81104139546175,8.239090921844177,10.002527473680786,7.173842778262431,9.358824912184145,8.920382009786943,1.5893158615764902,3.7263639751496296,13.409100562964085,12.146882229314727,6.01902754502909,6.173837944417778,3.5083327969665956,-0.31281157775457347,5.113277739879317,6.378162564669918,-5.493510489818367,-12.027214203433594,-8.376665501878648,-8.06937726545869,-6.766396645235833,0.4137486216738866,-0.28812550383663815,-6.814672044386329,-2.279381990370869,6.803307761599805,7.608428679351308,6.5770918825213665,3.679744940760731,-7.726572967553638,-13.762047646406595,-5.338004474236589,1.4038930326391337,0.6506916823201176,0.8129782697464072,-3.3991311169817404,-12.586651809460417,-9.451068059896173,5.404908390576251,14.586839553810094,20.941162604426076,29.298347588753362,26.116206737118198,15.489456518248705,17.142348431559345,27.0999979619184,37.58807900764604,59.67710870402957,91.33139619450087,120.09615709716489,155.14056667110347,199.22334323673104,228.87594843323237,236.78135224691,235.41656150599982,222.8869235246512,199.45951783827067,179.96221703141867,159.1061703845312,122.06727923162569,83.14683035567613,57.25569072858606,32.4043372030434,4.238109674106231,-19.1629092631674,-47.18075109340334,-85.05925918673563,-115.50719442258068,-136.0409695580849,-159.3788896793497,-178.3772169177156,-185.58111478472105,-193.00828281950228,-200.2929745085099,-197.3231811331546,-196.9399114686226,-209.6347819682244,-219.1515089838684,-217.91541003248545,-212.43193112894758,-195.91664514632822,-172.20987612599492,-166.6931695312532,-178.27192523525648,-182.48142514145275,-178.02948049413652,-170.609028371679,-152.18359284132526,-131.74496542745035,-127.16212840649241,-127.7678366660413,-120.09733719009867,-113.65844446777774,-107.82982725439469,-92.10144877253488,-78.8368717954755,-77.11945285859296,-70.3069397027173,-56.11451884933051,-49.32582285403133,-43.65054568846191,-30.51409240618328,-22.229266391761108,-19.060618944992385,-7.995651197137105,1.9194029893282907,0.4227817038417214,1.8302555804832632,10.149682661233628,12.417234917221963,13.76736069145981,22.63134314642531,28.12099937584371,28.49761778564291,33.61256711500617,36.32684728014392,32.189390811614366,36.15218887182454,47.75744333800076,52.13413367794239,53.23150027839915,55.95180900561759,51.422690521936275,46.0339550228291,52.99879886475937,61.68633722325389,63.248382671537556,69.98238762401849,80.26393871982395,79.67987496660778,74.9158528999084,74.26775565622383,69.60320247776322,65.62228725905378,72.7750997031232,77.33650506158935,70.10324733159148,66.54269637031305,69.79603405450291,69.1290229995915770.59141523816899,77.90932441585659,77.73388114690096,73.01337546307701,76.89575781885867,77.65810210472573,65.63599988999246,57.8175642816799,59.67389844343206,60.148873960145075,65.09278280919716,76.04178010970446,72.56919637287434,56.66591654441157,53.159926059398515,61.114192765275334,67.47837572647208,74.31990931417457,73.69062070582416,55.59464337826516,41.62562385337234,49.86527143922603,61.842041485892736,63.45565849008688,60.55842792403653,49.41469595118595,31.584981821498527,26.786217087479884,33.580845672867966,32.411012763334014,27.612230481822998,28.387549641278547,23.657679360613958,14.831951317518776,16.638297211125632,22.040306558176507,22.45890218910113,28.27295361032355,35.79707053997866,29.982350848754088,19.78586563259637,17.163210071874524,13.33401325417959,9.59446149671696,18.142771318896592,28.48700352845694,28.076662212573353,25.753726452057524,20.460799970949743,3.588762611864598,-8.959100291072069,-4.48788715882907,3.2223480582699437,8.52844587504078,15.555601102156048,12.240721517590995,-3.7722024170480175,-12.09925985266258,-10.494793260628095,-11.846279053079108,-10.246205171407912,-3.8172407140963456,-8.126128860766853,-17.43870041610384,-13.43115156588837,-5.468567125355249,-6.035310829510634,-7.636086334084644,-12.519721735202706,-26.790579533808664,-33.187415391226594,-22.637967198901908,-14.606539120359585,-15.763864995445124,-15.222244983130174,-18.447026761718092,-29.39916732372784,-33.85098332093956,-32.38106825914722,-35.38768125555496,-32.455139739366714,-19.967527837693492,-17.800333453970136,-27.793585740429524,-32.52117564744992,-32.515596529617,-32.06331885277497,-22.367921631911585,-11.903890822327433,-18.650262630334243,-30.265915496101922,-29.23938837872785,-25.186888451517447,-23.548770951034484,-18.416424823922597,-21.60900506237124,-39.4201326570522,-49.942516899661605,-43.969720376204585,-35.19507694664543,-24.171604118143094,-11.0137340772128,-12.120523550265666,-24.735264034579444,-30.143508545103607,-31.631066615150456,-35.07120191257462,-29.95168310433916,-20.355285617318593,-19.518255829889164,-18.142583527708126,-9.483449468705976,-8.63877492129714,-16.387574533650596,-18.994229949653555,-21.284687183260512,-25.8071856360353,-18.159897854914455,-6.485165174683244,-12.466698683193448,-26.59573550131471,-31.963696205604045,-32.521374027618016,-26.441427825094202,-10.050539444119002,-3.1598899955116106,-16.219747776849413,-28.624033628117925,-29.539290987753308,-26.362956716826517,-16.01365273331798,-0.5437106406784284,2.165548323030719,-4.945699489929204,-4.424788625052983,-3.1435616849144283,-9.744065729520981,-13.126914186840706,-14.309910649537269,-21.095598234181935,-20.514020186106997,-9.023024334745767,-6.106090994455918,-13.043025585222752,-16.593076229553322,-21.884693494047543,-29.906247253431143,-25.77393965497709,-16.220803635058466,-19.730221330311785,-27.835718700190334,-28.517014287529477,-27.985161510552572,-21.981541604340414,-2.0601409534635318,14.462674601446487,14.042117069928349,10.672579775147366,8.246078569492658,-3.0075944620465314,-12.718225614486837,-11.144554802773436,-9.470390708549218,-7.901526451568281,0.6052786579341585,1.5099318716778476,-11.759022751481764,-17.951600587916598,-10.676851027039582,-4.425052842089188,-0.046538953927617976,1.0452097201954178,-12.451227534284342,-26.764731442691822,-19.369592413924774,-2.6661971146663754,5.069922896945761,10.303624979819807,14.21603489380932,11.980125557401266,16.74778189786172,29.664351143253693,27.55573547798393,10.728591939533562,1.39365590155098,-0.49439158640729236,-1.6663569171736943,4.689269789441687,9.952657711974856,0.28185841051533167,-8.672059824211239,-4.430488465577464,-2.3194650055058874,-4.733507101948683,-0.3440764473093747,1.9538745525416221,-2.6193742228854453,0.497248596523457,7.211334659624176,3.6654295012068294,1.6018013821093011,8.702611387026634,9.279320228460874,3.738823301305032,5.480151945219376,6.348478788535451,0.5696583932624537,1.6905413540914345,5.941567498718664,-1.4070373443417266,-9.435138766773207,-7.446419706879919,-6.191803143078043,-2.7246278359232243,13.781779405429457,27.301825960473987,23.771068019316726,14.932231274390274,4.934215014938282,-8.739976680939652,-10.01373667439563,5.908460624918267,17.245502298413413,19.511367877153766,25.910069021975303,30.392477328133992,26.99317217896382,26.226340633661934,23.778674691947135,10.227681277674503,1.6981874828681573,8.891794489856496,16.334593947528198,18.870480364515696,22.16367396748727,14.924636733474054,-6.302215538787055,-20.735853996598046,-19.798385281662433,-10.97694390936652,7.899609731107467,30.06866699809081,31.35819198778539,12.054482923838519,-3.661043921646396,-8.518806271790613,-3.60021579803566,14.533608211882488,29.92920037093691,23.36812154291505,7.353762700968284,-1.8503886075575098,-8.926880302939823,-11.334135226033501,-2.6989400865462665,3.0572265196858472,0.3393568906268576,4.213427899129606,11.483678608396062,6.861540770730535,-1.5272046793457004,-3.3303187017489257,-4.996100770100209,-1.6979559511725157,15.094650045962354,28.029392531915924,24.08662187782236,17.533980707213264,13.903335106896591,7.948269040903423,10.783286089175364,24.29719282285798,28.264647104384537,20.96374064531874,16.71603949881998,12.15485096791689,4.743430483553794,5.073179931720117,6.066968369528059,-4.760718943643683,-12.659966979991442,-4.255588651868406,11.019159731815021,30.933035297087706,59.67852908450035,84.9364137715904,102.99666246551864,132.0201221940695,171.84269756434975,202.72773605233203,221.06952774659905,227.3955876000381,215.73395490395635,200.07379831551668,196.8565188579468,190.104920846805,163.07548426513557,123.78519449242103,76.86058939356948,27.910356412527783,-1.8618998563809104,-13.810604223081208,-34.46573120832539,-65.37508537736305,-90.4590112151507,-112.3294148119985,-131.90093166407064,-138.96479937215318,-146.68524627783597,-173.3395398988917,-201.1854856670411,-210.65131356409944,-210.82479607890923,-204.57152059437314,-186.26340776115302,-171.96067148319017,-174.17884258022818,-181.45990751607593,-192.24074832974839,-209.9837641154503,-213.20827592741094,-189.7923776608374,-161.1734633250831,-141.81465817521342,-131.56139947322993,-137.4658636120777,-150.0834870164546,-143.67309585799904,-124.4675370642141,-115.87502986395586,-112.62854118509793,-104.91889842011851,-98.78931917819499,-87.29877321088463,-62.458333587465845,-42.718533974694296,-37.63235179036971,-30.928073225124265,-21.197761006413668,-18.64752868017818,-14.078666211419284,-2.7914914456191706,1.5435145536116535,1.3400178196741128,7.909116873317228,10.321212863488908,3.770878195769135,5.343497535681988,14.117476885312394,16.584485829694735,20.163158536345563,28.49274166063996,28.655098682783247,26.87970619163026,36.38335018088797,44.06427923228892,43.14319369328531,50.58028174908014,65.88412408054744,75.37334602409429,84.5406478988451,93.03703597753771,85.10042883639544,70.85949576383541,71.89189674756247,77.93304434291089,76.74714333979844,78.09014457640284,78.8495302638265,69.6697416233087,64.06583251599645,67.36660287683743,63.39155134192902,55.021473707919604,58.03864567991437,65.6829880331685,69.27150997763084,75.1190368377777,76.67981239709444,64.76247268479226,56.938351273467035,65.61357483473675,76.43890343983688,83.16660331181674,88.11668177778216,80.52223864371358,62.67169215888303,56.14579110432274,60.88776735519154,61.77205266782366,62.64296952950113,64.7658529960939,54.69083283668621,39.78094244388184,37.48830589143133,39.9255589355705,39.900431074259934,45.748619190347604,48.30603326411091,36.5830630929314529.6746352810256,39.52357460186315,49.992056630898276,55.75860901008607,61.871961337932085,57.826648175423784,43.83955241551118,40.29468876021572,45.59465726340117,44.24786211123592,44.01618987965482,49.28460773687344,44.38919111256519,31.563357087653564,25.393178180743487,20.33854414479237,13.545704392220593,17.306672271411518,25.145280070707784,21.4837928236184,15.573866947920108,16.63235798634985,14.744147360632663,11.716357268332704,16.23708433059595,17.376764707533155,10.766825543123755,10.589566216714102,13.951668487846575,8.98849914894604,5.5589855705061195,9.731887218875729,9.183402870651598,5.8210618088067605,8.462918106842904,5.721493977545842,-5.868843654392153,-9.52224530697817,-6.9120545546829995,-12.10673249311221,-17.942379188618666,-18.378378184771805,-23.94983007048313,-29.432709767716844,-21.739622465195165,-12.790287938634098,-13.029851928197136,-12.093462186754254,-13.538433468246335,-28.376664089198872,-42.27605438330458,-43.78160272820136,-42.66243036183656,-36.91316140397705,-20.811347507671947,-11.722685299307141,-19.044322351090614,-27.377002399831255,-31.910497206806564,-38.469233545946814,-39.01567170410201,-33.22090351166242,-37.206896832798286,-47.10500885824779,-46.67710854861746,-42.917844984231074,-44.59748081634305,-43.14519293877991,-40.461421599565945,-42.35390789921047,-34.89095577318642,-15.987445312936627,-7.9124679965502445,-14.783152786689739,-23.237426606505363,-33.512350256739595,-41.47560667979041,-31.79191062055098,-14.594146959751985,-12.47709473076797,-20.420099800599715,-29.018063043266835,-42.64796248427441,-50.36439743069907,-39.732847280668906,-27.06501542676235,-24.312106790717714,-21.167758882333104,-20.4599028627764,-30.459090288717718,-36.173936480753795,-29.732071926969056,-25.32181410088163,-22.177897427231546,-11.367280330271132,-5.512230329911696,-10.401329976676791,-11.50126821502623,-12.296370371764613,-24.823676219719665,-34.93591712021451,-31.45118451045561,-26.046000176372793,-19.2298010174562,-5.962667250358914,-2.0877070899880388,-12.913796535726998,-19.61100068037327,-20.491906061456998,-26.058466669481295,-26.246791360259294,-16.641960425426163,-13.282989956424483,-14.904704980418368,-9.31075194966635,-6.092798637682161,-10.580413705122375,-8.817498876837277,-4.100700498234548,-10.124998279581288,-18.56973476067607,-21.708507457173074,-26.494899648193936,-26.289439570375578,-11.366132869594345,3.11029371289828,3.4990200892176926,-2.7655320604197517,-13.543206253354,-29.125648530500573,-33.47200896855551,-22.746759928337795,-14.372718766786345,-9.160296406874197,0.7803584595624127,2.7822909520123615,-8.27221181480008,-16.07487121729129,-18.27741666904561,-20.871120714732903,-14.386707532357656,-1.5100206592642418,-1.2560199713819196,-8.638731447532008,-7.053111338381554,-3.7336046145553525,-6.204938813166492,-5.196019951889488,-3.213132802913533,-8.059168425965591,-8.669304101818888,-2.3133206142074707,-4.111983594936574,-9.018184649504928,-1.895478024031973,6.8369277610894,6.205245833417052,4.319683391666418,0.4984512302689593,-7.485122892158741,-3.0748226057874075,15.19503470001781,24.664003998319238,22.438333126482597,20.6847051145604,15.137854474284778,6.706514658598041,8.548763995385167,12.68814530854069,6.800299143403693,3.8460632642316135,9.133556428259391,8.40765456440621,4.352154371594615,7.229910189081247,7.801286714012613,3.2946972845513196,6.521360149066953,12.0426122836313,7.555744362494053,4.039246471719224,8.504587288498673,8.977532910989673,7.575417733439566,14.283247937354503,18.750468268633945,15.518355066186405,17.87346271222322,22.934008925052996,17.958916864660452,11.968801805003126,11.641243657599178,6.08803677372811,0.27608462990461335,6.39773407793518,12.202076455260986,9.920301471624917,12.546031119681304,17.42553461714644,14.580654942292059,15.669894979953678,24.012986276774622,23.411220875181257,16.78231005826997,16.05263313151294,11.427977837504027,0.47496938320739135,-0.39983159557553205,5.94093651858778,7.253714311745402,12.763040810195445,24.368762046632693,24.844389304889365,17.097644230643084,15.210122957314672,11.48003165117509,2.8444220148160735,3.5352942531172236,9.18344565505949,7.181412843206426,7.5315739461445474,13.778234357751838,10.386118733635175,2.0820679522429635,4.925053040710729,10.719042821564898,11.938986312394588,17.194468204164913,19.651338204260302,9.738640161652034,2.984797408329602,7.023061523561924,8.506212501489694,9.732289460368193,19.530921890884116,25.787220940327618,22.18095367563452,18.523986155069295,10.696731132057359,-6.657150328365379,-17.49198088667857,-15.082137259717797,-11.291472060617474,-5.044871145723007,6.430378549388838,7.200150525111715,-5.291846270187637,-11.7691498451334,-9.503731669784129,-7.254034414079417,-0.35452939803794026,6.157585744742988,-2.9463079978930904,-13.672127588084315,-4.6740886753137065,11.498745399951122,21.003927883879093,28.917836012676933,27.773781125612828,11.939156274775817,2.360470982183553,6.977627178097001,8.501955585587707,7.469697960501467,14.089408132657233,18.58082762318096,20.087986899024013,35.67630555754212,62.08871557144449,87.64047639958902,120.92810926131018,161.30856508529547,191.9455737172135,214.55591595695822,233.00503382812087,231.32558785148294,210.86893742640382,195.45974767994323,187.73186704978488,175.47176721584694,159.46712019274653,135.11763772985927,92.53784942194068,48.397536975249466,23.188490538553403,5.327532919312619,-18.761466112766954,-43.66243023356637,-72.17370956124259,-109.68675332267752,-142.42182157241064,-162.93280697115034,-180.82957057013783,-193.42722114895003,-195.14107839694594,-199.79819989549094,-212.22042958148333,-219.41112915403744,-223.8300666796187,-232.16399246700695,-232.46403664676848,-224.15162930082818,-222.08960175357885,-221.96317292804596,-216.4187156885343,-215.51039405651454,-213.28083518913988,-191.831930311215,-164.53541823338065,-153.2971537608717,-151.52625746105215,-152.41722361336724,-158.8017935849397,-153.6266778079846,-124.86189458436945,-95.25065468741307,-79.3495129204597,-67.99882824603687,-67.05018328144584,-80.58689806083883,-84.24187700458184,-68.28776334582003,-50.18321029126788,-32.54084873972046,-12.337552622490819,-4.781794461586562,-11.515714383869327,-14.014378765821714,-12.122127630398893,-13.524039191789138,-5.934562235220316,13.258117782731704,25.267048544948054,28.815916526987188,36.31290225562644,43.56120129104304,47.508070753443086,55.701548523341884,60.63118561905423,53.30510147352333,47.53627427867194,51.32491187477799,54.77155520298003,60.64251003035992,75.27300095651304,85.21509737480532,83.46442272209626,78.3564272496907,66.50695604293588,48.48697744506475,45.87041273761959,61.13104695165635,72.44399511147179,78.22948659462853,87.79178449031131,93.32332242617453,93.74470017856359,98.9399924779759,99.82254073881293,86.95387409926231,77.141838544617,80.8014433471679,86.97788772493884,95.10753319331577,108.72276607811234,112.52087994770169,101.16972078703397,91.55808400683172,85.51117929718778,74.55681468875079,68.78998160825357,71.76858377711248,70.41342258239754,70.31927592167554,81.22883010787658,86.13943610127737,76.85871680399822,70.21954597335008,67.50599139748702,59.83526071045203,56.60571161602112,60.06482274261707,59.30289225102151,62.985572406617166,78.81510425066386,84.80302888619352,69.90125929320557,53.47910617054588,43.76466669328752,37.168748985911364,41.832836820541274,50.686565899094575,41.85524111066755,24.667620259764483,19.966837308108914,18.97184451403956,14.874945273271315,18.15145507124868,21.311198062092537,13.77838979153620610.289802373389588,16.601307170506303,17.630818816652038,15.192903162107491,19.028755286033032,19.315324656017985,14.250306284293538,18.650279984841905,26.3535627414282,23.160049047479866,19.33260706186381,19.527991196132565,11.041550103141105,0.5402224270318743,0.4052052474134893,-0.45233558650156147,-5.626715991837197,-3.5323561243592234,-3.5865812921465015,-16.759237183464595,-24.777200728896933,-18.62532591755121,-14.701645617865076,-14.736413818310423,-11.626999844968854,-15.280145953294575,-24.732070972236976,-24.313365143987706,-21.933638519753668,-29.50832456276751,-30.74939426883136,-17.574423735609123,-5.224861789001278,2.660912710716478,5.640080259503781,-9.118510009608116,-33.14110326360463,-41.25447436860372,-37.92222932319386,-39.36162657800959,-37.866916680657596,-31.053746682549836,-30.313744313194917,-27.037715434304197,-14.259910928740343,-11.781248453532553,-23.991634877048185,-31.05943972761319,-33.06386462959948,-39.388992072879034,-40.024643473247224,-33.600457515680525,-31.953947966091,-27.541450232735315,-13.712828913441946,-8.45919270402775,-17.70512049872179,-25.724907652580388,-31.385435160820148,-39.83682430269388,-41.545618758378865,-38.429416547017325,-43.258081115471185,-44.901746793231354,-30.431890630187503,-16.828497256389365,-16.227405860132556,-19.307333247676176,-27.141833954201108,-40.49419542920972,-40.9264712972934,-28.338857520999753,-24.32940971687218,-27.577554056755588,-27.283267564214878,-30.458180305237054,-33.687567163567614,-23.276445494162058,-9.60713730281624,-7.59138606228957,-11.176141542046988,-19.20841300318096,-36.27571768228203,-45.97446803425362,-36.62958630511284,-25.652126474081854,-23.246131003239935,-22.571548752223343,-30.00140712407769,-47.027964913737144,-51.134787405573455,-37.01150725644156,-23.26377319429435,-11.976938334205531,-1.4428989369182466,-5.980203402508599,-19.183465340563547,-16.808734364561904,-6.084531607316713,-6.817693541503435,-12.227121167391413,-16.526912422134625,-26.560903029087797,-31.79586512294477,-22.716599070124513,-16.38583253628667,-18.897478766047787,-15.3761661478975,-11.012356331989773,-18.345401093675317,-26.12870694152259,-27.749012471364658,-31.19390692393426,-28.708497327511168,-13.334320787023927,-0.44553494240183245,5.1648681883747845,12.036937325152554,9.991300921322816,-7.866421783312774,-22.35259995428568,-24.46307016603717,-23.111073985229904,-15.377626383897253,-2.4551383110272678,-2.8678578960891103,-14.921554733453842,-18.412069780195406,-16.128348748705157,-17.303819202897806,-11.887041287222836,-1.9181003234504785,-2.444038374117662,-4.678253600865953,2.6863297795130885,7.748846983156122,9.34706669695576,18.669466013862717,24.256676654340048,15.324088071406221,7.773945411625855,7.782390994833463,4.913049711978034,6.320183325965319,16.875455667902678,17.436674752686265,5.89358415764688,1.131694401550688,0.6856425421127239,-2.80524886845131,2.790513766048301,14.335020958642621,12.910076514732454,5.458782540853004,6.594369541442136,8.763239620429486,11.434737235828937,24.01180154172045,32.043147624294996,20.85801498800396,5.366398076870807,-3.123790592012421,-8.260084437584949,-2.629667432981652,14.748888361438214,22.56159957468911,14.703004198026965,6.4958842325501,-0.31516787195799,-7.984950265399025,-4.738692226100074,7.96932305768339,14.727575606989957,18.30193453635466,24.476693623004437,21.912636098022368,11.985693012326823,10.1540981138722,11.103873926395366,4.062276448812996,-1.737932477861412,-3.131423534616162,-7.7168340053403135,-5.134677239823995,11.710728872625168,22.66195101932587,19.4137133551878,17.290468097369533,16.910799841117317,12.446123574013276,14.438444601861628,20.917469128001933,16.128911413810112,9.481138864439448,15.416048439962577,20.752783351636968,17.962304225752465,16.411639904644392,10.08641691609986,-5.4766653485646435,-11.944699726094695,-4.732171382086635,1.5230334722826018,9.390707644678342,22.829693386188602,25.02340772375876,13.293771138473055,3.0943629581127996,-7.213922587977336,-18.828457557804384,-15.154132015035252,1.325471393409332,10.661313466474196,13.980943714920555,17.149648626133953,10.250852360174646,-2.0173706251608268,-2.9958038758766445,0.10791785700748546,-2.4074654016374275,1.2266032291244038,10.220034619136072,9.8972171389247,7.70393700858449,13.270508530520225,14.225996759803433,8.561754490772786,7.193843244894245,1.803478388104299,-13.216439382980187,-19.40796581558808,-11.492491628572193,-2.8066809630633758,7.599754659165836,20.245543231052043,19.808365804247288,9.944541982119098,10.24558523000479,14.312024121958633,9.292354029769443,5.750674748785121,6.628537266315066,3.406943751678848,6.990433652659962,21.43553762903375,24.96327205710213,15.312976634426093,10.238697335266057,5.234961626550742,-5.7332060507261255,-7.552403895434229,-0.6541026504452945,0.3319057970288737,2.7701071669179407,11.54025398076601,9.30226881369175,-2.889483352456575,-7.077252013258784,-8.952467481181284,-16.654483233229374,-15.882405251711987,-6.066538738121403,-3.8274472985244508,-5.486094131331651,-3.853362006184981,-8.84634358822839,-15.125567506084973,-6.525663923164851,6.405913174766599,9.330763868184615,10.92292342737766,13.571946383269882,11.088047319029101,15.726190816563626,34.60955271717065,52.694951129074596,70.50339042018608,101.8881864311509,137.15800361223225,165.55803514002977,197.52050558551184,230.83831923773909,250.11537164311238,257.9408287011086,255.49330858099134,230.58587562479886,196.38057168576134,180.60076325173208,175.40700454676295,158.61753521781014,131.09478791755794,96.81591007225592,59.30658740452694,35.42237507797681,24.201876432479402,-0.865453940583051,-44.075719916314185,-83.19315403245143,-108.04932886610509,-121.49480587654736,-127.55886418386521,-140.52665206794975,-171.15236874811623,-205.29193919460917,-229.8776653444844,-251.75064536980193,-269.4105850727858,-273.6813459060758,-273.5644680619738,-275.8320353595179,-270.6731448787566,-262.33478732674166,-262.49738260251826,-258.52291539867974,-240.42351648609542,-223.8066179463156,-213.34442714828754,-198.6169988186941,-185.57459408677335,-177.49870352260118,-159.20650024492232,-134.46604989143412,-124.10853446852894,-124.39739667964359,-121.90497277657124,-119.13361531925246,-111.5204338596087,-91.62342023334972,-76.56491049523679,-78.40218892605304,-80.77601375884436,-75.53972431695419,-68.78976216341235,-54.034239397091355,-30.72432861829543,-16.405191426918318,-11.056607227638466,-0.2502575594883787,9.002977400190721,9.058855556982104,12.515817072421935,18.833748523531,17.107443208269814,19.41858505802065,35.55038377101604,50.673007943074225,60.513418403217244,72.58911160020224,74.79773203792165,61.38028379596044,54.323145280031476,