-33.51349035132192,-30.526223011302957,-35.346104701333864,-33.80734782742794,-32.417942550439435,-39.56225478637789,-41.38456488052551,-37.3607615825375,-41.50655742518754,-45.06861913067202,-38.631139101502725,-36.845641088022646,-41.72912194949441,-39.73640310187076,-38.52174162225256,-45.70622062762533,-46.32072572336034,-40.553062031649674,-43.23346198972652,-44.910697368844644,-35.01389444035712,-28.483519259561866,-30.294117328192705,-29.65334994374132,-32.67572403956299,-42.38585359723768,-40.786068081733156,-28.775211733770846,-24.88317615894725,-23.977139909751298,-16.487406389665132,-13.217008758636283,-13.886829811340021,-7.410427730630456,-4.968233560171115,-14.44524448699782,-17.931234565328445,-12.513691533403474,-12.386149592200843,-10.263112225367419,0.5155075792266954,3.487742516629483,-2.0453681100179746,-1.2865590942968832,-2.4332097374582813,-11.971626139810795,-12.230294929586083,-3.5419516660457724,-3.980410515881823,-6.617757684574701,-1.3790193938008521,-0.6615844720216685,-3.1101817436285786,5.179834152450848,11.409880502131845,2.661408161744663,-4.262010557779571,-2.8195461705599363,-5.601435127475756,-6.753305385411707,0.31918845058926903,0.1741562144167006,-6.878989558534439,-3.7943009519510458,2.108149658357359,-0.2196646148497936,0.6893677528167527,4.92070091550873,1.1482304535869614,0.19304461454187916,9.50504608925496,13.474826685136891,11.6382356666974,16.21863168136728,17.685161482456888,9.215698254055686,6.060904276149112,8.875290201101514,5.42774321292339,4.518545586656784,12.312513271612463,12.49645279009395,4.256835099189287,2.762377747649447,1.915534380691553,-5.990091666183498,-8.135339122164005,-4.675414050634112,-8.666121233592818,-12.07922099377931,-7.128407281791949,-7.98630616847229,-15.736959683961175,-15.000804781880253,-9.905748615404974,-8.455474148606033,-1.138059015073876,7.417279921369895,1.720247082518119,-6.61496071871086,-4.45361503247378,-5.341092010279055,-12.617922419912453,-13.841905076120959,-15.302861668452325,-22.38302082154301,-20.73442404469958,-14.38880426604457,-21.532742847552548,-32.157490651717836,-32.1595389158319,-32.22189893529576,-35.43882090843124,-34.04746985683563,-36.653228561013506,-45.39821808450757,-42.41284347142092,-28.56454032567634,-22.092699676978174,-21.814093110018057,-21.490229075134206,-27.01006157925392,-31.023421794668593,-21.48530578078329,-12.558272361383516,-17.166266165225906,-21.933403945779215,-21.29353419499284,-22.16364008289507,-15.755894168082854,-1.2703416194739772,2.757161811543573,1.6489665149043324,15.585953720962902,37.18437078154251,53.346648863348754,67.78829709972459,74.19195635869725,62.723815515487,49.31863216602137,46.63005097442864,42.24257981985811,36.242439384035926,40.176612262908314,42.791349799487016,35.37248914735409,31.095019781873265,28.666320375246183,16.016400996879618,3.296472070313306,-1.0110686703789207,-7.56093335128078,-11.624581301739006,-0.9223605645805506,8.371188845080983,2.2176533580118876,-6.030945911137204,-12.951770019228587,-24.58520910489465,-26.885006165104354,-14.630528552373919,-6.638955479901885,-3.5882838745749703,7.633467421731924,16.02199190456564,11.310992284222436,6.414577344359324,2.646838495015275,-8.325589547274868,-13.374699884697723,-5.33595454839976,-1.9604770227997665,-5.218483549255716,-1.6549665361346588,0.6871896875996408,-5.50406437178433,-6.76397655493559,-4.2671311723362155,-10.767525914144594,-16.196960920387454,-12.118561288243125,-13.359670789776883,-20.677485594845464,-18.792404244146113,-13.271084219056249,-11.993369676150216,-3.553976230547021,8.228146439887851,5.812278215642156,-1.9882350687774517,-0.6200121262592635,1.7830417728321204,4.292185142588604,14.392892528514292,18.76008247446779,10.35761108415993,7.377016131860319,11.992221358163794,9.011143462382567,2.964129801476299,1.6677324419988047,-3.030375719521948,-7.5376068881797575,-1.343982356509842,2.297113482599614,-7.052116551037953,-13.523589304154687,-12.563413297738649,-15.669143188367482,-16.501110628748187,-9.30784445386519,-7.1444419954854155,-8.47595573361847,-0.8577424558291056,5.129441024874049,0.8862866571009058,0.9578986578270968,5.783465608558925,2.618075556208928,0.6899537238536303,7.244414653952457,7.777491079195082,3.362309705806582,7.257598683402855,9.263650577149047,1.426543996963626,-0.8418116675755976,2.9544753893321634,-1.2981369965971306,-6.00578431405984,-3.239227631286765,-4.868760748088414,-8.438167168727706,-2.1757684968180375,0.779084021330082,-9.843385691708953,-18.430725305608746,-19.424313181396258,-20.090893507900766,-12.09313150112856,6.18038648806318,14.774480370330778,12.335729650748673,14.6620999378377,14.865015671637192,5.701201821439614,2.568552308332006,5.169158408412529,0.5287495071597998,0.31828669943864574,12.262676557729115,18.95623367933691,18.480908847409438,22.213225102398958,19.60187473889769,4.496520399581718,-4.371055635673714,-3.8038104766989673,-7.439933496463031,-9.83266582476448,-6.7429150630802654,-11.430624693018913,-18.35166193488917,-11.462433929059081,-2.916412806948245,-6.137460162141586,-11.033274935359122,-16.416466034976047,-27.439422247706847,-28.34239296215489,-13.152859170734066,-1.9220970259439643,1.1438650369041774,4.777059242447332,-0.8543888525533174,-16.321121420882495,-20.340007468954422,-12.92730980832635,-11.188271030941516,-12.272667827961484,-13.045578725189014,-23.301976341418364,-32.68599188354577,-25.537130475981623,-18.072407935117727,-24.26115930862563,-30.104116886022855,-32.36550038572945,-38.49413800369612,-36.31046317465304,-22.13950390604269,-14.413249643285091,-11.581186004541458,0.052627953086711976,8.707412483686927,5.157170277462847,4.218811825281076,6.3686365700837655,-0.10324239260697787,-3.6998008362827726,3.1977069871005956,4.034880099422618,-1.091213388077919,1.7042291331907113,3.354645390202781,-2.7869554494186777,-2.463632817425241,1.9322006840791923,-2.237529995910166,-2.519051046315787,10.092950480572759,22.723722256932177,40.53761190280405,76.76567041774916,113.52451428147778,134.70252521202096,149.15427874811536,153.55716626743725,141.20294182465364,134.7157796732921,146.91606839701473,156.57901880813802,157.68125218462745,162.46984132599718,160.75694091359537,145.02405069621935,133.65622328423817,128.0401829405556,112.56321200764633,96.78292642975717,90.81105216659945,80.5230035550459,68.27003831751533,70.22554863989882,73.57953933204753,64.17901956083183,56.00783425183258,51.71045814228156,39.36579074058235,28.9229671292318,26.306440261044763,11.732498950488877,-13.940361014275371,-27.582230735288185,-32.172852144831666,-38.78461124194194,-37.17669463664221,-31.141116745837685,-39.30900644333445,-51.284249264599495,-51.35627760446246,-52.623657494388496,-58.77009349590837,-56.74269322671945,-56.71567454485084,-69.02829720081071,-76.630591803905,-76.57634935790189,-83.31009766401596,-88.02032233579017,-82.28719268926143,-81.90679824076099,-87.21458514020998,-84.2717353584172,-83.36736543840837,-92.76749219179882,-95.59679650236278,-92.19304645374132,-98.93958255349096,-105.71919166743211,-102.20475379217798,-103.69375230920772,-109.48522407072801,-105.35953471479411,-105.03827758032622,-120.06605173903414,-132.2168880623345,-136.71557633408048,-145.4565216010155,-147.9190957676626,-136.3999621573371,-130.29927399476037,-132.84347670990977,-128.93866436825724,-125.99458196205711,-130.3302224040355,-124.97423198904838,-111.26635425753324,-106.38259763617192,-101.78177472029844,-88.90294998675711,-82.85733994250594,-82.30698312276392,-72.46476004379608,-63.32314809447486,-62.49081691156522,-54.582885398813744,-40.79320224499568,-34.99705459375652,-27.270496404969386-10.080531031271367,0.4345225240541477,3.3919128110713705,13.490439585782015,23.409207773288273,26.06844704681859,37.78587633595729,58.880850976781446,72.77648896258356,85.32263102170725,102.17060114730133,107.85545130478526,104.72896529056216,109.29018219835945,112.74674388192209,104.8912392405053,98.27500389481374,94.82592261221787,86.75484466524094,86.51172663181106,98.55312981386004,101.95865241613141,94.43244787782731,91.18783396572,86.20224153003755,75.04573188150128,72.96941482553085,76.03121365947516,68.17881158914217,60.20019474064616,61.3338080573109,57.58529785732273,51.25317568040633,56.118284522313445,59.711315064825556,51.72445102041474,47.03413156367861,46.432846863715525,38.373742356544334,33.43041211387171,36.68839906204901,30.704550250760896,18.54517949777543,18.126757600936852,20.95744610943627,16.32556302533611,13.700654707790115,10.7135643824529,-0.250469353794637,-3.275297189406793,7.914845367949117,12.296285130298248,6.774544835751179,7.316698549245558,10.281023770010165,9.444365231915672,13.295473210775148,14.274756550613855,-0.09088023041349658,-11.726502173798298,-6.745268525702237,-2.7678625827253494,-5.867655673735732,-5.0751206663436355,-7.034904837742575,-13.868698484578712,-8.460944686776596,2.9637171009777057,-0.9849659414980274,-11.860877773695483,-17.076615973985177,-25.08919686070149,-29.568773994149378,-17.11787855117928,-5.21843542672574,-8.913300730099294,-14.865004197648428,-20.64000772887296,-33.09158214382891,-37.38700447629384,-27.822320126160758,-24.71799016165679,-30.50013869845222,-31.631951378597208,-34.831053184592946,-43.63488161554433,-42.319598669184685,-33.81061802408295,-33.55735445800627,-33.577490484513845,-27.973407449468475,-31.03140992899007,-38.46904565161837,-33.17272709138092,-24.059008757774407,-20.564831870329783,-11.404604953550173,-1.7324053445281542,-6.2879317996471045,-11.37521724056501,-5.05863073828907,-1.5741927378348148,-1.4266450552049463,7.4261350634901575,12.906503308646858,6.494318185136654,5.5577319201308,11.198506137151165,9.543856449834625,9.891226454299064,18.45063489412412,18.669415781211608,12.293700584076987,15.356268061755113,18.453432851506253,12.797581093152242,13.411688587049808,18.886892983996052,14.553121049930986,12.100220946731122,20.550339231915746,23.559206318463612,21.417411199154145,26.791007561426547,27.858864255266017,18.162316013683608,15.925206364605422,21.606293377808434,20.32709716321846,19.492690184254855,24.81108052469499,21.86329019357991,15.110732908495969,19.70106264486869,22.831761902540414,15.586206989883124,14.744914818034715,20.080981102827558,17.799566455729025,18.191691272395452,28.25320550104543,32.2219786879642,31.99736164924138,40.47109158821651,44.373484730827116,37.18053957368942,41.30001315377543,59.994971221533966,75.71969655299156,93.9892849292902,124.24456393778323,158.15648336360172,199.02434532239033,250.40882977172095,284.1468235387021,279.13304238979606,254.5006580861383,227.21117571587104,195.6208004101132,167.60825438709531,143.42591250813882,107.00168569657178,65.9191900258232,38.47333598904366,14.145141448473526,-16.312987663048695,-41.02926862765474,-63.98928545167405,-96.89615288996876,-125.89445437762178,-141.91606129045823,-159.2709349698702,-176.42384968693887,-180.3971994349489,-181.6799562824797,-187.011813595974,-181.3713282678122,-170.7148155270391,-176.54825038308542,-190.41421246232036,-197.0292999415296,-203.27827074931687,-206.65122295698438,-197.32388482266578,-190.30197076383317,-194.8556678648293,-192.71515870908996,-181.37110638723556,-174.97741730170856,-166.7241555428882,-152.37173010344912,-149.3998099119263,-155.2159135377526,-150.3513543204901,-140.62201808976846,-133.75195689660887,-119.3951018639506,-105.66781188853541,-107.405570963661,-109.28062251501801,-99.21683293164946,-90.02117085247744,-81.21780704911676,-63.70412849032224,-51.258369895318275,-51.719922072419514,-49.989679289449896,-46.38320985352551,-50.34695468619772,-47.62181771350222,-31.2260584253218,-19.676224363949764,-14.49601276526004,-3.6102353249953008,2.4799964586126833,-1.8411972822559233,1.0248577273477666,10.690140221223542,14.520519044328186,23.530929936085364,42.09379975509126,51.36960880816011,52.253591626135645,58.18889496073001,59.75607332546696,53.24612106769757,55.20570560806853,62.51987609148721,61.21414978396297,62.047110209415855,71.25186263127904,73.58105547886939,72.5680108593038,81.42385920670327,87.35237538816911,82.73076741612644,82.35432306753383,83.85806666036702,76.59917801874558,75.24088595220584,86.55078240135254,92.21889448947927,91.99282417311983,98.04877661286297,100.02070802117444,92.49711086960006,90.96668065662547,92.82358848076612,85.9817728026869,84.09877198238502,92.76349393562484,92.03018573731907,83.6086500651725,83.67492785580555,83.7005285678587,79.26293715445506,83.47245676350298,86.6392797205705,74.34960174969267,65.30940537987769,70.22292684950165,71.3470421480485,68.39210945324818,71.57851882155778,68.05603144350255,55.689070345159365,54.83099000446145,60.443891121290875,54.36524962924142,47.74843925051009,49.50508742539785,45.7810391214972,40.24058638554959,46.00566256309902,49.29644917026756,41.30160195339426,38.45817528396289,39.76495664210783,31.119449586739883,23.44808930708498,24.696980661983126,19.87429507495215,10.882991764238177,10.843679819118949,9.296451376681883,1.3653892824049847,3.5986748930890995,11.582701714270796,7.945542516756584,1.9469673637993967,2.230631811456118,-2.1315971589025935,-5.378463310052894,2.6502226534259647,3.4063036498553254,-11.700900486752111,-22.2312676045466,-24.082086769612527,-26.76387940015243,-22.553475338973712,-12.399042357142605,-13.520161628236306,-20.305651381643003,-18.175136238154803,-18.27527028465435,-26.556591962279132,-27.365564599440525,-22.258295839865006,-22.859811071627263,-20.034266765374106,-13.185935415218198,-19.176140081055735,-29.879914218385885,-27.98639334500582,-25.018949040550307,-27.764212901523848,-22.38289182772543,-15.446538586421838,-21.528711474292837,-27.471621697123332,-25.75014078488112,-30.458709608737834,-35.26870298111852,-24.827302053043788,-13.650095996327996,-12.992860078354008,-9.565920639029404,-7.291817951433691,-18.36046410474329,-25.7297266995772,-19.53742427972278,-16.82250420158825,-16.83301914303713,-9.647435776388182,-9.350742653013537,-19.99508151394157,-23.1176893459885,-20.594029840545627,-24.280703489727383,-23.074112745329384,-13.726941674344475,-12.84907709014903,-16.504364579928858,-11.442722875416244,-8.549310072199907,-12.398097657243683,-7.888492623307244,-0.23708074399159917,-4.222380759786865,-9.498031925626506,-10.65087567835646,-20.862670910983116,-31.491269729677686,-24.995316985077288,-13.396505992505565,-7.546072900583174,0.8767285931767899,2.3339315889059766,-14.989834015001666,-30.996886731584457,-33.79771651726281,-36.93745922933005,-36.54390004850541,-23.773641022863792,-16.135974666487428,-19.854458209180148,-17.615762162513246,-13.561091767640374,-20.945102828901923,-26.511733608976265,-23.441980484079423,-25.62129002859187,-27.055303902017833,-15.066505617489227,-6.585514173114868,-12.935364994993986,-18.233429926119452,-20.516968182673534,-27.639976212531934,-26.7491552242387,-16.43163755090179,-17.493451384335536,-26.10325966160211,-24.543909620774773,-21.43866118281309,-23.654389185368984,-19.472344866847898,-14.944949824556748,-22.096720722020017,-26.23334363831037,-20.12407572619948,-19.86267736901181,-21.98795866336459,-13.551822260093036,-8.004868655095246,-12.403053330126916,-11.076096262699796,-6.3422720724010855,-8.815745065306874,-6.0443182958299433.6154627468716694,1.6448202662693605,-5.483382973353887,-2.6380766140084226,-1.9068147606738235,-7.760402432772534,-5.936520160020683,-2.95960322501744,-10.907720249285632,-17.01675245553606,-16.510313961360023,-22.41754454456905,-26.19456777845412,-14.085690271895452,-2.575851473718564,-3.0174920556127995,-2.507095784655028,-2.285957428183778,-10.490428578256434,-14.022894847662469,-9.702551746058756,-13.110240045265916,-17.29416207193956,-8.08300654725743,0.11514303001987947,-2.1271522669223115,-2.300839189359575,-2.4398627692151402,-8.992727692630343,-6.940613124495339,5.458883565414592,8.619457615213,6.657699988920458,13.525918122109434,16.551489586679956,10.283493763293547,9.936117227448458,10.390704955543644,0.9409277399768818,-3.187799932895423,2.568544542213769,1.3558458489660175,-1.338645319115714,7.569113331814103,13.389812836071616,9.028402397843184,9.206237528604511,9.566890916805388,0.6104115517158424,-0.9902350966437488,9.71762505189961,12.53338719731931,8.025107189494157,9.389000638300729,8.022305867527113,2.0344364708765452,6.253453564295336,12.040357457722743,3.78702802496068,-3.811313533320432,0.1485360455068392,4.389512110446919,11.856105697556291,28.096218486679504,33.46891153676481,21.68659563674636,13.336596958740408,10.65550031950897,6.126018751249388,11.946387147039498,26.44136613256514,28.70383177011832,23.944970369530303,27.59404255989345,29.573938776734867,25.7142870808284,29.156429910814495,32.38961950113751,23.23575515814803,16.34910460747246,17.71052787902983,13.221947676519683,9.655683871171204,19.540671797755223,27.971531723665546,26.808074553929295,28.31902297135868,26.841345658608482,13.203086422875817,5.7383977589827495,12.204113828623298,14.779994993639608,13.949324202298563,18.911937104800366,18.069956074574783,13.399388367037467,22.83136435234457,36.51143147187488,42.537699465478525,60.253871568399404,97.96301181506888,140.08178490261255,185.28089946463464,231.94055549250393,256.2534857773165,252.74205608491735,239.2248835690643,210.59474630163723,158.78784031119994,110.55578878213063,83.31746736241747,60.618376221013676,37.38145638937448,17.882474256431518,-11.411312687155815,-48.37421820030688,-71.04841781136875,-86.34295737648017,-112.40929948832324,-137.45634482844497,-151.93777467370774,-165.95385707346293,-175.0365459850911,-171.81731126262997,-171.38436452196046,-178.6291235309558,-179.28226620852084,-176.71452942610088,-178.7276715472787,-171.99072343838253,-156.81399540055088,-153.72612164799767,-158.68916634796005,-154.5416319051481,-146.2096006052064,-136.85898915977413,-120.20788072896718,-111.02123657058424,-121.07724239408024,-129.05706972948605,-122.78497759005793,-116.936817333778,-111.39844202200057,-98.41680517960464,-91.0881128324905,-90.55018533063817,-78.65607302820784,-62.149471264156325,-55.94181842114344,-48.21973158141204,-35.05795315359019,-30.973097687639616,-29.2051434400215,-18.074691854813693,-11.01990856862134,-11.06180518403379,-2.1773175300620435,9.283320210533727,10.215753064042847,12.976671290026598,23.15634231189115,28.19282933297417,32.93719457729885,45.23982535986847,48.94232953054474,40.29986497711047,38.97729941616905,44.29464896485765,43.83754692452683,45.51219716445879,51.24810418482784,49.07918500623022,47.88049017024378,59.63676151617353,69.2383549266881,69.20326683722067,73.26747238983707,77.81831394059375,71.50255575266128,65.36786965708399,63.87083616590168,55.763042267217166,51.61602044664001,64.66284149738425,76.65195156206698,76.59984582121453,77.63759303555275,76.67406012232645,66.14665749745485,62.12979284968662,67.663921214811,65.5429419067223,61.644101994396834,67.53030846898788,68.37799974803968,59.07630066920269,55.78805424824625,55.88836883100232,50.90370452529553,54.19201852152944,65.54350884045971,65.08622324009178,57.21597683446745,55.3449157130522,50.29750570261621,42.50476032516667,47.649149542396124,56.026697271301444,52.41620122985441,48.843007811020314,49.70780598327645,42.97453183216362,36.4896759472866,39.45740411236002,36.399474936082356,24.023460467623252,19.170572971802994,18.83987044082378,13.504226412679749,14.61575959302855,23.273041026040456,23.61928867547548,20.638890874275205,24.97076321273348,24.376332175833777,16.258347454749384,15.282829100588975,15.273764871734429,6.20960240084455,2.9591656104387476,9.519860889571753,10.870817828052903,12.391276176475092,22.032089774843573,22.983015374676203,12.835001250153708,9.685887572173943,8.214472222507975,-1.998927215655518,-6.078766576470687,-1.0140697136467842,-2.364529860210444,-3.013316788473613,7.215473811048055,10.546865628982443,2.0331168904814905,0.6254393460869686,2.4577771830093074,-5.5940274109044825,-12.329523062854584,-15.31725627557271,-27.22044254804268,-34.766403730315176,-22.333517567467126,-9.138310491909754,-8.667328197128997,-9.531366970981635,-14.100220373801601,-27.21399185995139,-30.695971840070722,-22.368752164446747,-22.464626507179794,-25.984220951329736,-19.775658145369547,-17.424437212647074,-23.802074936683017,-24.92809150363117,-25.86890880270863,-33.835951323558255,-33.352579633379804,-24.180889534671543,-25.408844833625512,-31.87311591088528,-30.527981698890663,-30.122633125495824,-30.587218790257847,-20.27855059474857,-11.749881496397965,-18.24549884622168,-24.481422419467588,-24.161106880313564,-28.33586435856349,-27.840893599468203,-14.280868153937448,-7.443850626209715,-12.620999776007636,-12.629785940056706,-12.446709354544183,-21.51825545726384,-24.482108403677447,-19.079158477021764,-21.92647926918719,-26.181803965536588,-20.38235606591575,-19.50919945348099,-27.06452512468551,-25.288080695893722,-18.751765524125787,-20.39027735683528,-20.4277254698821,-18.493890137609455,-27.991706328970356,-36.211688493741505,-27.41879130492138,-17.166342537271696,-14.855885554588703,-10.547016355137888,-10.740722940162204,-21.27350252085103,-22.836418654615848,-11.393240819140605,-6.038406168520002,-4.757565657318368,2.0836958720741063,2.3448005684091626,-4.554024115884465,-2.8276967583760895,-0.3686585969992675,-8.550255267125914,-13.15622468686146,-10.745163832826401,-14.910832876224955,-18.505448816689054,-12.320993611131467,-10.670207131330896,-15.533477734595866,-12.623139146343451,-10.142341747053468,-17.761289625126526,-19.649716552829915,-13.964153049520878,-17.12553114917892,-20.94847219704444,-14.22671668031024,-11.44707475205579,-13.174183303538586,-3.9679155386490117,4.8394028123371955,-0.5909696069866079,-6.183032300444623,-8.738081617217114,-20.937837038209206,-30.423862987329642,-22.958757251423016,-15.235753592439004,-15.450650899360294,-11.378303033837442,-10.365694718377073,-21.510032798635503,-25.787612103096638,-16.90441160109888,-12.016716074631715,-7.706039517494293,4.035474315648283,6.6267937116274265,-2.4430295854186967,-4.832567317290048,-3.9362078342698688,-8.830932099835728,-7.440371532665438,-0.5793789556089992,-4.186033457599689,-9.540567199128278,-4.4214499100862765,-1.7125054351146267,-2.9899851854565087,5.163672777245809,12.2649445518548,7.305803926737484,5.581985884891039,9.026491445516015,2.915049513282254,-3.9133907152062983,-1.0470966977661542,-2.888724065113025,-9.411454947042758,-3.879458550447953,3.6736196858162655,-0.3628503784455859,-1.6361646075104619,2.842020235424772,-0.8258528470342816,-3.1928733799515703,5.384427882817791,8.14416238887583,3.0854381174819636,6.954553320829376,13.042846426139613,10.421921184772446,10.934409401531413,14.314811568239211,6.9428749655478,0.38483318191957383,7.518423287329091,13.573568255777607,13.460068059766556,18.689830397478502,21.29008099090362,14.021698673303188,12.86164313602829517.62291953441002,11.811510643376408,4.585607997184682,8.0842501726829,9.480914941216593,6.56226004191768,11.070528369263313,13.959320491137625,7.19112473077407,6.135819878606617,11.078060485850607,5.386120990068893,-2.420051614476974,0.8913498645763234,4.088691686069905,6.678590655085264,20.236002642261827,30.3225785748942,23.930928135479647,17.54834631685658,16.20017953089934,8.739396517757084,5.268443863060224,14.07607755112424,17.825961044889464,13.260895635066063,14.682961895416257,14.744422629595006,4.462905973004812,-1.0559069210228078,0.5804096433655446,-4.609859035221097,-8.271904818729478,-0.3506354025686602,4.495922177485937,3.274567762071082,8.840964406276004,12.828979274925029,6.739987956030233,6.659465614485295,14.940665272489019,15.521944449046739,13.679501903672067,18.72173705087187,18.099035892815518,11.856168105364166,14.634121801629295,16.196448134317222,5.036003446800851,-2.3495025425299203,-0.888957101166759,-3.9428358348039425,-5.501066454096814,-0.16156631925581744,-4.184869611022746,-14.321858225970972,-10.119080745973086,-0.4726557473233943,-0.8293092917065275,-1.2802048418969578,-1.0312907802648892,-10.829375401692381,-16.870621405005895,-8.337810302260259,-3.328184356590935,-5.314681916132285,0.39384717081750686,4.901560823003864,-2.0182044869596787,-4.9747234243383005,-1.189302731403986,-4.585912624572061,-7.1669303948390475,0.4262929238767468,3.4411208939009086,0.9911824641917366,10.02236996599254,24.210506643545692,33.33983140802653,51.74036593982311,81.3240911831001,107.01582642739011,137.79666072659404,183.8266707064748,225.13268871790524,250.1820592150148,264.4305719149289,257.65020753101527,227.91834240766292,198.77741093256438,173.56773687870742,136.6119615187513,98.40019211271036,73.2843367977975,50.381184570004585,27.90303709470277,12.204553334894284,-14.270999901392175,-58.3409399286101,-94.63273024671025,-115.92474039040191,-136.7226601474929,-151.02858499725187,-153.46274889112766,-162.00314291641467,-177.2874880325385,-182.41980012487073,-185.64011288793733,-197.03017110434092,-201.0933356538735,-196.84994512318954,-200.15857130343448,-202.0080168984664,-192.46209651042636,-187.60908251616738,-188.1095680068098,-177.49616490820222,-164.63085647234885,-159.67855193965178,-148.55939360274746,-132.9540663738007,-128.4691076969989,-124.52086228533425,-110.57383238751314,-101.19046812089167,-97.58000619283979,-86.44472757815632,-76.22689664749957,-74.07524149418147,-66.20676760922957,-53.13479301563359,-42.697726542502934,-26.074350019540333,-7.777490829766827,-2.082790202428412,0.040598950609751716,5.857231751896839,7.399220089787967,9.770595319378648,17.37085583023208,18.119319043420845,16.64651680391868,29.36021642711448,42.46316726321225,29.952129452441135,-12.806655361868327,-78.97792534003877,-145.39431734512652,-173.5521818738834,-154.78513241579262,-115.6205419327321,-80.56805398829052,-64.98521991481101,-68.47022591599581,-66.05278990266557,-46.59869215009273,-29.979191855653788,-21.58471099833072,-9.314993970096536,0.21536428952046816,3.447173692650257,16.41352324334801,33.45746201549864,34.53213361186545,31.18742396551504,37.84550132148709,41.392589606459666,42.964036446627716,57.72053033713585,72.7168398810623,74.22912441744977,75.86053064834573,80.01567456682088,75.07437807133445,71.51360915439774,79.29073200487002,85.28598728787567,88.84567709832551,99.93323606832945,104.66152852735419,93.01139719308226,83.53422180903969,82.99384668809138,81.45981571735345,87.32776851493995,103.80649309965736,110.48739507063661,107.36434486446053,111.70095315133993,115.3104168341644,109.73940066933565,114.95335011522542,143.85092909330106,188.04766447454028,242.57396286347333,293.39551966398153,307.8992151378708,283.7935006204844,255.52883931354125,237.147678685468,221.80002698871226,210.48276371542434,196.32259647897152,172.62286340910248,158.64617444091974,163.39825956659155,164.09197693620212,153.3151862666567,143.56362162199008,131.27090256376164,116.31165648944341,113.89683888591603,116.72419758788479,106.42804587933503,92.3360720902019,83.33508191715224,67.86117482543165,51.87491983734725,51.427194303671385,52.820719292608146,42.03802906489975,32.91368471850882,26.722938724535965,11.545626013671273,0.4031229455835481,0.9501831935013072,-4.254114481585459,-10.853377534733676,-2.3583754589922696,5.457425036230904,-2.3332200110047845,-13.144708829514093,-25.17567482871396,-44.20741128063982,-52.51091158432944,-42.61373071078382,-36.958602664845856,-41.52265299417369,-44.08169669450446,-50.978478039024196,-64.91069174657804,-68.05006148362507,-62.166686730404436,-64.07999107278292,-66.19655129711691,-61.24533771069494,-63.178822998402204,-69.24204495814504,-65.04019080505344,-63.30746957883612,-75.28418964844178,-84.42433977047972,-86.70594177947969,-92.24210738847955,-89.92325689973609,-75.52082334943611,-71.65494643452169,-79.75833186867101,-78.84565171559225,-72.53617156337366,-71.22724454015193,-67.49896398758908,-68.20174175607991,-84.89553948999942,-97.31749267968306,-89.2556999607603,-76.74603112155748,-68.224861407016,-59.77056681282822,-62.96433650180655,-79.76396684951436,-89.68626857632428,-90.92281466363062,-95.45393972444764,-93.37636372331416,-79.87912511159152,-74.87960874400318,-81.4081901807291,-85.1329845889322,-89.72351883778761,-94.892301943352,-83.28794375928075,-62.57873413279916,-57.29234692713999,-62.83210631379028,-67.07831292527621,-76.19359340881567,-82.91525196597154,-73.0173966919382,-61.889296683971516,-64.0811094850493,-66.72460472899944,-68.28356914125165,-79.31014914377269,-86.94908116341773,-81.0829797396732,-76.21682005241405,-73.20338407948395,-62.118058918289094,-55.152908558880625,-57.77791512001891,-54.914469478809764,-51.78237890522408,-61.320337414211856,-69.23530415730275,-65.98952855576388,-62.78911137355185,-57.7926819208866,-45.88474673697765,-41.63329778399486,-46.91241711564054,-42.6660141462453,-31.90628015823234,-32.91502813894709,-40.28398070927959,-44.900767666945555,-53.67922423087854,-59.641726208671855,-49.93007584184205,-38.5527083291625,-36.32793065072206,-30.417584646946537,-23.461309882295833,-28.057623264222897,-31.602059338184183,-25.158645443818877,-21.88052487331572,-20.789108890997475,-13.476468225796621,-12.133841102771932,-18.961999805109706,-15.033212913242409,-3.1508047631594636,0.31782754168828103,2.4772153349407393,8.356225213274994,5.18145095369178,-1.1608070454101804,3.7292740937441935,8.81247393435249,8.312382603762885,16.524444074816586,26.757472059937722,22.565828614472064,15.209970745950553,14.440306302659952,9.989121718173937,7.115701103093018,16.480453319563797,21.96092429500473,16.181508643038832,17.051381090342442,22.67429410480843,18.856484080498497,15.568426804709327,18.947592405981325,15.722272092072776,11.481585455866181,20.36170847259157,28.6807579379061,26.5231964833048,27.926814601969987,30.91166121806718,23.6148130875603,19.61960241169477,28.442474438134138,34.68576050345635,36.63474995306679,44.63526292034073,48.130997874989596,41.585771356704946,40.91737834456285,42.74147041523541,31.705913584842797,19.884414465586588,19.942854017539855,23.57134878801527,31.936361404316592,47.23372188800321,50.86806604236038,40.15443519365264,37.35023498514826,42.71396511563927,41.94758880811655,41.2007244533357,41.8026608428426,32.17338455992774,24.618909401500964,34.37688728410602,43.69390595144091,41.37737273424222,42.76524111263325,46.048652024404,39.442551096161836,36.33311837814658,41.710031611925736,36.82823089592973,26.491014590853066,29.167446449202338,34.78055728166696533.86896358495298,36.434424295432144,34.69229420371051,16.024520817068492,0.518116455446882,4.711240037370554,14.739216355240748,26.97749260111777,46.004136730152425,53.05035225897751,41.156271730752174,32.264923233893505,30.30660633524169,24.767155846508874,25.56795706417684,35.79044965996226,37.77513428844428,33.706582920807314,36.96128362785828,36.799650619442176,26.802009077883582,21.27679579423305,18.489220438476327,8.147515327461068,3.0318458784938027,9.843389335471384,12.024764038492787,9.642390626543143,14.355657119529475,15.541270026967787,9.43115655060387,13.459128263803043,23.71639729528328,23.50635237218906,20.27877285843894,20.138507152118038,14.734802044796858,15.715710293497754,37.28845309640465,62.40852804534663,80.18402750150364,105.02131459686296,137.71166090127412,170.31618362355854,210.4959378797087,250.23275027242659,262.84182690216187,253.0212078384419,242.633786604085,227.65386113467687,204.96836587977324,185.17353288755442,158.54553120315666,114.79203202955091,74.30071022863699,47.43343837094884,18.665857328327498,-8.965061153848355,-25.180480865220044,-45.04704853831394,-72.9371803181655,-92.54687496871856,-110.64469534691384,-139.79453530842875,-162.55263026148745,-171.22600476073353,-184.03898781648576,-197.40082756349545,-198.1868302745504,-200.45536268381784,-209.06631608277314,-209.33278527233307,-211.46753349110855,-229.37654197803244,-242.26917268642734,-237.06775141138445,-228.52703079752357,-217.10794960951117,-198.1099102680886,-188.0490221462919,-187.78045044157406,-176.1382340286843,-158.22994648465146,-151.3172472083104,-146.10521780640383,-137.5678056245805,-137.89710811001933,-137.46633225055726,-121.28708276850043,-104.57803558374928,-97.10573239054084,-86.27493827546833,-76.82083492493092,-77.67199258444907,-70.4758276867829,-49.80797893573993,-37.57064088212171,-33.38846525505877,-22.802181686441948,-15.562807415183904,-15.855672346543928,-7.30391931184373,5.139792307769904,6.803488439787771,11.441916735572306,25.137907122644048,27.717674976283284,21.68495336203519,25.07955732951267,31.148756907006085,35.81454838138471,49.691877746361534,60.33524871697489,53.250287167089574,47.52907892240552,55.400162127991074,63.23148898484324,70.39666817766835,80.84474916466222,79.0885488377827,65.85792386124528,63.96822298990508,69.90382376487575,67.01611701581552,64.3369995138822,66.2422097138633,59.9127241264563,53.699051356232644,60.72967167063283,65.62450229014715,61.96421559160076,67.72251651154795,78.46326836808959,77.83590968535361,77.12908100684663,82.08328466969891,78.79187987517864,75.21353981034034,83.74313335135619,87.5796628342074,79.46292595521533,75.84655447413704,74.97433158373576,68.87186233978525,70.81700531244584,79.38758864968214,74.21949221672176,59.91562899255191,51.231833663885936,43.504319810948395,38.50711948004234,46.93345452057902,55.858437632996,50.544046675187275,45.30977043994966,48.62141073806217,48.058367676900616,46.5198279205541,52.31015901285089,51.54652994385779,40.44555763549164,35.92181663424381,33.90876466001046,21.35658242063879,11.3235389430161,11.021118806395528,6.987523042752789,5.4875107571562465,19.22785280725484,32.54540412375753,35.66107259765768,39.28455824225152,36.93603160753993,19.816233959677696,5.982695749480645,4.443162808213365,2.920839554406003,6.0982843174969386,22.064909239094675,33.396758240448904,32.616685173866,33.73389983503106,31.55495779686236,15.744627644725691,3.056138512839535,1.9734452875879132,-1.1153320015708459,-1.6611560858331584,9.772917557597584,16.074803620966264,10.015152675477736,8.397346739113104,9.627810585804923,2.4274837734656245,-1.9680692508217326,0.4001616520825133,-4.75767903417769,-9.64574832892308,-0.11506093577442389,8.332300102580579,5.897014653240362,4.82473986695348,1.5428846396520706,-10.124179971516323,-13.13097246137417,-5.9286365056592505,-8.90845215918293,-17.527264125179503,-17.060211399198714,-17.52445403938182,-22.24437637225843,-19.199292381127965,-18.857570495625968,-32.51281402001505,-40.21304622637773,-32.928141326389905,-27.319480821595313,-23.24907793308809,-14.305430715171443,-13.76789739921564,-20.397803512436738,-15.17851822655728,-6.840638650666216,-13.454243596137955,-23.18830616133134,-26.438590738447445,-31.11754045110674,-29.07387335909996,-14.738254463718496,-10.391473916298786,-20.70694092399092,-23.867938042829337,-21.54842037761422,-25.490260668395322,-25.681660356773147,-22.51044388228506,-29.79838851529481,-36.26965622297854,-29.193682858928952,-25.628518749200467,-32.247098178827216,-33.29208603377043,-33.093937956488894,-41.99678131277084,-45.22437322057553,-39.181225382389684,-40.194908703487144,-40.14407530081537,-26.21724883952535,-15.60169022919818,-14.251472955992064,-7.948548828400451,-6.54916810252144,-22.500952467860095,-37.859527194960705,-41.873090079960946,-44.256382932887526,-40.38643008949913,-25.346232432683586,-18.466979398277154,-24.86475818854752,-24.71325387384369,-19.47474320283949,-22.842332169838272,-25.707843349474107,-24.09166911820278,-29.446206096583882,-32.49085727434987,-21.524213912614186,-13.180089398605952,-14.96814607556054,-13.152657523484535,-12.535578529250575,-21.59631393678413,-24.429262666675484,-18.64397900226001,-22.472109904567233,-30.156204245459342,-28.59763242474415,-29.110234490646725,-33.381397467981145,-26.881385386230633,-19.419080436407057,-25.511172380880257,-30.54296421276474,-28.925645036759363,-35.438267897347664,-41.55002198992455,-33.55540942529026,-26.292776642038206,-25.98284332651911,-20.538673814035654,-17.635537688836347,-24.912573744654527,-24.549892021771818,-14.059594843918775,-12.07949109748983,-13.8556699628173,-6.879316538204625,-3.2978819684883325,-6.81869880767412,-3.1336027393580466,0.2857334969492451,-7.746508213476236,-10.67268493735514,-3.9772745917209367,-5.450462368839737,-9.562448054474961,-2.619658084908746,2.3270887896895296,-0.5915582280759915,3.1294689756586775,8.478796110947899,3.6926276478356552,2.7020233025264284,9.987085556145185,7.512659100098251,-0.4043389528226822,1.0770731674091476,1.9249583086410245,-0.51897891684205,8.496976310552162,19.816163831765465,17.738705343548453,14.095397746242213,14.122717598139465,6.375228994506202,0.06266282082987251,6.161625613375977,9.567503540899416,6.6130578686469965,12.262342215987793,18.867987324928823,13.206053562574912,8.063143004182395,7.785822131881473,-0.8064614789176323,-8.574179085888115,-2.343408966143001,3.2732480678352682,2.0053376660276045,6.34127193850115,8.60473343415214,-2.0561775664147586,-8.503207181782996,-2.0513133187340977,2.6684391321295275,7.276933697871228,19.27504418662746,24.273969836001093,20.658367723165224,25.77212330142373,32.35567073835512,25.95217311348341,18.81909543679097,17.2578104273522,11.355300822297474,9.708533338557968,19.899504483158363,22.17235287022753,11.27349175192048,6.063610319282221,4.4418744864607955,-1.4668149989435642,3.6693024361226265,18.406612342823546,21.45452773366893,19.74341247407119,25.299577138886193,22.23938097621494,9.200628223037624,5.777878471877286,7.405684950686739,4.49097821710105,9.912841779030355,21.319211239024188,19.696144305379658,13.021744669684711,17.230904945328234,22.575296684232487,23.400899701604743,28.189682864337364,27.988699197181642,14.770355016062465,6.794284048595481,9.942323909391654,7.851570644705042,4.001245243944792,8.300631021141609,8.96442207804995,5.971365432610232,13.567848996297066,19.875777744808524,11.183596228479468,3.925978896473727,5.235136003963881,3.9058824798121963,7.156728135209067,19.771428869785744,22.1506329018895413.012813531278335,12.223951456813804,16.383928275594748,15.330657543010108,18.385437314605582,22.875470801086944,14.143405770994747,2.6882542775679577,2.0329562388744513,-0.25010693943148454,-6.816621224891166,-3.058273722095716,2.8834024139544336,-2.7951626556429034,-7.393274228991761,-5.992953018998729,-11.140478785402184,-12.494207849947452,2.063366509475477,12.894283361235683,10.965324559179798,11.512731977538426,11.095127480630705,1.4949830222556164,-1.3270572734295902,6.5192920139019215,9.371216748367605,12.436132485020439,23.79754599455684,26.620302603644213,17.929197276277037,17.582495830452043,25.97649688525692,35.438561252361154,55.413723914411094,84.3672496028053,111.81106385971174,149.56214939964258,202.71290550593983,244.32448706004004,258.55381286402155,255.29251364573747,235.65265902442945,202.9370142587837,176.83964335233608,153.96911569625524,115.98554872267111,77.02469131122336,53.764120157821424,31.00273173754905,2.2906114486196403,-22.361817012098278,-51.4157842986809,-88.18146355010894,-112.76687642619706,-125.97162889871575,-145.97950891010473,-165.38228241439973,-174.8551619310344,-188.30674315943037,-204.6378679515016,-206.60785833016882,-202.35802436239342,-203.848373293097,-200.02624650518743,-194.67462700693397,-203.101689377293,-208.4063398083522,-193.8463227928683,-178.4939994046505,-171.23820007309462,-159.25260642739332,-149.91592299534756,-149.99906231274124,-140.80724738520988,-122.77270346951559,-116.33178693538271,-113.65805234777837,-101.41275629423271,-93.07287712134251,-91.49504138949277,-83.10497380525854,-76.2584835047528,-79.93978116724645,-76.86725873966613,-62.7454238594982,-51.94184753237808,-37.592131388510374,-13.322631019005689,0.3755705297994907,-0.4487765708150331,3.3817645601010744,9.949945577516768,12.6105947006636,22.26714341287334,31.530703088933898,23.658194770025087,15.684130708495507,25.540569270280194,37.880726784996746,45.000462473087296,54.50118878358768,54.410383788632245,39.68138207959247,32.56223802131652,34.81538498539334,29.014540105801302,25.972638424961062,37.93836828194155,47.7011057342649,51.45122041296096,62.11996528506293,68.4910358868215,61.01369734353841,56.56529577620271,56.97265619559336,49.269390428110135,44.923076799445695,53.96499838481964,59.520355866275374,58.02901831568678,63.46001874520016,67.70981066941535,61.1733520442248,58.01916917864863,57.98716388050822,47.75011707564215,40.25143130224812,46.1048668139446,48.676162278172384,45.3681158168878,50.109701154576435,56.15210309817472,55.024274387858235,57.092888181849496,59.33901816105864,49.61819196339541,41.77491722128006,48.87093532494627,56.777743017807126,59.80154530527156,65.797370847845,65.97266811571858,55.77880113332536,51.88957404034271,54.563985109232085,48.73228702416788,42.10821317150936,44.08762108413094,42.01843388193717,36.65082212838912,41.48958477700917,44.53333738898344,34.64592258317569,28.224985415633043,27.468173122863902,19.124773781338234,14.189967761900741,20.851917806612573,21.061936044973656,13.854915816921242,15.194631441032765,15.603702111162455,5.990741239952227,4.893604524350633,14.618705080642663,18.6696141140333,23.580093956302683,34.12191942139728,31.734846164237286,18.410478209196498,13.903433628321498,11.186186817921106,0.27097260131609335,-4.348865093660686,-0.9951250753234411,-2.7917105512099445,-1.2594485625940552,9.51421309251803,10.582510200331583,1.0551800210069988,0.6902126817145691,6.1527892145554075,7.650723810858062,12.771694143434484,16.121508889414294,5.380646878454857,-4.9110345395687265,-2.197125390574285,-0.04497202975971719,-2.528139970093529,-0.8499957781702162,-2.74041401637441,-11.440896584694912,-10.562899165767627,-2.3129431048710822,-3.942855658569572,-8.649157921147987,-8.224744772846876,-15.725446990329798,-26.759569627154672,-21.5003260751619,-8.920898658014018,-4.235518039360202,0.3552813418936389,1.1683328240034156,-15.07786868451362,-31.47218030937756,-30.26593628817023,-26.027147471047726,-25.004970645095092,-16.513995693961224,-10.778450050475577,-16.724235826008474,-17.966567969570107,-13.529706491473771,-18.93550144268859,-25.350891612485665,-22.18897479358833,-21.860457106620863,-22.55245935984735,-10.564090932388412,-0.042132733114528254,-5.0743223505355655,-10.88869279286186,-13.377445012763467,-21.920475716899045,-24.374561239605505,-15.118749866055554,-14.82536497159412,-24.570798793897648,-25.651751029348283,-23.521892053416757,-28.105049274266378,-26.77636668883501,-19.765220308115943,-21.283865560920084,-21.397087744596604,-12.464337805369311,-12.76142675797271,-22.86148923290695,-25.381600109590675,-25.45318409637118,-29.402022993012448,-25.40084557850573,-18.82741785907547,-24.23838380948975,-29.204615933764256,-24.49207830763536,-24.668809001461142,-28.25200314622151,-22.508508422057545,-18.712955213864213,-24.42458809610557,-24.57556224018468,-20.750504553440685,-26.41479573120746,-29.911849797480702,-22.717524359592474,-20.78005741086226,-22.369014507509444,-12.430838784165134,-3.2253433308707447,-5.199979814357526,-5.14468244977323,-6.848677727741798,-21.27768198010918,-30.2423400180257,-23.545495436397854,-17.909153813609922,-12.796450205229426,0.9961640766335504,6.252873944791368,-5.8428348446410485,-16.52766017955573,-22.444775475632014,-30.559673576379325,-25.867458303495354,-5.662040004826596,3.221892378931986,-4.547058124544884,-10.635546990021007,-16.593113242734507,-24.40504509857148,-18.490166126175573,-7.647299992032837,-14.10092273058136,-25.443521846127986,-25.117248507098676,-22.760639222164777,-18.886694296973914,-7.186163511721976,-4.946318912904469,-19.74764302312253,-28.741290598291126,-25.909741946749193,-25.10790346521427,-20.303362742256134,-7.574894353203212,-3.7538565781336835,-5.9831629896390295,1.4255179824864732,7.144110315374134,2.6195884901044293,4.577710860249338,13.081710803445413,13.52197568325886,14.167317779606984,20.97590153433776,18.89672183734811,12.373568392416718,18.107591359553705,23.20562265036591,16.28655519509826,12.863927414281209,12.931791287271423,5.286343079721895,4.066830940206742,15.66383623292483,19.580392522947662,15.043037206280811,17.697359380728884,19.090181044903797,12.593779850470623,12.989519119085337,16.862414244833346,9.995280979314614,4.450779846253045,8.823850963717893,7.464760433986332,0.4692274549248392,1.8048795787544645,3.8677230937332743,2.789476574123076,14.601312263643479,31.04859701235892,29.914016769358952,22.01839182670989,19.982221580954537,12.56424723331386,4.692840322308609,8.821897958194873,8.1757672724192,-6.017166197154516,-12.77021781076833,-10.83395507200115,-15.438547065058494,-16.802979854101245,-9.387608962882739,-9.598109623597587,-13.103360946249815,-4.50231128988364,4.852854369430484,6.357662835987923,12.644104425812914,19.338827255858746,12.664081912831099,6.297532615801758,12.039726560526233,16.425881115081395,18.72659454448391,28.127541779325004,30.521980206967637,20.169183575574387,17.51594427152528,21.8167741043424,15.572980034700173,6.798346907819427,3.6545946622654024,-4.188863130221243,-8.622820390839058,3.4201967498965704,13.726568198735016,10.27546236836093,9.021786609445508,10.699580925016875,4.521870419459228,1.6893912983889112,6.598013381504198,2.867150862329178,-4.8946449803090095,-0.9082261645263134,3.7631469498459835,1.3861589406687966,6.457376385084736,14.426527751858908,9.508859676095271,3.4635974308519657,5.435095744186048,2.0143363354221475,-2.7410819474826438,3.607082266096298,6.512536441861702,-1.531424267882871,-2.480763589958787,3.6813231020025476,3.3675430468168206,4.505370327048442,10.228443017233893,4.48279489407419-8.045906037038652,-9.728945650271683,-8.133455823728323,-10.770634458207056,-4.666220787350859,6.611459605864864,7.288225425256604,6.709783006049499,12.460665507938394,9.939420745033257,3.214415628527336,7.856746639180369,11.429402160407284,4.331783396665062,0.9033494283308341,0.01192120455472534,-8.032709987227118,-9.676261019001988,-0.04073733418137593,2.2010309674412696,-3.0941620954876834,-3.5501595049680565,-8.189963712422319,-19.770657361558474,-19.80608833080729,-10.029635215356656,-7.26873082114116,-6.112882670135971,-1.822023100798678,-5.6828181674303915,-8.961535505850614,3.2440399931879327,14.11494788928287,11.056311429051599,8.519933333789238,6.903216604116088,-2.4884443344400435,-6.325106980533907,-0.2555145833120549,-0.9499994078231178,-2.8013406901648836,9.059512965824458,18.090016752364072,12.239651154607492,8.06319801443252,6.162579321567926,-3.701785820313515,-6.958231832709469,1.1978314059556165,1.6282290769560261,-1.7233395207090623,5.751699520197425,11.511172815095899,8.236251499260142,8.067393978452385,5.890606141769561,-7.15040987026849,-14.443761198470524,-7.256162599577055,0.4918833768119084,9.287833099412097,25.479928882703014,32.30611435282864,24.56539428167097,24.302724975405802,33.83661804864829,41.51473038129936,59.667873320317454,92.60271961875418,120.76295352361474,145.6797718013071,179.46975433811002,206.80786504867035,216.99651291158682,222.7118214919489,220.30982070876036,197.2737274478749,167.16544359997008,141.2369858063847,110.77896585151792,82.09028053268165,65.98388816651527,47.02048285730231,16.036042817027692,-13.268319028681637,-41.32218817308283,-74.9897892573639,-99.34926366630478,-110.2966352686363,-126.72505694056508,-147.3770430757041,-160.29918465847456,-176.08297391025644,-196.58672410235673,-203.3769698049345,-200.09939489912796,-202.57623459723663,-203.51529768897456,-199.56672578749038,-204.26554271822064,-210.86573618356988,-205.17431054654332,-198.39724154942948,-195.91992832601267,-183.39238883118142,-165.25194837506433,-155.36725587842403,-144.56501082661714,-129.76475153138625,-126.49589128318644,-128.0626870665143,-118.26806401438463,-108.41507334717731,-104.68641652118914,-92.13236535216022,-76.91600143563831,-74.18269290372803,-70.5605056449831,-58.2801241478308,-51.59469351207399,-45.45567208324961,-28.226622884800456,-14.591149195693514,-11.628398898760794,-5.678893165831863,-0.45157712099913394,-4.288355300505919,-0.5231407394527987,17.04342353891609,29.346241017829414,35.27910272985468,45.386635394944015,48.75273299660657,42.47656083311949,43.79013875541925,47.96214088704555,41.421830619759604,38.885046184456954,48.50782782786264,53.165198545870446,52.53432199042737,57.2407428624786,57.06506533087708,49.631629774347445,51.532149013508246,57.707115219027116,53.31124059876086,49.77402185378137,54.6531934615396,54.99438542490878,54.82529986255101,64.93058429983512,71.64972076825428,69.85017822464248,74.92545950237474,80.96508560295734,73.7839682232814,65.4879255682441,63.231614285063834,56.287360738083066,53.14975903506325,66.2387007640666,78.4989534674531,78.12145227278683,76.81105573922177,72.07266476431334,56.8371507327507,49.29661182545264,56.670357321138,60.48791114674084,60.94631205723085,69.2034692906685,73.92829296161524,70.1327755659448,71.34735673147657,72.15975619935992,61.04513320952134,52.86811094679646,56.46270616392375,57.889765645249234,57.96520772327341,64.89088194572712,65.38331575713401,55.037897612578604,50.18029828167729,47.891732584951846,36.8374554999052,30.43841641213989,34.75677948187736,34.532944800122195,33.974690650333216,43.95444090263933,48.594277394773236,41.32172531818956,38.981594282796806,39.070243372711744,31.15517158053463,29.08120701554254,36.234659220070576,33.80340540527712,25.600473110727066,25.77652153985133,23.290572232077253,14.030877984760448,13.047611211913363,15.316659531830284,9.855091876281836,9.737718510174814,16.944196071655295,13.145220442165783,3.091349345740576,1.6326256931342975,0.2793179164136723,-3.6431782184064208,1.9682493957085234,7.279319449608636,-1.10115845159432,-7.493870772183719,-4.293636376446283,-6.5209596222643444,-10.045539950371888,-3.4052477465165074,-0.3320181375579603,-6.0323907680285735,-5.74272232902686,-6.006478987499984,-18.7982700244642,-28.384380020824356,-27.948440862184107,-32.44713074246406,-36.80482631398446,-29.280153764954377,-24.52724688347878,-28.404113677991525,-25.094738183927767,-19.909328986353195,-24.703723289435878,-24.580364583774827,-15.609163503510509,-16.117784662070406,-21.355412709903774,-17.941880009479334,-18.247237903917735,-25.64552466727168,-24.112548770980826,-20.53685328516536,-28.841148747848134,-35.94162036063356,-36.112128124516516,-43.407741957297766,-51.33356110938634,-46.33424111902801,-40.76989497368925,-40.248247791723394,-30.90976367203768,-19.963780682576434,-21.951998685305014,-23.881633179508515,-19.173768925441415,-21.877310919637843,-26.146762344556485,-18.86968815035091,-12.297209860494945,-11.553473711295645,-3.30172525418775,3.59641933983273,-5.904547118057646,-16.994146279617123,-20.19974283854639,-26.36449391255327,-28.01288075927051,-16.469369560873517,-11.391321649746008,-19.503151900179116,-23.479491896881093,-25.859695827233136,-34.78393874395857,-35.35578442903557,-26.36403774187918,-25.812089896363332,-27.367263361230528,-18.81990621273235,-14.33914706762443,-17.959229921495055,-13.898124024364485,-7.738295657064245,-11.37863319993348,-12.995416977726515,-10.623271061106209,-19.753488548910926,-32.11337947656033,-31.880267123933052,-29.966429664135248,-31.473260781268817,-23.767287042424954,-15.773548450731372,-22.313980883587096,-29.63408726635623,-29.62704890697907,-33.95536099931468,-35.49518792383343,-24.70158624887113,-20.001479623869646,-26.75160483970835,-25.22600864882918,-17.91541785257175,-17.848809604476713,-14.772804199088068,-7.319994572062589,-11.00181705055183,-17.303971169011668,-12.687074794769835,-11.194526200854046,-16.706411215837267,-12.553986375602548,-4.956019397729438,-9.072034831128667,-15.308230243810176,-17.742705501328373,-22.96473835778023,-20.073605895213223,-2.3087923100423264,8.74477835792215,4.411132918576474,1.7121639775110449,2.1617195908204803,-0.19174450890199668,6.2703988479724995,18.641019228533644,18.06854425001474,12.365462046204241,14.506249604971416,11.07633825486848,-0.1401576363705086,-2.6894359054075414,-2.8139036380880933,-12.031907393318727,-15.979424064304283,-9.346138831449672,-6.887065951475484,-4.617555130062684,7.392725090291179,16.10650187832065,16.253463965292198,20.298486481047124,22.622511420679647,12.924259203560167,6.484779509695872,11.61423275210013,13.732189775545212,12.901435630757994,16.22077748767891,11.504982459758375,-0.594836817426577,-1.5620736479014834,1.5292437353069852,-5.895409100612355,-11.01123620853588,-8.46059263887258,-11.158422361849222,-11.894768188288628,-1.7706431411994936,2.122192058445785,-3.495045483819501,-1.1327656460565871,3.588007332066105,-0.750573079185342,-1.1420614392720456,4.015403712702835,-0.09250316367635536,-3.473031857903607,6.3430112675963795,12.270237404497527,8.898455489962746,12.249953087661769,15.979904491025042,9.204704907122096,5.367740728492658,4.537520230886406,-8.66005430179113,-20.974993422670625,-15.061045874881746,-5.511888281969503,-0.7876137053116771,8.491064778000634,12.264004201421258,1.155128262448451,-5.533549278093311,-1.1739471525238068,-2.17457439700965,-4.171651287696985,3.393178119827598,6.380481752031496,2.5235637137483566,8.385695754703123,15.453407485082835,10.283450090677658,7.078296595573816,10.314072382751336,7.0008800876462575.194091199782392,13.727648982516335,14.896044412695556,4.69405591759813,1.0085489895688615,0.3678968216084625,-6.278201524275477,-4.953229221066094,5.218562986132065,7.900403493362369,10.741973824314332,24.977160461589296,35.29322384068317,34.904083859084174,35.73190647421375,32.634975914385414,17.78015421443136,7.686653930888342,8.584049212284349,6.231298586267357,5.166470541764963,13.842516708049054,16.1968954713508,8.074091725504882,5.7970977798632735,5.207664318063928,-2.64808369167997,-3.6528060407569107,3.7394221503374516,3.7549377961084645,2.932250733214061,10.910552104821933,14.718199712421075,13.400001791390515,20.865752717252583,28.487524607818845,24.789310809669715,22.72923341335659,25.228600951497672,20.852857194262196,18.74435599696575,24.35269252372633,18.5884417425993,2.034760039914916,-4.203513532232219,-2.2768563728933486,-0.34304792167627185,10.185379145833155,21.192943652877993,13.323900940819911,-0.5800258111120784,-1.3856731815395942,1.2372442159469605,3.381597745985124,14.723835350483416,22.784450606484448,14.903840270567812,7.618596116073263,8.391031609046419,5.026298178859591,3.0323084399051323,10.146416007772764,11.133263358642882,2.725410473215064,1.1558272808785386,2.5962916978737027,-2.805363439267266,-3.0278690906294665,2.0306587998654857,-3.905469256435443,-12.379209475531438,-9.836378914935311,-7.546400935415419,-6.705561713411899,4.847813638543856,14.136221500689121,9.428043642782878,8.959027811218807,15.853571569531399,12.067009336448285,4.296648173649054,4.51242501661408,1.8738445163163382,-0.4282427041472405,12.67778816060898,24.568084422234136,16.889369755532165,6.081412581272084,1.370718711737041,-6.830772378749034,-8.766164551592059,2.9180014075981786,7.667214538882179,1.071395885628919,0.014111366545244364,-2.3066215915633,-15.074349532571418,-20.447506004024547,-13.99016157503505,-11.19939715531027,-7.998272552597023,1.2410084636021774,-0.45831375430857624,-14.164966900907508,-17.55012343907602,-9.58676488609602,0.5004097004558612,23.515422464866084,57.50690656899282,85.23307576038863,116.89841496444785,164.05393343941935,205.88100778050676,230.14954446754018,244.28236913641098,240.64266526088807,216.65820030339083,193.30736976618886,171.05132468926257,130.86506565496896,83.82986842564391,50.56981370804105,23.915030716180013,0.04535796772715894,-14.189508265736112,-34.433179565582016,-70.66015201865767,-99.440552275388,-112.45532064274954,-127.84627207603057,-144.56133798068458,-154.85748192542653,-169.8584195403389,-186.04665835635285,-186.0764544515177,-180.25320897348382,-183.77184904370714,-186.11990221620906,-185.32921659804865,-192.31412650824586,-196.47817234550212,-187.96373834043757,-180.10744250215157,-174.3363355409669,-159.5361349604966,-145.78636509706715,-142.76734275577897,-138.079151268958,-132.01675773634025,-136.35972016661515,-137.65117992246402,-123.80180430080746,-110.80508392798397,-102.96287261994914,-89.25888784353545,-80.60783327007596,-84.86188231627865,-82.53165164159084,-71.18942390030037,-68.19292250941002,-65.03876787029427,-49.51102378057018,-35.02752050851977,-23.81322651737407,-5.269533762222711,7.766423714566275,4.628292089977781,2.042995601550664,4.97368171484594,2.870669759568247,5.604968471601923,20.39960367700974,30.309818365576724,32.778615994177656,39.696118292432,42.39824234481337,35.166838101221074,34.82968178113174,41.74107813499178,40.725815941909744,40.291677498437664,49.98726985293365,55.49581290006732,55.79775979921398,64.04657342682853,69.94715104052608,63.81597022550642,60.6530682758967,61.302605185855626,52.5516299418827,46.468161584515144,54.664112705019086,61.314234103906294,61.7792030941572,65.82806243978929,63.98629533715139,51.33201687241558,46.13866834071893,50.14630102878105,48.27883588406873,47.09900331569554,55.50738407625549,60.41529377881728,60.498284027014904,68.20665470637108,73.80793626409007,67.92247064053234,65.80317022965824,68.62523255962547,62.04951724459565,56.01515518305065,61.03980467781074,62.77475199516529,61.2302378498851,69.87494317948014,76.10586120816274,68.45428865306133,62.21686218375216,59.96764249855853,51.080552454657386,47.330824279929885,55.11448964652827,54.768864568044165,45.00873985452068,41.983351011656616,39.435088570377914,32.53514046290313,36.4274426949696,46.1628686683585,43.383657365534276,37.111287699451196,37.22394155581164,31.60150332100443,23.791950525048918,28.019071708994346,31.543579070994028,23.404941957007726,19.05771638726827,20.85632012033751,16.41905731821662,13.909739516782533,19.041934724623886,16.29892112799647,8.339979532777596,12.123234878830338,18.097146479211908,14.727780064369059,13.734879458950601,14.304342740024325,5.70657906608564,1.9175843253887763,11.476837198209399,16.188074204725275,14.662575981783693,20.062240433155498,20.867103419381724,8.448097280253034,0.047126934585921765,-1.9610629111583677,-9.832836104202796,-14.31012065691279,-9.248073249824849,-10.611950489657547,-15.766170963158139,-7.617303136892057,2.528031141555945,-0.25444432526902805,-4.949851280223767,-8.843921138297473,-19.733245489947187,-23.605101308697453,-12.445452767196873,-6.377906001948704,-9.148778769099554,-5.214579488780599,-1.8792470288352563,-7.940139681754026,-8.749172067350667,-4.814603416642678,-11.579716648097564,-19.57880041246296,-18.53391483730875,-21.44870633346645,-26.49421653417048,-18.84124742443583,-9.396110016007986,-10.359756402610548,-10.826455325647965,-11.379491426466151,-22.49174831021029,-30.6507895219173,-24.232194237908125,-17.288593432111398,-13.152952059719432,-2.3549666632995487,4.188615873493075,-0.8194036383873198,-1.123707534764987,3.4656358514689702,-1.8090940715226278,-8.08246284329952,-6.266307718331083,-9.911390790486147,-17.43255203349004,-14.101080739487264,-10.603927156367273,-17.613870987459347,-21.582978775000885,-23.21795585137825,-35.56372410919392,-45.50747275817898,-42.2977800149426,-42.14354839934665,-45.29904793463378,-36.92822788466363,-27.573151243494145,-26.45170584920327,-19.199868833696325,-8.455391933518364,-8.931709516617918,-9.551765351600494,-3.5759446454388435,-9.46146079957282,-25.984982654522565,-34.24611093398556,-38.559683563482,-43.766083312196784,-37.31785760728483,-26.034852324128536,-26.898058456402463,-29.92178608081418,-25.914473447539805,-27.09724361940819,-31.30671261878492,-25.398185950246184,-19.00866841841016,-21.56030250360661,-21.393006218400814,-19.088045684352938,-24.650153770936647,-24.436534552366716,-10.73679468873275,-3.2127419167045423,-5.479994432000001,-5.6480771430879635,-12.357952135459195,-28.383453315746383,-34.66479316127298,-32.18618334721286,-35.17753870896495,-33.70217491836182,-21.64746703509248,-15.415473895958025,-14.749397833129233,-8.009546255482881,-6.296495896334092,-14.77186668413903,-14.944880262064174,-6.119534087406524,-2.5365426630957755,2.0102849794259217,10.25460118093184,6.688120742109649,-2.7131335141980504,-0.09705073139131715,3.9953939286750537,-0.3540237728955371,-0.38774743280554924,0.7056833918022573,-10.435717077341582,-20.867577467615767,-21.336149402938155,-26.22605528672505,-31.589776766815113,-23.094151796526194,-14.865782155462508,-16.699933932614805,-13.299702927437592,-6.973455102470311,-10.682860359798944,-11.75730337575721,-3.346423279041832,-1.32584882150856,-2.562041421364491,6.465479420526207,12.97828711974474,7.76570117550117,4.973289977802146,4.284932774193558,-3.9946089482903417,-6.422851329974231,4.572447829026279,11.256283833301133,11.250985234092306,16.73218382537374,18.313512515691976,10.307323987799657,9.31257677681142,13.444489539432062,8.961213768155477.712174272888715,15.900712757139003,15.609730742976602,9.145227273155987,11.846923079895149,13.064765925313862,6.585391061342833,8.124374650622931,13.473563475230726,9.05809292066245,8.178678140875595,17.481832532337098,19.473468404252205,15.29540725061549,18.4763094893447,18.81957017308219,10.264393132099066,8.429983505759356,11.263192856864771,6.3228587017607385,5.585142725726457,14.76238462955323,16.47765683234387,12.21126733898051,16.0851645705761,19.174193234563155,15.822745785791323,19.469568995271977,25.082498184801835,18.220530521146983,10.598694467474889,10.476112757683918,4.054913316713124,-4.30224346074056,0.3114814389020446,5.240256432980898,1.3288909585376758,3.404633643261709,8.39272312859793,3.0607502443702734,0.47425891340547094,7.353358553257695,6.6754342455745075,1.4314606490193786,6.7060809912368455,11.035636339831546,6.7218327820483115,8.270377681425247,11.926997729615863,5.375283966621077,1.2902668176772436,5.505231564772439,3.0743891593435086,-2.680879233589295,0.3104062352887622,1.1268029874300687,-5.000033333893668,-3.6793031020020037,0.4267301886598076,-5.472280661747465,-9.808428573074412,-6.9705212735249305,-10.625417964345086,-15.605567052306128,-8.99946520891475,-2.7124384320308828,-3.9354656847002527,-0.7224007748514367,1.4209870676180423,-8.427156859716494,-13.783788871413993,-4.974027817190345,2.814559984793807,8.620113313962458,17.83066541276607,14.525077068694463,-2.1129992521692875,-8.036271339133698,-3.4821554879025185,-3.262599623886895,-0.1277447663272584,6.63515873666224,2.809156141076084,-0.9375040546878065,10.425114411482824,20.88540600059194,20.876640867705085,22.694483303628484,22.796403318079086,13.574173760003632,10.532013042222493,17.66811029481365,17.743012104720403,16.237724341882736,28.545998734851207,44.03787002191274,58.0077546890967,84.90721439290094,118.79383358950984,147.56364056129507,182.73162152248352,221.04296728754508,236.650704560749,231.70876429322192,224.67731786488176,210.55558726025694,186.89448699173582,164.83148447332343,135.28848469956796,90.01605457575502,51.9898652097572,31.774632970016526,11.066198767171777,-11.360025794089346,-27.136572511520708,-50.03553042898321,-83.76293611080246,-110.10530477458786,-130.58265705380313,-155.4371232061627,-170.5829854736858,-171.50102361165642,-177.9873217221019,-188.18062844399714,-186.99447549537655,-186.4798126805709,-194.98775493432456,-196.65954451191425,-192.92091246196355,-195.70465885107703,-192.40623127940472,-178.4723517255728,-172.35135207401015,-169.51283110970448,-152.69628376019935,-133.76542425780966,-124.6750251443961,-115.62153257902943,-110.48203849902703,-118.03490782787246,-120.21869946946936,-108.39658597135298,-101.11844503613081,-98.02007314359324,-85.61460063245288,-73.04970954075912,-64.31056804559465,-47.53384756585471,-33.50136115973702,-38.20424841511304,-46.71455000294436,-46.197332064604666,-43.48066551068821,-31.886023844547225,-5.1913969892684255,14.824376909210192,17.083642642886538,18.074630562728284,19.682396384617217,14.381479983432907,16.46845018105646,30.359398470523317,37.192200491984295,39.2330551313959,48.355737307524706,51.14654930349977,44.01780519006063,45.21021933083617,50.91616057573604,47.729684228865516,47.15470629666159,54.33062395524138,54.470259379773026,51.01332039049799,54.82179000808398,53.879025185642426,45.892344123650325,49.42159144717999,59.61431136702895,60.34589847630125,61.90986792985094,69.96554683178216,70.7300072965833,68.65983133261523,73.46889841965249,71.15719592646485,59.11714246790649,56.96603998901518,62.65037100932527,61.78601190130098,63.0126392871443,69.46666654363437,65.43106165276234,56.926446609753825,58.861693965126236,59.2444423766687,52.97795198312251,55.69615653572808,62.97064483845525,62.67666181528044,65.01525252158133,70.83575645856077,63.753169832991375,50.73732958380536,48.18674772901464,47.99126840986537,46.366928636044904,54.767776866674836,63.992748672347886,60.169359312934326,55.93652012748785,56.21497881843144,47.118284438389935,37.33165117747776,41.65557613447456,44.86425004330741,38.823986748461046,37.771457522255545,35.88995747492893,23.234790944616556,17.757279094114967,24.09660967000451,23.27021155189071,20.396194836099895,28.73056564931736,33.00825322853199,26.172528899271096,24.043293080156996,23.15320091472793,14.12286250077652,12.81401679290638,22.0359540502198,20.919969215282926,11.894943224886127,8.470019085483802,1.9735673757156023,-6.449191155040158,0.09901423581783542,12.285824925861286,12.879725838147914,11.389515581568201,12.242391341343907,5.245391372320401,1.9188055538366493,14.499569194069437,24.160980205202875,20.72024846322987,17.610066025131367,11.94697497460582,-2.493614684670802,-7.728885406778747,-1.447213703776395,-5.125992190506082,-14.89994972600869,-16.05473263138237,-18.05393216304828,-21.75345957871998,-13.347711137065657,-4.955210782772875,-11.482174639483897,-16.359535059193522,-12.765231332198624,-17.274375131915058,-25.851225846257826,-25.12070689886119,-22.806919437640353,-19.69024956806388,-5.966823404924224,3.5382000577004433,-8.378264701421953,-25.792431057194236,-32.835017861197144,-37.087606326451905,-37.50337134575019,-27.997937721690747,-22.930985614178958,-26.95870611494519,-25.782547688582902,-26.623843923766646,-42.30694667618865,-55.12635813487933,-52.137191812999035,-45.60648172980917,-35.09539645035194,-15.293238049882776,-4.807577269664259,-10.11576003453835,-13.14451343239707,-16.041124443144916,-27.605854998918428,-30.489118337215796,-20.41215252195895,-17.557656620879467,-20.795505466635646,-19.73692512945863,-24.244897901310708,-33.01290317623191,-30.656752405660225,-26.77306943544667,-34.363883873123115,-38.62501467533826,-33.937010091759184,-34.63757399723879,-35.75681711767147,-27.4050878146602,-22.90872853934261,-25.32839344271197,-20.728492712614173,-16.137509311223234,-21.825527748868485,-24.39564348560607,-21.52272052885952,-27.316152905658114,-34.09535290405287,-29.979404305431984,-26.659084891492842,-27.372217658772847,-22.372448683243476,-22.730288044515742,-35.40081528022685,-39.42931505488873,-30.84247615141065,-26.96305493744143,-23.508546873502,-14.387786597253374,-15.68600666283742,-26.088746174240647,-25.732473298616092,-20.474419631133586,-21.73527054207215,-16.594647535683503,-5.153083147785292,-5.12540785528624,-8.494234373130896,-1.1050032159236145,4.320219227268864,2.697397984884006,5.547065372611716,5.0227055893471615,-6.082379551630892,-9.127338987852657,-0.39639941791658595,1.7712260000297284,-0.6823917832227624,-0.12077734105254057,-8.415556324786284,-21.648668484525757,-19.783685717737963,-11.302073054934137,-11.53002222421939,-9.417783795883144,-4.157889356503789,-11.345082065910972,-21.186008992826785,-19.122398109102583,-17.518011645506,-18.675719332967677,-8.853264892070332,0.2863750409647037,-5.728408912796004,-11.907882465084263,-12.660664612388224,-19.74329342020244,-22.8169967720762,-11.809223308313147,-4.287487419130903,-3.88188059878119,3.976431270109683,10.00058675452727,3.901576963923441,2.8278061398480467,9.911421015991317,7.716759999163159,2.32289002651543,5.5902761215010655,4.889978948088542,-0.0017298385908675051,8.693675896333021,23.070044332692834,27.03423347009039,28.814274220376245,30.687118109953687,22.110716984409855,13.691310276023145,17.713179785536834,19.71781912264961,13.16445428950978,10.989958280842641,10.808863264375733,7.106588166560205,12.99023015860211,26.271475851543464,27.677956635311148,22.5505954664788,22.867238652244467,18.297349330272333,8.78431508069794,9.15959248112124,12.774238700385652,9.79890522077855412.449433303576019,20.038466805402347,15.055994016427626,4.35227856312021,1.973604964761641,-0.2314539653272002,-1.8092672207301927,8.48381189331531,17.79497223484288,13.30912010995862,10.19071083032394,13.51770561403875,9.861532758723072,6.179567588454642,12.522473044138415,15.504238572784065,13.776275944318286,20.552084332317595,25.05082451306238,15.565285061014542,7.829927201230793,7.587708174992821,2.2866488619123193,-1.4428780247922242,5.625839385101102,9.079180562530606,6.494340512725871,11.071375120887195,12.895993353240645,2.8266819661018303,-1.49023257757542,3.141747750021538,0.677414986789904,-3.6246098640439013,-1.5180436120286975,-5.4869275540847156,-12.102645976040987,-4.4507703841862565,5.145876240337597,1.2474988384162922,-3.3027829706042233,-4.93352891107599,-13.71331970881867,-17.461475786715003,-7.072488465319312,-0.4710838687411879,-1.1835322976597202,4.194953834766061,6.758320742797558,-0.8940476588125272,-0.5723945204280985,8.693027901754935,9.136830712471813,6.861898250880287,9.228035330205618,2.0198981274963477,-9.871353503150322,-6.416415483355383,1.63991729881114,-0.9466981006143294,-0.5318023576890598,5.277476062267022,2.6196933744272926,2.665160000771065,15.530523211578696,23.01915137520706,22.554029721701745,29.298081155021475,34.08019302511023,27.333755676607133,24.39863477954787,28.119830686900627,27.580090798130694,33.41964561888462,55.40898310723067,78.4896028982836,99.61830792646748,131.53937037631195,164.67734285973205,187.2177057738871,209.02720422583093,224.49423493758513,215.67590602657012,195.4593294746756,180.7169477638715,160.2572238771705,131.42696188096556,105.14852834132135,72.81442569886804,31.006782814876438,-0.19348519999176172,-22.032863456478193,-55.05947963080192,-91.18329094244729,-114.06157243860673,-131.45734070711188,-143.1671979679047,-141.01208980207363,-145.15480730344132,-168.88749283787578,-188.13113415638352,-192.2498487622277,-192.80334904784988,-182.7799358097874,-161.5073095795408,-154.07415431644898,-160.77507900037995,-158.72300821292197,-152.19527740632935,-151.33896928346456,-144.74520735032243,-134.8151938057509,-134.6645558588113,-129.4974013915577,-107.62114579677223,-91.21146825895102,-88.4303660441025,-83.24391677287076,-80.16073864814223,-84.15933231359539,-76.59580431557347,-60.22413448548359,-56.383628168799355,-56.156894225356865,-47.63239253342912,-45.494187513316035,-47.62912488989542,-34.571089506538804,-16.48573515870614,-10.608813032871332,-8.328916282530487,-9.066186753118371,-20.96983379622002,-24.796491646394117,-6.5922502032801065,12.45590344573251,21.27035092204696,29.433399515460522,31.776100431730026,26.19056761660397,29.516920607487265,37.96110512153701,32.58275465990111,22.56274469630754,21.811657822894205,21.664094136395153,23.041421913357738,35.17311892430864,44.012200770504336,39.18942145448016,36.36055988593009,38.99294241317378,36.050111103996585,38.16167800813878,53.98949476591877,66.569144404408,72.2104500891218,79.71922842785835,77.87244359617772,64.86058969702654,60.87455726742939,63.165810812461494,54.52138390013939,44.50013716279861,43.41076424760659,40.34669438175099,39.32572322082117,50.56235380721331,55.8905521133738,45.12847859892159,38.21587250111267,38.393300457061486,30.515306589347286,22.799985443036988,25.537790004000566,25.62240712605549,24.251311635059402,36.622146292316124,49.50533745215952,47.44256194859757,45.00263868233658,46.5485871887697,39.7459585296427,34.97995857306267,41.658321167126445,41.956171985567465,33.07674248145199,30.483233874134104,27.94724393544021,20.71476814936927,25.056854900994892,35.58257818409523,31.049056457242436,20.092406313910594,17.399348981105295,16.96879413931487,22.20448448692556,38.34392492295637,45.51577355432083,36.157308751930984,31.956697531774054,38.45308670025027,44.34608952420823,51.38621551281071,55.42617408505249,41.95634258383042,22.07680173036771,17.007041128598377,19.20737556962826,19.849494547266648,27.437004082629905,33.125402074980656,25.182380065406505,20.71492745237986,26.840674763827124,25.202476625279527,16.359277244400527,14.84652437749182,14.70165811149127,12.256409509959084,19.984716903724276,28.967573463102603,20.553976412158953,7.382172560486023,1.6603409977609704,-10.051061572137618,-26.155139072503577,-29.842228646279324,-26.358827659452466,-22.87284482914968,-9.560977638868867,5.010926006055576,1.6188959931837044,-6.307178925580482,-2.558865920451557,-0.8201499957278444,-2.4919036377221517,6.686630045438308,14.663678697288093,10.013848263589367,6.850344323624569,2.6604061555176646,-15.399242161615085,-28.03750998205784,-19.99812096026365,-12.135874903573232,-12.321522189331446,-8.050098995178951,-8.528316892770446,-18.02457966198915,-16.75554574921592,-10.928772846339733,-21.48429221094249,-34.551409096619054,-35.675837689165114,-36.77041749696668,-36.47744073183568,-26.86615088390709,-22.632932316594573,-26.162235092975664,-17.365102381036152,-1.1273344684767022,1.3383008828344112,-6.9789174776662755,-19.440471669094084,-39.572701938058465,-52.69329932970301,-43.534847732197065,-29.460835114569814,-25.6401518510214,-21.67315582997548,-19.049208970625955,-26.607123969930097,-29.322331416592867,-21.518306469240578,-20.87714985592209,-23.601878706075436,-17.01348356382864,-14.562752020988611,-20.641774286226852,-20.546781695556486,-21.111432633674845,-32.10202284954317,-35.780728157395664,-26.328187349560842,-23.33877734257795,-27.733407111652085,-28.90896783096825,-34.79999046940845,-42.37041223611783,-33.81675894084157,-20.621297689402923,-22.88230083233698,-28.421451181118016,-26.23252907930697,-27.302317685422633,-28.771990894595277,-21.333250416122794,-19.903051880642337,-29.226343828574826,-28.441342655002465,-20.540311584743886,-23.286677302515407,-26.452211366310586,-23.494313496437357,-28.98758694861521,-37.675656456645825,-35.01551470498692,-32.4269079795357,-36.596000655214866,-30.586743617837854,-16.47985886722255,-13.606347606752955,-16.40823446813751,-15.514958677725517,-20.79947732362082,-24.81149233391471,-11.250001737701961,1.7178022330082094,-3.010291492190446,-8.816998085382727,-8.977781664500341,-10.999522402758167,-5.007231186589353,8.870628891737134,8.705490441033163,-4.041855025451293,-10.260375986826086,-14.38123213942652,-21.662357407464686,-18.245630473162784,-7.5393202500749,-2.7288597396381413,5.8986052710649135,19.431010244904833,19.08405704891387,8.868071133524186,4.653682602616291,0.05471087279709419,-6.500914818918844,1.1096437255623708,17.460278385624957,24.358082725025923,29.091588692157565,35.43323602624226,27.298568696109044,13.445841418460205,13.403726994137868,15.169677481498987,10.251456228381555,11.640710053847414,13.489606815231618,5.452022727044306,3.496665578049331,11.223297776656992,10.839824301554668,8.84074878899856,18.53426399260364,24.838226664239563,20.37588038736932,18.556702862382885,13.976837899028316,-1.7663614562491121,-8.514316817646034,0.0049970914031529645,0.3669290445131965,-8.179025807172467,-10.075913545680342,-11.659015111993845,-12.795681913798614,0.8682096226228628,16.9592088919461,17.180694491123614,14.067261059799808,15.602711215539381,9.938077828898127,3.4953103040909475,8.275950313589846,10.79548758346802,6.362450250146821,9.239132030703225,9.734855129904878,-5.09473550564154,-13.7074846416445,-5.182753803116245,0.556233108417343,3.101212349638051,14.94612335433731,22.61887645900294,19.313037784341642,22.499614531957775,28.58731337350762,20.673959094544983,10.52382187641756,11.976336793353251,15.74196996872916,21.142998686349596,33.36608288266109,35.672687647098904,20.4203763624199337.131923797747463,0.6962763984993686,-7.0358531262137065,-7.490217475894273,-1.342674496484808,-4.508051143680995,-9.592597151544867,-2.1703892289629882,6.0842568890846005,7.342635472874481,13.171502448567926,19.158796360414627,12.738011079145203,5.53654943303196,5.458094245496203,1.1475497775171468,-2.21716479143627,5.9583191519844085,10.790036340019146,3.8861785620013887,-0.3042624365221618,-1.2002536651417646,-5.602436908933023,-1.0349173866062449,12.641801812534215,14.775721579902228,8.948510045733894,10.851068881507214,11.485053384329927,7.4461642068237595,12.771530659092297,19.333190381469084,11.91204139887624,2.3405991734870573,-1.987274008177637,-10.784327274247762,-14.595016844726278,-0.18123390413133578,16.102247575994287,20.520147231219553,20.733526621784172,13.344698784832827,-6.538157855120746,-19.632555611743513,-18.067304436257572,-16.98112252371679,-12.076446999972326,7.385835579069504,27.058536591597104,41.78971739629477,65.64973049699613,93.55698088696343,117.84701490048664,154.2347877263294,201.37292475031654,232.6200470807015,244.54151712599926,247.94400404814712,234.9792564824034,209.1538488510608,190.916960268575,172.7371396587512,138.15092387241208,100.48452149549217,66.68232973497116,23.59325479144728,-17.85977161658967,-39.88279169196833,-57.30971470578204,-80.45564047116044,-98.75278022202627,-119.47460788342916,-151.47386213399747,-176.366848421984,-186.21819294959565,-195.94943842029733,-202.69633515357174,-196.42238803573096,-190.8801032741091,-192.0003319966167,-186.98677810774853,-182.5745629092183,-188.81508585975607,-189.34867611078369,-178.68894353346548,-173.98651441040175,-173.03205735324227,-164.98384151579305,-161.8612458207628,-164.5397890758214,-152.33552027573262,-135.01112835027368,-135.56024938834807,-137.68374901052462,-126.78883861163372,-118.15547379917223,-109.40909334442901,-89.97741474646321,-76.9262099039574,-75.78947726788006,-65.77116236821522,-51.23993619782782,-52.242861169020856,-55.10249785028859,-43.2319776477893,-30.940315869533094,-23.912164453620456,-14.407653886692021,-12.266391433104818,-16.90634682873902,-6.479800656630704,11.78538692703222,13.691997052823115,8.852273100730434,10.301658696155622,9.927736691274685,15.670894335812928,36.68993412676849,53.92979948987576,61.71549621133358,74.50453350860249,80.99486902787042,67.94536667088923,55.791822585820285,56.38347303197806,58.02757374013651,62.778653039646784,73.53324965595392,74.49863901097288,68.02448697141068,75.27397730050428,88.95245508008466,88.2326944459434,79.3972221839864,71.30971552282764,59.518393461048085,55.88366846197621,69.02221712577101,75.45971986330085,65.8889126541521,60.20204290742777,60.39236760446878,60.80591914232736,72.82660576246418,89.74669174242972,88.30304445487678,75.45056087632366,70.02686734579353,65.28637636913842,58.53365773196241,62.06804200651743,65.31810766408654,54.85518056770785,49.020285744820306,55.238454445932476,55.22285206701048,53.07921710357036,59.66517706778451,60.1349380180718,54.980435873002776,62.13987868835709,70.16786072802532,64.93968583483891,61.61500432117086,62.228700777235304,50.98935502098428,38.588293719287186,39.27007040943083,38.596417965546095,33.40597837744703,39.06594522186298,44.42352461462602,33.653510076750074,25.07490103395245,28.475121333809465,27.351575056691114,24.291745295312055,28.016047349282182,24.268771327332935,13.87000195290629,16.578975109907425,24.492788143779904,20.11768293087269,13.881685354115668,14.066806415267385,12.258650386830759,14.988796739131118,27.149912747374238,27.13720748841368,10.116118014684774,-0.23015490747735412,-0.053149951778109106,0.5439799706428172,6.936723548051936,14.694258923405924,7.726311543833978,-2.995568840703154,-0.4843670476974431,1.953545400883026,-4.166247442205108,-4.69223931921719,-0.28973292597199074,1.3523187122469396,9.236335728783702,16.573255644549747,2.327016103972557,-21.848423779976482,-32.925181424242226,-34.41537365253101,-28.875409534388535,-12.22798263876938,-2.4606104175317722,-11.985929074922266,-21.245129084330173,-20.244594507268005,-19.61963801831375,-15.668083331274268,-6.30325815033118,-10.289349484589158,-27.652750830658064,-35.32766300254629,-32.391092248613546,-29.38335685531765,-18.269596489805377,-2.8575625977177213,-3.6509293740262785,-13.016107133475074,-13.779464499413141,-15.644571395500735,-20.2987932457279,-14.42952038118672,-9.22993211305714,-18.02107309096733,-26.35493001844589,-28.783310226539395,-36.15907256027779,-39.10230931503768,-28.802203090328604,-23.172738168855997,-27.756713448907988,-27.517350896380357,-24.892763121603913,-25.43046403736399,-15.504932662149681,1.2098089427175962,1.2570211404371214,-12.153779486809512,-22.75652703500144,-33.627642703097585,-41.01210739459152,-33.33602477048394,-26.137368269110127,-34.70736391880306,-43.240554252202344,-44.648814566097,-48.935790532699436,-46.73375950252565,-31.662314578635,-23.23012118915756,-24.721891752871898,-20.620650583929837,-17.629168301566946,-23.816136703139527,-24.68340975870074,-20.921705793624064,-27.610680947556354,-34.11000524040915,-27.392954398724328,-20.22865098496657,-18.065338398746775,-13.182963623567993,-13.111349108322845,-21.5545145888181,-23.262634956940083,-20.02114878691982,-27.805258348042532,-36.93970743662906,-33.35391983581417,-27.78594439205775,-24.932918767349115,-18.843963671831577,-21.540559240073094,-38.05274707169164,-45.53062263414177,-36.839296624310094,-28.03627872109707,-17.34774676973236,-0.4116888863635104,4.862106295039451,-5.371054011670518,-13.164070865801397,-17.62838942498331,-22.78897236467081,-15.546998114682602,0.25010143386223227,3.354513194633528,-1.9848266069827722,-1.3561933143879337,-1.746296147351947,-4.289695042815134,2.8345806353447918,8.179126064347294,-1.8659813004503842,-9.590163660025592,-7.169143123180179,-10.090613111364043,-12.445791251224136,-2.719131242374407,3.6988782009636982,3.1345019761922392,11.298473566248015,18.161506942653048,8.961680610073234,-0.6695715759211298,-2.0054431088816065,-5.529912968369432,-5.046002516466658,5.659226721562865,7.7971349661969,-2.014624783405795,-2.303613730604203,6.2081137253714775,11.105780579525224,17.159576199890374,16.07792886253075,-6.199896227063223,-27.282302759243738,-23.986413195405973,-9.633620207223865,4.925056596246648,22.96193853270411,32.007188952065405,24.523921910529417,19.152141761128497,19.9937556015281,11.778227980651932,3.711343491118178,8.652676834003474,11.950208538226462,10.48881599494581,16.82838110580881,18.928119928117006,5.124447254621317,-7.547314017857445,-11.490667855004839,-12.89127009471737,1.2830331102858459,41.496821560844865,90.94794479748174,128.20907768476417,143.93463969564027,136.9407078932631,110.66126071094574,81.1062688409037,73.96453580551136,88.76410182006217,96.95777720917926,90.99733652015706,83.13039963617476,68.81070941899645,47.24745084363401,38.20932585185106,43.13307562086251,46.46758460333107,53.598882414898384,66.41217270710511,62.28009463202494,40.40973324772106,29.215222066058217,42.00995745829191,68.22859060956773,89.8775440913422,94.09894589701528,78.7401280925701,52.88548912253327,37.73127410165363,42.883761936963076,47.58696878130922,38.85237479206842,32.04601319375185,29.271230209828467,15.402829985393254,-3.053968232856832,-13.75390397445468,-23.33573701111263,-27.853504497224446,-15.897235152298903,-4.6701024884494,-10.418255775730783,-19.01049814080554,-26.002180556367026,-41.412782270655654,-51.916007422316135,-46.969430488980436,-45.84070357657729,-54.55845441258637,-59.74600802513598,-66.9049425903857,-78.31342082461379,-74.09153031292881-59.612236766042784,-60.13485525172904,-73.38486563562246,-102.18782449317689,-166.89441343973152,-245.4571515021683,-291.8330046935014,-296.9035018146819,-271.0948427368548,-227.44331291099738,-200.92058677391162,-210.1793259942757,-218.45214097919688,-196.0137998654689,-163.49717885159694,-138.11516839671742,-117.30334569422402,-111.81797785563003,-122.92113508459099,-126.70091152780392,-118.88672940855362,-114.62619962700927,-108.68721702261612,-95.12187645244632,-88.76162331779503,-88.58492417541802,-76.65919123760952,-59.018199324253004,-49.59506689564826,-44.37589437150248,-45.95856222622929,-57.40969550917547,-56.564398746235696,-34.65221459610056,-16.728588264283182,-11.327293892431582,-6.233515860730438,-5.0100576264640955,-6.42160395885428,6.497156053413938,25.195460518872896,27.844449021432823,24.12984760638232,28.14999803222799,31.6818173704432,38.42549084638259,58.32707748427974,71.90162729800156,66.25670704349557,62.575753998960685,68.27116649614537,71.97547907227586,80.2090595464315,93.16066507117567,93.86194850859013,93.76797640679558,117.17832934062136,153.3426296411623,187.9569321980511,230.053329759985,273.5565042448668,300.6166098303571,315.5311382977966,318.3787836037392,294.48240249984076,259.6855753634709,244.23515116163676,238.3976886731885,222.0016883392317,200.7850607725946,172.67689006947342,131.0859509041961,96.09349162237079,76.79062403767352,52.27431579466507,20.185026240574686,-3.8712221959734907,-25.714681877147914,-52.21844392414289,-71.5633565907588,-86.45228934781713,-108.32003337578057,-122.81635452485925,-119.51965889063266,-116.0845984249276,-118.3920480919615,-116.4812455102043,-117.3286014292811,-125.13335540148539,-126.1377770618613,-124.34247532215691,-134.629389961568,-144.6787026032314,-140.1293849003008,-131.64400115460074,-123.410504467952,-110.091008192229,-103.72109136367692,-107.66154688204722,-102.14898847299062,-88.69758950030939,-84.59191226181046,-80.4463415140909,-67.01638668420973,-57.95666050118551,-51.45516680697628,-36.38131918115556,-28.00041460199123,-33.84392704163514,-31.059053952728906,-15.83739700496766,-6.682956153246774,-1.3413838593215908,4.625878458379303,-0.20192404791627538,-6.813282427178594,4.129846801158421,20.07627868372935,24.3619562650642,27.59766645290752,34.56658076194993,37.27919006556836,43.23056939072402,54.62752405334718,54.31150966727784,47.30612989312909,55.24987584040124,70.20697118237973,77.16987636351055,82.44582145891667,84.28138360305977,76.86419927048324,76.11696889940825,87.40532408438239,90.49513053809042,83.7338610870951,82.72629707156686,83.29403826643092,80.88971592866888,86.17438519137754,93.25335246977863,89.60975992839053,87.29328840788622,92.04311749732267,86.86272061280707,73.8565266325047,70.52498369368051,72.00251751565796,72.49258239916861,82.35443170947016,91.94800644338457,83.94077392993822,73.89895231612357,75.06554927498914,73.24203227936951,68.61585521686703,72.06479281591845,71.57543147268412,63.00709407051154,64.56363800933671,69.51806208288025,57.596933384065764,42.04037351282625,37.33152370617806,34.09154035362095,36.5049581434387,50.846183439002935,55.095496362314776,40.3950915862238,29.076187427226905,25.986987158542824,19.12629706205256,15.208103017265685,16.1690618957714,7.722652210568185,-0.7419651791306134,8.250435627730951,20.14073865360785,23.248558777053226,27.947598906845933,25.953577791486232,7.1290740238611585,-4.702534951046291,2.2937989980807725,7.981869856392686,10.38251277068166,17.03443514922755,13.184973599240909,-0.44533790549479946,-1.234382664296875,5.270717827015576,-2.01866001779677,-15.881900851895752,-23.692456680727418,-30.526916254426023,-30.365045962834557,-15.223980158997563,-6.327149762726854,-18.107636828355208,-33.21051055102417,-41.89511363890792,-47.202567961241286,-41.02301297902282,-28.71914367572632,-34.006843242819016,-50.626209561376484,-52.809142467761156,-44.17380709506905,-37.062813273016864,-29.06684619462493,-29.390722325389667,-44.22304263997894,-48.350116953724395,-32.177260507873406,-24.143140846468153,-32.0279156299438,-39.22983866100381,-47.35422056626873,-53.72003266917297,-42.78601421850142,-28.100249845853725,-29.703742208074924,-32.82650375478188,-26.613251485984602,-23.14937869380799,-18.471216048894288,-5.035674769106417,0.32961387312031115,-8.58686453511397,-16.93165462326086,-25.9660222912298,-40.78882488415491,-45.85273666550971,-38.97058177775027,-39.32411044961319,-44.61361055215884,-41.23706823850999,-39.43545755087674,-45.056344271663626,-44.096662305331414,-40.830020253050364,-47.11030844331465,-48.40606711796832,-39.01426531325245,-38.69455399291756,-45.59217473918609,-43.83384567649287,-43.17951947830247,-49.6976667966389,-49.42367890014496,-47.612308853906114,-55.78630265816103,-57.70696527690937,-45.913874172170395,-38.90437238901021,-37.617870890988684,-32.69698689003636,-34.82661712958948,-42.46337371089889,-36.86684856323306,-27.050843832497815,-30.490901190895805,-34.61794100240232,-30.87908152038181,-31.490736361618897,-31.77817056460171,-22.41728721371019,-19.159739484705298,-25.692828826271594,-21.332208435837693,-9.584523294285257,-10.388253082921414,-16.219501367542197,-17.17255995676467,-24.490779424072713,-33.468035112775055,-28.917975373319454,-22.11507930981345,-21.302995885098262,-12.031177533367801,1.0861874868041976,-0.4153118810380767,-8.280249057989725,-11.143953450435937,-15.65270324037531,-14.539270980665478,2.3103053250161434,15.729109278257082,11.749575359588182,2.2153442236471657,-10.413342610591826,-27.008907375924252,-30.110816780823942,-18.261760427845886,-13.384285873438293,-17.232169961382617,-17.084570324062927,-15.613274838380484,-11.390015436622992,4.405454663218077,15.902741677982252,5.291438561171365,-9.850696736646686,-12.02709389383651,-9.048842261807183,-1.1057406147348292,13.071456950468157,12.94923616130979,-3.9401292664511773,-12.428573325331229,-11.815187822990886,-15.060244561891425,-10.659847147565147,6.422741089242383,20.778879431247546,32.947407840210644,47.65624099664342,47.72309336333795,31.720523492671315,23.293418898344154,21.592954508032125,12.187911678585738,3.7386286314064625,-1.7549371487267877,-16.197017529191914,-27.644888163729494,-21.71420888987023,-12.809070700189679,-8.23508677931726,2.821864188466635,11.579700379296405,5.051794368841426,-0.8110526462499519,3.7126465033743283,3.151863896810368,-2.396375455315921,-2.9790750131482504,-9.337493703678394,-19.967050313559728,-11.581957090979309,10.373548242943922,22.866171531410775,29.14868356806077,31.265099497628324,16.115669017032964,-4.666188499891445,-10.456503792053272,-9.231437642791162,-8.14405944283902,0.06712257053760284,5.521663358888699,-0.36282341307394095,0.8234322119034381,14.248074026094885,20.112146149848726,17.03918873270441,16.236860034649233,14.308889934752756,15.777439457386008,31.216600856850505,42.79540256091694,34.85579742798202,27.909848406231177,32.226617663145085,31.13411664704722,25.614842899534437,24.084429897356358,15.227087754095322,2.251376645447747,3.4459243634301555,6.685463971382404,-4.659833098644231,-12.723757851971063,-7.355649926130473,-3.392287025365609,1.604926410302126,15.088910695337356,19.089275281715516,8.469756486103064,4.370606295930386,7.505365013022221,7.327842736592107,14.84539530432431,28.282243930532267,25.352969086791965,11.514429088855575,6.118849721587626,3.641989955496289,1.0323774292409271,7.369940144358823,10.675558207944455,-0.05827598854060678,-7.378575891448262,-5.6177855400057055,-9.989120210121838,-15.543716149805823,-10.657582431197687,-6.084639295345616,-4.5873441283746805,6.58466931163621218.5549981663713,17.928148018863652,17.42704103768924,21.2751804516593,15.621462877745067,10.210204180624117,21.54587419149928,35.72047023188025,40.845408917112884,43.700801487051365,37.50492178289174,18.290413241067785,8.773027513145468,13.997022384334066,12.2059429434561,5.652611519251063,7.2252228731639825,5.5295619556723725,-0.012843987833600856,7.260481954248874,16.203670902292217,10.665831561698454,5.501707063168074,4.14142509582307,-8.256978254820798,-17.2371245032102,-6.487698081328304,5.138590898858305,8.350178675001583,15.27812570430295,17.987775257542175,7.9183090233702,4.089656264738858,10.67157664613865,9.431584421636801,6.90142407132589,15.46777442802779,19.333912314495855,14.693183210107915,19.281222025999742,26.63256360660354,23.089511273908222,20.30940800056155,20.645955240538747,12.660554994149,9.793521411818089,23.864300556578407,32.246202242913846,23.191201901383412,14.429336021905147,9.675798024954313,4.535818185027146,10.587182599204208,21.232338201717088,15.345371494377044,7.984941811509286,24.020893421566395,53.82232781888998,86.94118705404617,126.92269120947843,160.58382518098378,178.14008293828138,194.85833456689804,211.57747997246614,211.97362385839122,203.5898848680106,197.79469690302076,180.46223431042065,148.617132454684,118.79497588238685,88.6662951552137,52.78040345756159,24.93877854483427,1.8486792641403094,-34.69449290750351,-72.78046223845936,-93.84946415971737,-108.78572834236695,-124.97994381349568,-136.38689880498663,-154.07822246903055,-183.41092017008734,-202.38282013461327,-205.8554232138847,-211.8815346650306,-217.93093069729503,-216.5237055828331,-220.3545008830488,-226.166020840561,-216.29830126652362,-201.1633232315217,-193.53415971791725,-181.46721619491032,-168.50145512368977,-170.97571207568166,-175.9374138401369,-168.57477641864392,-160.93216315280304,-154.90671772991436,-139.63346421836332,-127.34695425912497,-128.09223865351115,-123.34205268634885,-109.14575909503716,-102.20420874854207,-95.43411919073455,-77.10861470336097,-61.41596242115365,-52.99433208917313,-39.90524270869764,-30.44398680168159,-33.345342162733026,-30.650661155062288,-17.866418476477087,-13.015409239192511,-11.645518815225806,-1.739110861875516,5.027102026563258,8.05529394245226,20.927054890328954,32.497301995014524,33.00380167761758,38.78425600175198,50.04564713571146,49.08453934492752,42.55542103929406,44.12054582851903,45.21210104056007,44.71895959663001,54.896014330590454,64.88254689588436,61.55015524727676,60.64455763376936,66.50927645900825,62.79863545009859,57.02784310020843,63.010089632386595,69.53076844309962,74.52063106244772,88.66659895083475,98.00212395388218,89.83696660781801,82.21452146138773,82.42362183151377,77.90157529222073,75.91927778149397,84.25961018391935,84.66514241879995,74.67342226858858,74.44681038108877,79.61299623701395,76.56378982284181,75.13690742201001,75.27285489016327,63.76150935518396,54.379185086685325,60.61116530819886,64.40563036401227,59.349544274776974,59.61649019916193,60.986636609128716,57.47606931102144,61.4748476762108,68.09338362148956,58.96966468990949,45.79136221063092,46.183654078624954,49.49292571483403,52.10329324123994,63.314535708674725,68.79864643187496,56.40323864880675,44.60125572211189,41.644068785940775,36.046797034165714,34.40061994244992,44.059765274601155,46.59757882478836,37.63532533086174,36.35117879706677,40.34623262849229,39.38756750547595,44.021121605145055,49.079501379054165,35.28142685206619,17.260222269761574,15.407510365425813,17.268169047601063,17.155866265982674,24.527965646529857,27.284982604351566,18.726785969962933,19.93198066662445,30.238369878135874,27.591202085222257,18.917605314841765,17.456443142396317,12.509862319920831,4.629306391430295,6.274848520911632,6.025030911519098,-7.017941314410759,-17.25144162834795,-19.685720989903572,-25.802456480587924,-27.784170697756835,-18.031890824414305,-13.643386733557607,-19.097307527613324,-18.98894525852738,-16.841635886848948,-20.73247703680365,-18.696139285535143,-12.213653526419577,-16.124541474523795,-20.213211188996556,-13.966042314470366,-12.296706925136387,-17.0712912143917,-14.266063165609605,-13.180983141781049,-24.35787224098045,-32.53806848461527,-37.171617094952474,-51.767000955921944,-61.32392312357099,-53.90659543039446,-45.490079050027965,-35.45945823259549,-12.983484930904082,2.6483210819030027,-3.8402447826577313,-15.074205988197466,-22.667211791489738,-32.19108969009008,-32.40263366916147,-21.611256422559357,-21.650218954700012,-30.80774703263112,-27.474891013171344,-17.78690448890037,-15.582843302305829,-13.404120156728835,-12.850956994401319,-22.713203699059367,-27.525907904429317,-18.91890405360634,-17.951236631109218,-27.798794982477038,-28.498354837292247,-21.499295644300357,-15.241886750099262,-2.8911397082390407,4.3955940502310655,-12.324234492113481,-35.46069150654242,-42.50599656936555,-39.68460070623129,-29.491574013865254,-11.146972744552796,-5.730799309020693,-20.686020097712255,-31.396668858250678,-28.433150983218408,-22.514585816410182,-10.591897458731598,3.6124637058071527,-0.5072147499345485,-16.15084073140776,-20.357605554651386,-19.715034457159113,-23.649642246211155,-20.242694109622967,-13.423841269832549,-18.046442084279644,-22.323372192930442,-17.85566306430919,-20.719445534939876,-27.873982007974263,-22.67548160242893,-15.579092888716094,-16.89650322644934,-14.721480137137682,-12.366271890389022,-22.177463231054066,-28.847539274377247,-21.465331656720217,-16.910258962034792,-15.967154745391303,-6.181405063180465,-1.3549601979415749,-10.886389131474337,-17.793071107203726,-22.43262347057263,-36.030290262340735,-41.24926273600481,-27.85967871804599,-16.942788085628955,-12.881891132525729,-3.1282126385355338,2.545557461088046,-2.197652524960548,-1.7970972662364493,0.657706328560399,-9.045566346889931,-16.238047723014056,-8.529119679719614,-2.7564456694958324,-2.8849187175813045,2.947388370672017,5.949790589626194,0.09054180688873092,0.9993569736231991,6.500622200316538,0.9679449654669807,-3.7405629963218074,3.7080829272763007,6.455879177125436,3.3132546698807857,10.324825397184613,17.402023800503216,15.136335269756326,19.03396639312417,25.13072773874769,15.870538618407508,3.2446690555371136,-1.025257842206619,-8.353104429634048,-16.036548409399984,-11.619027157944338,-5.974300177850809,-8.841373119656705,-7.813909479759477,-1.8797128507211374,-2.50819128052527,-2.8713277460270787,0.9515992603255987,-5.178566761557538,-15.779402142080063,-13.38909207433688,-8.102914827862172,-10.754423851129083,-10.61599858168293,-10.17954547216106,-17.654730973819344,-17.349298921925666,-5.477957449624381,-3.8868699101989344,-11.526522390840496,-10.714305142247124,-6.965111083860821,-6.213660683763297,0.050726105852662684,1.9604963725391424,-13.401961141120479,-27.05381475022466,-25.918171017268172,-25.964881225605296,-27.03531487576594,-15.64376377203872,-3.544503378979806,0.8166506758835347,11.283096541221578,21.831482528942374,15.90315319939426,7.925022209972404,10.143151199147944,7.185126681062465,0.1987904312335207,6.263417784263906,16.185689531251995,17.675909137518474,20.47541816928084,22.339500603978806,13.467471694826648,9.108594419075578,18.62551976663245,24.948534759274292,24.630607430554775,28.316332411645305,28.97282505973452,23.373329677169508,25.52952099292913,29.743582433878334,20.611686897222587,11.743042086693292,14.31450106685286,14.30041140774512,13.216376114928407,21.53843446748879,23.60685265824653,12.608254429182226,8.872535449983694,12.736473950294576,9.782211848400467,9.403325039152737,16.871938977612245,15.83724698834055,9.512299113959184,14.13929066981316219.42745867204553,16.7340336065458,20.46078165757675,27.104514451800593,21.442141477971294,14.61159188361863,15.044814631376141,10.136861593570568,4.986668222249487,12.595505240429166,18.074079518252766,10.524849582356396,4.747676212928678,2.747183255475038,-2.8102398857842927,1.1514388171949133,15.995977881498964,18.982531521221276,11.29017966331526,11.308655970328884,13.570420626593403,12.824699724201716,19.14180162518065,21.95745475588801,7.609082058606246,-2.1301333823517554,8.383903494749777,20.62561321680574,26.95435461108775,31.122774500779308,19.651361776443096,-3.2037978078206555,-9.67188690818652,-3.171681037909453,-5.538506490151617,-11.577724291066286,-14.615943886126068,-21.784644104991052,-22.456664636883364,-6.118761988626385,7.81458832977299,6.768430966278126,4.449747614485668,4.578027718404899,1.61709400540052,5.303715231551224,15.96300896338051,16.8934795240308,15.374551054747062,31.612640660143633,58.626267298669276,87.16634306955363,125.8877784323682,168.78269197988988,201.02081706009824,228.371803258795,249.58068645376215,246.69186045239226,228.08825814115735,213.47493090461992,192.11470124379406,154.84436845285177,117.06844041024434,83.16059947741059,49.60497877403873,28.581216430856593,17.29380024930077,-7.354535006926128,-41.40734648974468,-65.33783303979705,-86.4509847868291,-112.35435836270929,-130.514092695736,-143.87504848195124,-163.3755910254452,-176.32800783203558,-178.57515727498827,-187.54779358657746,-198.00051353436146,-195.10249979804323,-193.0583285165152,-200.70150127345414,-203.1829133541154,-202.2040805348891,-206.68591636908872,-202.12388524406197,-184.98739593671922,-176.1345872343956,-174.91223150433473,-166.4051364938709,-159.3971261916153,-158.02129795401078,-146.8441587232145,-131.9789395198663,-129.43294948231792,-127.87072468562609,-119.68323728084059,-117.72958003670303,-116.348228136187,-101.76535816139935,-86.31326195475893,-77.63202067373955,-62.85484820604292,-47.03586393403468,-42.386410356359065,-35.12512667925192,-18.833682800726688,-9.16226186718766,-1.6766157304704024,15.477936519026011,25.82136861970595,21.580399260805073,20.9463142458007,22.153036509205435,15.045819943110402,16.52163488523159,29.48207547467152,31.7809610650845,29.539592175179678,39.66791851931063,48.252992147851685,49.131656629742764,57.363025125476405,65.73061954788675,62.87149639265762,64.97398739480975,75.79680497929398,76.51361161329997,69.47030151706034,67.25135855201609,63.960648818463525,60.44529688397763,67.6805117513868,73.87097439601658,64.05784096778642,53.52511787867984,55.39336630642391,59.69471661256454,65.93149064116409,77.17222761429615,78.14272633066358,69.30493081160115,71.69015359625428,79.13427658988712,72.88447428280415,63.4716613190626,61.08868331230151,57.49368833202044,58.67908620530855,69.86438708650594,71.37345029696507,59.02821547729,53.02098106856691,52.56437035449457,47.96443037614439,51.66320098205226,63.95214973239743,65.58602968855374,60.280493100256784,58.96072522812402,52.41827942660288,44.620078005836476,52.25880907930104,61.60322187559234,52.82256427163075,38.9927363595589,30.456575109295144,19.309635964356126,13.816550962597168,22.275624569106352,28.086462807095998,26.597389551358447,33.063400679785666,41.48955230255146,38.754615865954854,36.948938729512236,41.18107268691072,36.92430178755055,28.302182471012195,26.277621116856317,21.005909867876543,13.962573078438293,20.77579555267417,29.79284602174428,23.79084915648643,15.554867570931563,13.872342092061391,9.217599091736272,8.556660712722675,20.208809714275098,26.842202019357156,23.373965437946644,26.080542359943244,28.061779645053434,15.195355173221017,3.1908833690816913,2.3559861123962342,1.2107331725853072,3.310821216140476,12.683829027550756,10.213821068360275,-5.878534804368421,-13.419670322964237,-12.9263964105962,-16.327402908249976,-13.927324772591387,-4.865573418187235,-6.074928878140561,-11.037055433728316,-6.839297878269479,-7.066009039508813,-14.31906492543286,-11.948983734799196,-8.278826877756893,-16.728434908130442,-21.990701430256866,-18.838646187192772,-21.900309079050515,-23.420628561642104,-12.700359114615827,-7.508829868961833,-13.193521132582473,-13.337327008926389,-13.853802366705095,-24.38657255761092,-27.578457753304,-19.66541916997547,-19.719141108223873,-23.641711739518534,-18.92691923000193,-18.2064056343338,-23.406068288619718,-17.34991073879536,-9.028328606520727,-13.64874730660256,-17.368611020069142,-16.238481139059147,-23.839906094868038,-28.806059885866222,-18.03462644830498,-9.6902816429108,-11.840084004661811,-10.068421516508693,-9.720866174205337,-19.075876954892745,-19.322713180022774,-8.367495780563829,-10.32527380595018,-22.39652383618282,-27.861456240707753,-33.835785541549214,-39.85349189751248,-30.89217811915563,-20.230959368705783,-27.922908886342967,-39.810800939271395,-43.52945072237577,-48.25725225285986,-47.228997043987164,-30.011512052919993,-14.732277893553475,-12.596166355589395,-10.29853513708582,-10.775466558367434,-23.6084395898904,-31.939042050655285,-27.678616399081186,-26.000234290517497,-23.30540520447027,-10.608384546823576,-4.843341086379057,-12.600984131560857,-17.5582234530051,-20.15757357907582,-27.192918465559345,-26.42111525934935,-18.50973360434574,-20.183009886198462,-22.33796851295955,-9.6698643796711,3.196472281713705,4.726934532104249,3.265489293938755,-3.553099150832499,-17.93380692394453,-23.28874067639825,-18.200363280803455,-20.133133004741662,-24.768362186786582,-19.26840576224721,-14.015424156686311,-14.517978115898853,-9.162908517930514,-3.800872506842362,-8.971062383942808,-11.707613607178779,-9.058965273705608,-15.90359855968319,-22.447281634196067,-13.22289990042988,-5.095793769321153,-7.6052000150760195,-5.5174872646046005,-4.19022342101084,-14.897666460303263,-20.261480406439198,-15.066080922693054,-18.01497021770628,-24.011522739195097,-19.23773654820902,-16.405099509215717,-18.944099171236623,-11.464363928987975,-2.2364901052470634,-5.1418634658805615,-6.899698880100319,-2.704073610366205,-5.867359064138731,-9.62099032619759,-4.8810763979852965,-6.200509293489331,-14.767786328952155,-13.9269320140587,-9.69252840865973,-13.31230115117163,-11.9519970344449,-2.787985039160013,-1.486772717565532,-2.3740861479792894,4.741088881392488,5.141980346053854,-2.786882859133612,-1.176471118385686,3.5735145649073026,-1.3746284798989934,-4.688819923107016,-4.064746791626569,-11.443643895472423,-16.38040154470455,-7.540513396800892,-0.7739435846563565,-1.3177629164428013,4.429851933047917,10.027031959407335,6.26392779467641,9.014044040664833,21.325601978808148,25.844627184930445,26.021272752442833,28.15281151317524,18.66582845548332,3.4151016906523557,4.148949800851166,12.806869236214787,12.678886180665048,10.894029283548317,9.086314605237618,-0.830116937729493,-5.1179435940863245,6.457406174910703,15.964373100953916,17.25380840008357,21.44996887902059,19.19295778024678,1.2754548106450194,-12.809354476559761,-13.36685923808244,-11.57849424935149,-2.71805684138003,15.668601272160252,22.20625677511454,15.190017230225372,15.091448742229382,17.10403298301144,10.111917061729233,7.976398586071887,12.614836036197934,8.697295304615725,4.226936104300167,10.549766490806999,14.507887710590396,13.725880554676664,21.734007140985067,29.358565578211,22.88471022122263,15.09091356686363,12.30954502301223,4.24982714163502,-0.38495699540632944,8.048980087666324,13.344844510001371,11.156424396071127,15.184813373351304,17.652002219011457,10.201643821565536,9.232914561308439,15.590771727906235,12.568709746906329,7.4310841751338685,9.8064372230039566.653647363181003,0.3395314366201574,7.872529746106163,18.187948333630732,16.88764080360351,17.27330741590883,21.145407859531094,14.655230132686462,9.210035343506178,16.0846473944681,18.440923666670066,14.340610306542182,19.38982760567411,23.57089485779104,15.283355404460767,9.58592289624663,8.881335042099563,-0.3660666481488608,-7.77663891476151,-1.826545576296224,2.760713388691606,2.003472926947003,6.405256008288973,6.094541930567859,-5.310337927482106,-7.580090431037302,2.942769389099064,7.346362863524983,7.491891821300948,10.335402949054602,5.133628791710374,-1.7314211317647215,5.783130403678745,13.017474282707113,6.593340080228196,1.7222389600237933,1.037329904867318,-6.653860192955863,-10.482797642640229,-2.03219425615477,3.3007895674324015,4.191482907564051,12.668047928743025,19.10073997198563,19.105112708226127,31.681927793483766,54.28493778192126,69.09249866785763,87.34242197856354,123.10671030230166,165.0329770444914,206.19515838840522,243.63689860087533,255.09201266229147,234.83496482518512,212.97614258876047,201.08958454709867,182.87621619608416,158.0234217266694,128.90759405464277,85.35101261054716,41.10373866307337,18.615143004822656,3.1556839274149517,-24.233229874324337,-54.11768373852265,-83.41763512608696,-117.74618454346536,-142.2841588302807,-149.5364022466218,-159.33005325439493,-174.27983596501673,-178.0464008419954,-180.14498612508083,-193.8115816400731,-205.83743820533448,-212.04555968905655,-220.06327092308197,-217.53061065058262,-201.2011827691757,-194.95481465975746,-200.3943059966099,-196.9166113953092,-187.65996225869299,-179.81499413894517,-162.23344869581075,-141.4670800410534,-135.5431403839486,-133.28628196592683,-123.220074374846,-120.06179849226238,-122.484576182264,-112.2225114996902,-96.72096541789945,-88.01748282096955,-76.03992461819736,-63.21020703671256,-62.95895252209188,-61.23604249922641,-43.002374730017934,-20.81814650184437,-1.0773804907236326,19.995292619831726,28.119625576361383,16.815568272434465,7.2324412064271275,6.3301770174418035,3.4910002170578496,6.278952559629834,19.982558219115003,29.506203251852767,33.88635253721582,41.834939186236,40.45957108715742,24.404033470707674,15.966245355874054,22.55443578554385,30.793336301228965,41.74103704591472,56.1985888667517,58.88347606170332,53.82273910136155,58.64320708521012,62.51789535646556,51.6298947992947,39.330079783892955,31.39883997427465,21.82847550219492,23.41439336453891,41.03033323942957,51.0010824631479,46.1042645757352,41.35502043179094,36.628358893229745,34.08229903396752,50.06610567784691,73.9642674359086,79.7900394150693,74.22026786863375,73.23123887367893,71.70605236211563,71.88551004954694,82.17172580733403,85.35469714584893,70.09889502767147,58.6982427473405,58.75230334900165,54.83846677111305,54.328681086325375,67.10464144154801,77.2033848300437,81.62623945304875,91.58019119437955,93.46589341589565,77.50129652598197,65.53832852118653,64.95587731982887,60.81275673372207,58.73574132776355,64.5493445648085,60.50377377339422,49.19742676623757,50.23461712550383,53.059074537158686,45.5389252666116,42.32293858058668,42.81222738171542,33.33947411746586,26.163553208364455,29.32606256905055,25.215823426511772,14.687646548259625,14.819948700639051,18.713995925553178,18.566382003810183,25.266155753644902,31.62499299515415,21.162025473344755,8.028101154389853,7.719252973010001,10.14982124869877,14.861274597971224,28.522240619006155,33.085775901045075,18.76676726202924,6.3465042885208485,2.455210052125939,-3.8178923191457077,-4.684993356885341,3.7261529899588903,2.7572298814727816,-6.422496696141199,-5.727472366931195,-3.0918369447105607,-6.7778472804174,-2.841179412164464,3.0437036682428595,-6.503574238292847,-17.504911647885397,-15.849735336307084,-13.396263054521818,-10.44938154923732,-0.22734856445080798,1.0487200209500187,-12.252639251993529,-19.13859972002573,-17.148275030005262,-20.120312560219407,-22.88776067751006,-22.09019093592555,-28.99643045803688,-36.692859698449446,-30.003501460769954,-19.95137028145779,-17.62933332850333,-12.58846008872038,-8.35576982198106,-17.128493014840785,-23.274162512074675,-15.732860781611556,-12.097359127418605,-14.730887711775432,-11.093029959919315,-10.442580062744929,-17.018830435033454,-11.471307497395369,3.45362763933512,5.978798794166204,2.1890181532498367,2.359208752396319,-3.390223196040898,-7.894602688936803,1.7920733416353452,6.769480866521295,-4.767657556069834,-14.4747833744423,-19.010119566463885,-26.430336875976415,-24.09314926857653,-11.817436991864005,-12.873185685332658,-23.569257913586043,-24.649518956910736,-26.396224182440047,-36.840572580488285,-39.41874371104956,-35.74494454075462,-39.848307992867,-39.857185210533025,-30.203112024456658,-32.19427566819981,-43.09036467911906,-40.22766438196845,-31.95806545696804,-30.518030746147208,-26.090366937279285,-25.674735681996054,-40.79790779640237,-50.948480924163604,-44.03347584138261,-38.806265337754525,-38.55915066761253,-31.993402369183187,-28.53126907430648,-33.49955920336416,-31.398781417210394,-24.389716123246526,-27.269687656127907,-29.40905653949472,-20.78507731177607,-16.872386795234533,-19.63932175516024,-15.073181808027563,-10.481724851737418,-13.81274709626232,-12.814644794514653,-9.976719777917115,-18.902567527254853,-26.751308548199955,-19.533136187977306,-9.219053896091731,0.06273282327414753,11.88634046018247,8.86674322737338,-14.070490671981872,-31.93793231679655,-36.7159645247392,-38.140697974513465,-29.376721677845737,-12.41879723223466,-9.299996311587652,-15.722280974709621,-12.937081779073608,-11.592573221902706,-19.888966324256955,-22.28723328897366,-19.92027338189358,-24.19726987954718,-23.35063563457536,-13.418406120561338,-13.580175012658346,-19.46912339523686,-10.675292706716437,3.7627114663013796,11.292073050085094,19.20133601352109,20.943845277346416,7.558049919743711,-0.9769348684014039,5.112276783695085,7.6593080433772585,6.556077093682991,13.310246807903674,16.704449677553825,12.303583692781555,14.123196217645171,15.377495220943768,4.190675726667106,-3.451533061420045,-0.4876943769737896,-2.4041370956487365,-4.951795252102202,4.1367378958989125,11.351397311043343,9.328797780802812,12.309415238056674,15.98439564784985,6.9787529783927456,-0.30876541434812554,3.863665307462632,3.8418100327664177,1.9685633023335782,11.816309178098438,18.996741645239766,12.992237250657812,9.128819952348671,7.420701259520051,-2.6077457543255536,-6.973975918398563,1.3776390201613475,5.083874713432404,5.922062956828912,16.547671963420566,23.80903244061654,20.221208610835372,20.03404010543581,20.229117044602383,10.879369572934117,6.200099039371964,12.449919261044043,13.7970337984631,13.095631251631232,22.53067958934709,28.265554843483503,22.644038193301178,22.101637825770492,25.638631003170364,21.465608571639557,19.43895255767461,22.561557814865044,16.207394098008937,7.406270959745957,10.931119379721437,13.613421963316082,6.3627407115746335,2.320572821322364,0.33696431906219976,-7.034182932985942,-6.4917099000418474,2.941158676416815,0.7673579594516045,-9.005647431244991,-9.041695904944966,-8.240645148397281,-11.834054578626969,-5.21218291761299,4.5462874269813565,1.760536847924843,0.8806109611904728,9.766776902197105,9.060007010797383,-0.21002466652147378,-2.0168160354649,-5.264618046030853,-12.78589473137736,-6.145349397642757,7.40605314944967,7.298859804268043,3.7143601506054935,7.8745463503933175,10.477145037157717,16.286697657832253,32.889095976355605,40.10181489376469,28.64642163473618,19.33275454191696,17.411073743079495,14.736405588047315,19.18197662118017,26.129466607384916.292681240072113,1.955058955747527,5.3702698225562955,14.892854674826477,18.861073595480484,23.137103259981384,18.122036218887008,-2.3508209472957473,-16.94464186069029,-17.974791980351263,-21.20416315352168,-23.580058273440713,-13.324408171132994,-2.1009938190455077,0.31708182032080595,0.6719316085006289,-5.0397618758067235,-18.80593042943338,-19.093781162079143,-0.0723734359279895,15.280793646784591,19.852906600466994,21.14778738510377,14.289375789666366,3.044564848056247,1.4604648384460046,-0.36293269335590633,-14.436741201094643,-23.620800846035415,-18.50812789111374,-12.244146654239517,-4.8121610623669095,7.915705769958678,11.390414919370837,4.308293747795315,5.974838355236776,14.99568010750302,21.744039367710815,40.24368446566112,72.31695733480308,97.44455177936874,119.94567317450773,155.42955967503843,192.7244441399471,223.63706188504645,255.66354717687125,274.8509791495561,263.8549671132621,237.96273184330323,209.1427409524718,168.70057694478322,125.99076438426769,95.93599713410399,67.04501527775781,33.53678292481222,6.349129268045946,-23.763849620032477,-67.39994494824857,-104.50055833927993,-125.45964961769519,-146.45982633509806,-164.44254183361508,-170.05954098346297,-178.49815253041936,-190.56438203268735,-186.88026470998423,-177.47728411988433,-182.58779573465836,-191.34111065107822,-195.99428223607336,-206.54641377098056,-212.52825595436002,-200.6115590377794,-186.8941866858924,-180.30220358039315,-169.09577607046452,-157.44919804674564,-153.11726370458462,-144.6170298416717,-132.44315466913883,-131.61234709402652,-133.8814814885715,-123.37363415746026,-107.95797584593446,-93.71092970556134,-76.25834876358155,-68.40099570284062,-76.05635015275828,-74.78764346154733,-57.11252763328464,-42.9315238691742,-32.53957145272666,-18.11216173488097,-11.33904145863087,-11.986819203693445,-5.322739367200452,-0.015587547974714733,-7.374771044596977,-10.216965600896891,-1.137032839481125,2.8022255733299564,3.673316005198246,12.229778367087246,15.891050973119933,14.171011065163743,24.73897532508871,37.764092818141904,37.637613915008494,37.99889999580337,42.37819601872296,36.32649668278686,31.34312095949947,41.14130008055901,47.62158957322836,44.50439725597217,47.311899345672565,49.59789279833983,42.465280691168495,43.21531734609246,54.92756199598435,60.19157537751454,63.649587870037685,74.20602697015825,76.80896463883553,68.96709492471447,68.16495404084108,70.8947547933658,66.81875455615109,67.78218143648907,74.94016455397488,72.29324308241645,67.79006607597191,74.63821242553253,78.032596643697,72.64209030179745,74.34975549536702,77.11618030145907,68.26914231112222,61.95763927645683,62.931021119256386,56.786196924860775,52.062561943071785,60.602752376813314,64.72248903017307,57.606391357248015,55.27769610138737,53.60947437677406,43.76061381361319,40.57113222556271,45.00692619112814,39.86037136997996,32.59647741608788,35.215557332417184,34.750732252028314,30.384852207879145,37.538146573397135,45.68711560220126,40.48142235691728,37.45667433846489,42.45148112378611,39.34382083280753,32.976271180727345,33.161900992645116,25.46847132019768,11.118451889018225,11.784454704071075,19.71420345084545,15.48509593729619,9.334877933747906,9.164716333591047,5.930329805581554,9.103547142647205,25.502341059244902,31.72327725754788,20.77720936443059,13.548731076883307,11.702620994411845,8.462698056981118,15.255854330466395,27.500841592437883,24.22108163748232,13.611366340586727,12.227197268264336,9.955241316272508,3.924261208583064,6.110940367292619,6.627591934161391,-4.522032120539467,-9.886942537269238,-3.4548698412641894,-0.6174654477997381,0.07445287041015858,4.9936840894143,1.6987532207568377,-9.058369142073948,-10.176084933656233,-8.015822294670373,-14.813637187021373,-18.28886146266589,-15.85570429124745,-20.837030950068602,-22.625129966470915,-10.21308698778266,-2.0701936090368562,-5.2517331419433715,-9.032469910499941,-21.11052620386518,-43.68416965529572,-52.715130275455074,-43.260029383775326,-34.93076343986281,-28.314082462062203,-17.914800103561372,-16.649804712972237,-23.246758820186173,-20.52346045816654,-15.874126829494184,-21.642272280584244,-24.449720521788954,-20.2622668412075,-22.772681822664122,-25.16048181236328,-17.481812366419753,-14.642078096234826,-20.79449486154756,-21.38083675124929,-21.065629279099277,-28.049588362293836,-28.53607848305019,-21.690555342447674,-24.793304607484703,-31.74988596140428,-30.08170733079444,-31.166556884979073,-35.44978949533205,-27.37219540731779,-17.418948371054547,-21.48631245195959,-27.277008985728855,-29.459031820343306,-37.5695662831414,-37.90119746119667,-18.771070424500298,-2.9093281782753078,-2.3805970973439248,-3.243420852310808,-6.18016039966238,-15.194414250507746,-15.842030451559573,-10.253320732115522,-15.89222792128234,-21.628923678344993,-13.162810647423765,-7.156125082407181,-10.715411364633368,-12.527741539488543,-19.132013914012152,-32.798790162445904,-32.865450240648386,-20.524354204620046,-18.009736792481913,-20.682094699156487,-16.409202744744682,-16.66713760051669,-20.678567541292658,-12.17324871592632,-2.694224572618519,-7.541268876833026,-11.313377212362434,-8.274580633351412,-11.292533938033051,-11.459792470073015,-1.1965435153839747,1.0135271467913054,-4.467980595942043,0.6440094874591913,7.133354549740816,2.856120176033918,-0.7371876172332537,-3.800222697546251,-16.24821751914086,-24.725596492886112,-19.92760404405701,-18.757793652384105,-24.146571608732312,-21.033137369734586,-15.520219397106077,-18.953435901971734,-21.382023367298597,-21.639003249032136,-30.246984936779466,-34.47660574235727,-22.1896461855706,-11.039960137494324,-10.136403033358292,-7.573774705551399,-5.452443474274309,-7.73634241325566,0.4048784732467037,16.525673692524684,19.296833258139856,14.743279430164797,17.897310593230987,18.38182419144941,14.833771213831424,21.621910661287213,27.912156948493145,20.06003456156224,13.91508446101438,14.24579747235285,6.308880451223474,-1.1444295745003004,3.4925714977262983,4.325767883017531,-1.0802345444373396,3.5246625275949808,9.345105173453177,4.874931813166113,4.012353719107732,6.703589501197014,-1.3361892411111236,-7.458423519242532,0.17954008337990235,4.833443364324684,4.109888189094043,11.211553620123397,13.174054111703693,-0.27252180864245457,-8.06021301077983,-5.342794363246432,-9.592806883266482,-14.73627823189602,-10.804540936061734,-10.38914046983821,-12.047021569459188,-1.4728164081951722,8.535295170240417,3.3758141659876206,-2.6654699981675627,-3.1156553655491934,-8.565395645554613,-12.118761643786762,