173.22379942681405,160.21732626787048,158.53036783274098,152.5734130992341,137.71607165325634,132.00700757739483,130.0242744846327,119.75392993087956,116.91861695721293,124.51936163798649,122.04613068147296,113.4710884434731,111.29254137612136,101.88697043907369,84.25863708663059,79.2274803474368,81.5756846215783,76.52617679939021,76.29020635936146,83.03680339977501,78.01217768868649,67.12765656151205,63.456331113688435,52.88455425380032,34.604661733874785,30.13126898805898,35.04968002421575,35.67112865964084,42.34351333609105,52.858949657325994,47.46727279184985,34.801906068889394,31.419813748432055,25.420519087602237,14.081563271873254,14.169407788835894,17.52118681017058,9.534947207442436,4.216513608389662,6.006889988173063,-0.8575574767969814,-9.123935020116512,-6.459012454881139,-8.457795113467931,-20.041954059734827,-24.179777867481526,-25.556069811250964,-35.80472543241194,-41.43241099358557,-39.281231429737154,-45.22217374576392,-51.68217739539894,-46.23919126961594,-45.03254043520647,-53.3555320271333,-54.461182125711595,-54.05850267274687,-63.19670796188305,-65.79315839002344,-58.41184859265151,-59.7295202021234,-65.21396216035347,-63.82438417894147,-69.64459560373336,-83.24329282733625,-84.31105830728328,-78.93355042989621,-82.76073245509065,-85.33769187726982,-84.45492929840165,-93.92225215771937,-102.37733776485808,-95.93351065125793,-92.80698830084216,-100.93973265028811,-103.14427775335966,-101.91437487997734,-106.42060757081342,-102.02847450353673,-88.91425800308988,-88.85967479267188,-96.00152111913754,-94.3428932605546,-95.97633325191902,-104.71260367460138,-104.58169369845824,-102.3458285157314,-109.61202777822501,-111.64015132900175,-105.55298455494106,-107.89755425688195,-111.70330721687273,-104.50243160158752,-100.50338272807139,-104.60157781560405,-102.69440320221354,-101.01449688921876,-107.96127999206375,-106.27744825539628,-93.18122342129013,-87.90517088241867,-86.93365472755444,-79.92051611795007,-80.32807611152424,-89.43917252065543,-90.44940049896398,-90.53069345644253,-99.75650679567883,-101.0014575813836,-91.4841354391657,-90.21384012827505,-92.6613293757647,-88.12391480186375,-90.0971386681435,-98.73876472141053,-95.7418066790238,-88.78897875957766,-91.03769784133321,-87.69267559306577,-75.46050596913689,-72.35349580519653,-73.00670195645476,-65.62271422645495,-64.53195197732764,-71.94215020732302,-69.35392752247657,-62.74417291039974,-65.17979214817069,-63.52896666723743,-56.1090305716673,-60.59595914478328,-68.69373195972246,-65.5389865581959,-64.48865891624628,-68.78875414219488,-62.99158593647004,-56.23883943483434,-60.994467139945904,-60.60122364802192,-51.24665449320176,-51.304030080551655,-55.693784317361164,-52.92188059503526,-56.16620213772966,-65.15583535506974,-60.38918706792007,-49.24893262406523,-46.49093383912637,-39.85395072108474,-28.077589979640763,-28.706874704015497,-34.0251379782101,-30.377425406626532,-31.05078025272678,-38.62402175486835,-36.54482579725253,-32.28228835538708,-38.428695842814776,-39.092184742087625,-29.20613464341629,-26.55711339088373,-27.467710556326914,-21.236422876589963,-21.489152258866838,-29.344978546098915,-26.147552879776775,-18.872587197937527,-22.206564299991964,-23.64847471764098,-19.217313615665223,-22.563262488821827,-24.536009684743167,-13.590363401812573,-7.353609290225972,-12.487071539729358,-12.945154742714028,-12.236543774922263,-18.461203848516984,-15.384631645233075,-1.6195887445010064,1.297345919190432,-3.0116545149234915,-0.18759563498779253,-1.4447586894743913,-9.172870553727254,-6.473735943441598,-0.6718549787094346,-5.227386227568478,-5.284083254480693,3.231876148940369,2.7881791909745752,-0.4351002307963343,7.413134936372369,13.411128701858424,13.694606251598195,23.130097071570532,32.90921890149806,29.50692147126125,27.674386504349776,34.94292410082279,37.65426035747386,29.690884555870447,14.826419584400565,-1.7070755099437656,-13.634826887727302,-11.246757736716601,11.673552743934522,36.57109914030012,39.51155211609469,31.47242474986075,30.734933758943253,29.33548905534171,26.54038066300562,34.17018598161448,39.96336659032771,32.324738440729966,29.778963302683994,37.56297090201054,38.46504183964065,38.74331137393611,49.98002132846061,55.19685927230289,48.0516226039718,44.357415510254356,40.173178089265896,28.368327999298586,25.722024173597493,32.84422728002635,29.74526961979293,22.04975987164346,22.752957184963055,20.452369209582585,14.600274085000159,20.539291319328576,28.393491913568948,24.769154902116327,25.167640366979736,41.37230148365544,69.99858998413545,106.76888933647089,134.31056170123003,135.90560812744806,116.32404388445968,88.43280179171538,70.3511496100042,73.64167787575956,79.62099830926826,71.60726230339363,64.15758404357135,62.91282772913446,55.47262780047008,50.10466633556373,55.494860015192714,54.277931909999424,44.682986263553275,44.717062233992394,45.90831982595543,35.07979640078717,28.902885042837067,32.417618768395435,27.322419862561276,18.048496852454317,16.938108659925167,11.762375945731032,1.7928268346374723,4.29712395560543,11.092209060689141,7.756008383432253,5.467274813812863,5.79489650888866,-4.558372792512678,-14.528366190419385,-11.799536316598076,-12.459033639162298,-20.06614806203035,-18.174938700921626,-13.349121397765659,-16.96437419343711,-16.58251168214108,-12.444034098183895,-19.89959960157297,-27.710310792832626,-22.05822299799146,-18.291725008052957,-20.672746978760376,-14.709946259474355,-10.115399424469008,-18.974048123504268,-24.03779439686066,-21.03145364991774,-26.123519424570656,-30.854740659094166,-23.912222875420753,-22.786766803569396,-31.32563720774171,-31.638885447730445,-29.62276714830156,-36.120917354404284,-35.02695979841098,-23.740296632068294,-22.077114374699004,-25.764457245958308,-22.614497510558238,-25.303774335853152,-33.82218105845208,-28.928260547464163,-19.02174287214563,-20.06098199120362,-18.96113494783993,-11.453888817052274,-12.075171897566575,-12.847626244986845,-3.539362179963568,-1.5650647743072321,-10.032067609879322,-9.065546060893709,-3.080266011138561,-5.886081862789453,-7.306777256223938,-6.850609333980575,-18.965696909067244,-31.145731973556188,-27.327017625789686,-22.301364759380306,-22.397675617112995,-15.233181561111856,-10.297475825019868,-18.946331168712575,-23.88960219130939,-19.33385031423039,-20.227667783400474,-20.268398562467077,-11.370487346487455,-11.998464600251946,-23.855483470009656,-25.154578769268216,-19.561682630382982,-19.28278760335823,-12.51813010345385,-0.9401901029081818,-3.465196088378053,-10.614976346965083,-7.7564124280518385,-9.111863593127078,-17.27879313827987,-15.679291080729765,-12.441526767490213,-19.342292999317134,-20.143804094726207,-11.25922914521377,-10.189669629657523,-11.709957771965026,-6.039472379986116,-9.09359343965138,-22.457617689487357,-25.536035320738144,-21.73255827624095,-22.401246926161114,-15.266602157257477,-1.507953503163141,-1.266043486090024,-7.3867137537012395,-4.650742974644096,-4.316661081485217,-7.663563825086787,0.24508448279253336,8.529688732688602,3.6897535639162298,1.5580968009219032,6.6021376151271705,4.0617404034917985,1.6185906137876107,8.465189746503597,7.320499055826602,-3.7391902806852335,-5.319419793485672,-2.0818432910235884,-4.937187654776899,-0.9503722924964682,9.187089272647135,7.412007945826919,2.576979623243136,8.2422101792301,10.335437393917026,6.288972010004251,11.61182866300775,17.519041504799784,11.90613313817234,10.120909137024253,15.717072335308671,13.072405661066261,9.403825834898573,14.587797106376344,12.224131972112183,0.9881260029112751,0.512815932705722,2.664375477289013,-11.58914258819934,-32.731233850556244,-53.48132432477719,-79.21264453013723,-91.32310692954952,-75.21854336706507,-56.060526313521436,-50.065993402692825,-44.41502028007695,-39.911842641249585,-41.11494402390821,-32.470349799971466,-14.913293411154338,-7.908735591265964,-5.418909398998814,3.7226346761513076,5.2889023945599165,-2.3100710633833694,-1.609503873142726,2.3730671562556402,0.31386411000511116,5.552814374308388,16.826448451382646,16.138673086987225,11.576655166129665,14.856686433684427,11.061038848579923,-0.823485810952473,-1.2314618678652798,5.206304657081224,7.965746821689342,20.19580882286805,39.167390446168994,42.862521175167345,37.751499429692274,39.32636214003273,38.29544838099895,35.538843421042586,46.32549660468508,58.149474769133555,54.178724843591155,48.12854789281855,46.70021661885856,39.03643700689679,34.85426613824515,44.004013499737354,47.56745639960507,38.83855353361233,33.337972279310165,27.234509732800944,14.241671606502559,11.95332271349372,21.697641700269347,24.206126416609134,24.437622508032934,32.344247171201935,33.58032895797244,27.892882294796024,33.02481748821789,40.89672277244248,39.04054535483644,41.55429183401099,49.47360072766277,45.77409879412866,39.60167641109542,43.47146078965384,41.26942463964713,30.10012974474249,27.7766417083786,27.717486912512427,18.63181966732252,16.05965310280487,22.76316707627129,21.661521574193443,19.76734042048274,28.167313814792454,30.603138871398407,23.448083553500418,23.98716951316832,26.971656486416794,22.181398627160597,24.082732337621295,34.66343821156523,37.01254896156304,36.82268352055119,43.74784539647484,42.76840660746967,33.54342298222309,36.57946839741725,47.778241564471855,56.684784592863,77.64821432672306,111.66089756823494,140.42498553391084,168.41830492005795,201.6973096113226,218.62891280585006,212.95317356662326,203.4819214687803,189.1144157326217,165.51828191734742,152.60088336942377,151.09813080405578,136.89134532578484,111.33251226326944,86.33591593956925,53.821461193882634,20.166700268967915,4.782352307765267,-5.682735188108048,-30.167146893590466,-54.784398206237725,-72.26367941531961,-94.33216858485707,-113.2365167704551,-121.79369881813773,-138.92263867888545,-165.5172716296619,-180.36832324635662,-189.12595127640625,-204.00519141575614,-210.63568298376197,-207.4098223769514,-211.1342355802622,-213.58356876861058,-204.03119725250502,-199.36850334832994,-202.40170477931898,-196.37638425797172,-189.27748872471847,-192.0722000251609,-188.10084750921854,-174.1416627870343,-167.39519445703755,-161.60541257259194,-146.53867923714458,-138.24620631013113,-139.45733292272274,-133.0818910195788,-125.9711866748312,-128.3438382557449,-122.89372282601246,-105.88065080627626,-95.14519100755653,-85.38370292219949,-66.44220005850215,-54.56078212019817,-52.91772208373596,-43.86683664343942,-33.62592778950575,-33.169004013790314,-26.389729251414106,-10.536973609043821,-4.283098315323745,-2.157847526093568,7.151581743988739,9.405989768380326,3.655452989187518,8.094466845692358,15.687758403310438,14.184308124024025,17.38538767749794,26.479043833475348,24.015720032285913,18.020492452061635,22.23613304364996,24.47220264622701,24.295893492778326,37.874691159606705,53.970758082128896,56.24887796764123,57.82887166780523,63.31145567921903,59.79264280082812,57.11467469364035,66.22739696324646,69.04591664930174,60.872084506900876,59.588288298888116,60.68696527482107,54.1996461709718,54.34422560300204,61.40641070535921,57.44789166919158,50.39852992795718,52.6851571870096,49.423681296631315,38.302973787434276,36.80349264488406,38.088014004028366,31.250149843676347,31.692886651720563,40.979061442210806,42.794882587297906,46.78412330714916,64.23201566839334,76.42079122867158,77.04549891465207,81.13421498781314,82.79870783968627,74.14633308440591,72.24617211898823,78.35861391194547,74.03713732075039,66.76247697613636,69.363719162263,67.69459332734873,58.94376067995374,58.839890371052704,59.33177522273435,48.76157323272773,42.61981535088212,43.848111790435325,36.176508453235165,28.316273332342117,32.67168140798094,33.16621792609082,26.08558662549864,28.10441844009986,32.13337258200599,26.44484859345966,25.18885466779688,29.507016198112886,22.739042419096137,14.93168292132335,20.670589111886564,25.287052152074928,23.590992692134684,28.840544464746102,32.336511006478815,24.106175173819537,21.544879222733012,27.680521869265952,24.26240659138201,17.411112347042863,19.96172852441393,19.256016005293787,12.937722383343205,15.519477931009186,17.035972889176893,5.067460115432399,-3.1438890269916975,-2.2699336154313228,-8.467814591259252,-15.00863868955435,-10.747521386031444,-11.162857422522366,-19.192004661214973,-18.530949781050502,-17.051544483925937,-25.650442489030663,-26.96468508780949,-17.414071101157987,-15.701072779337643,-16.968140700146584,-10.514317197612638,-10.477833204630763,-17.96370565114123,-16.24446101525177,-13.590493849150015,-21.967110275981003,-25.859216201755373,-21.205383041414855,-23.743729298944544,-27.616801109939598,-23.583133095292936,-26.698558595493317,-37.02976459882259,-35.79153447116193,-30.70089994680377,-34.58432595481338,-32.74467244615778,-22.910281503130832,-22.215138477670337,-23.31331773728274,-15.69356187337985,-15.767312348256864,-24.402295678113518,-22.19116669996681,-17.446627149363735,-24.75710357350028,-29.805878799106956,-28.36615582999491,-35.30777550903773,-42.22646930410904,-37.61773775921087,-37.05257710827094,-42.56134524852477,-36.67577478536667,-27.758121003636713,-29.533034325066893,-28.057215232868657,-20.234198477539906,-21.571068683668567,-24.66204523531128,-19.528113892045692,-21.127539110754977,-28.72735458090949,-23.515978600506465,-15.10104931542049,-19.22797690770964,-23.406666357573748,-23.75527435093023,-31.628238232275923,-35.31258844842292,-24.652006307201567,-19.63376646000338,-26.09391185346885,-26.266800152239313,-23.88265217465233,-28.178118932962576,-24.902016133460002,-14.813240026884529,-17.082989426803813,-23.41937060799671,-20.32297626376558,-21.78639816288176,-29.17788559660682,-25.25969038954998,-18.333621515202847,-21.103294351404955,-19.790554538336252,-13.378244787529118,-18.426601080307503,-25.312315230451695,-20.460992293782297,-18.4467393693918,-21.865124111559318,-14.478480949325697,-5.618057878737843,-9.368705251957904,-11.464834640429773,-8.115710281076362,-14.023701077056467,-19.915858215560494,-13.374447690408825,-10.266798333393693,-13.971669202761202,-7.261549668394496,2.5529197681131817,2.1789603835339797,4.781547026007351,12.394375255313108,9.301975584893713,4.3110731765962615,8.904370397836184,6.324478866990026,-6.8767541408087975,-12.518167910466254,-14.542767833796308,-21.136360483063484,-17.08847578222304,-3.5790638502115057,-1.2073190844130424,-3.8433019743656742,0.7018379307489457,-0.6877145369792972,-7.599923700141441,-1.8968714668030169,7.915832014729159,8.4780632435664,12.799504713419884,21.562091138186812,18.670036128414445,13.480196715808713,17.80429234636777,16.339288474680536,7.615190277514469,9.303482940407111,14.332592094329595,10.3215901134854,9.664767258573283,13.656177997950417,8.003102892556155,2.2894633432625318,7.5681446172705265,7.8303129857976135,0.4664654181610999,2.6267636405086634,7.484126464965879,2.7805317607672926,1.6868373933190266,6.6393452077429735,3.8068652739234228,2.778156484410295,13.635901003552151,18.306149780461613,12.937275959971593,15.405419114634364,20.738735585910597,18.107473357328676,20.293879190118496,27.578334558509415,23.762543336018425,18.12518848460661,23.453261715804928,24.191892208611144,15.837391492547974,13.979598415600211,12.304973194140711,1.2644902645928013,-3.11981130466115,0.9361796869006738,-4.116539703710983,-10.068944548481737,-3.231101119721818,2.310856021883853,2.001456573445995,9.099969206758255,14.273705139746596,6.623095256451849,3.7378294872360613,10.422054767259276,10.105128238006188,8.777210728849854,16.658300903862465,17.980811751823303,10.194364158554945,10.082749238288434,10.719585511333804,2.798010363597571,3.521537396660099,14.43542738845919,16.42304009630856,14.599578079842036,17.922960340058033,11.255410285233816,-4.106599148247268,-7.476533263189764,-4.474659775487167,-6.9360237743291036,-2.3009946508998156,8.73972157273178,8.661658100992554,6.206680877427688,14.064390621281348,17.44503609773437,13.015757455903536,16.343663418765125,20.38128787094718,14.679051700010938,14.187003017036657,20.267841771038523,16.044049624580826,10.63215267147478,17.17026726364468,20.92808441945217,18.79349383065389,24.62832739051623,27.9985545937126,18.000467299711072,11.629812140696721,12.49992316801701,6.06251414193533,1.0622316933859282,7.523476176539324,8.647360262035946,1.2950328294328277,1.9507632656018499,4.123914356638806,-2.0612397174157424,-1.3175743454087718,7.475146122494628,6.696405332214555,3.7376533030404837,10.163527409465772,11.194337659092728,4.633655503567472,6.678761631626304,9.610207514150602,2.800397357678712,2.4727979501482684,11.817080344465138,13.978917202171193,14.304935030509732,21.440521983974662,19.133501494105587,5.556686055130931,-0.9683536278673384,-5.067819913709465,-15.288095711279036,-15.645219617560045,-5.101482564225926,-3.025661551819193,-5.131585010943554,-1.3630271177085906,-4.28488927258127,-12.573796269556627,-8.825308925072946,-1.8412708922747454,-4.422766231298021,-2.6850825932880364,5.826793716989037,5.558150123685152,3.8759355160502476,10.848150573426228,10.536271177015278,0.8563840967008187,-0.5614753036540502,-0.17888984465160135,-8.376643263008233,-9.83017256709093,-3.9742548487010816,-9.053736959103356,-16.468623703364113,-12.967721712012647,-12.793247929937014,-17.994382594509446,-13.332651046971574,-9.180326503382044,-17.91558717343634,-22.61543567376044,-18.543853297386242,-20.764139650098,-20.673974220487896,-7.0774778290322224,2.212568351790417,1.7079221623546308,6.709288321834375,9.56997848445152,-0.06851320576881381,-4.389485203410081,1.2907476799154405,-0.10394644732859404,-3.133163828808049,2.1048792887421883,0.21249097276179985,-9.839571661533723,-9.525808764849742,-6.083863121013965,-12.168388968138238,-14.305219885986345,-10.562469969852602,-15.271551183537357,-18.39706724918694,-8.571023132142349,-2.3632382448415585,-4.479995663123159,-0.8532555687818157,0.9556118994934408,-7.704990491057935,-9.268080808715595,-1.032792921860136,-0.5050609063039748,-1.8306217454085452,4.524393522590316,3.486448614624851,-5.834136938703693,-5.881426546422438,-3.4215886988230357,-9.244694772864063,-8.489711974902853,0.7137163739468639,0.9730760691397189,-1.561920587824348,3.7864958813011818,2.551392949425243,-6.44996689732192,-5.717916215356085,-2.315664426575953,-7.70745534540711,-7.638497405287609,-0.5420150258036922,-3.2930699461383433,-8.329126387510165,-3.125976836429358,-0.8071173983284078,-2.9680814157184057,5.408673052641669,14.052595331104804,9.678418677196358,7.471613793356016,11.85376216914349,8.338567948882595,4.589177981726813,10.721410049514448,10.387635620621776,0.718909481965297,-1.1262059190822482,-1.2910737843735334,-9.753085838271254,-11.220847578812739,-4.368870336005323,-6.506649640980894,-10.280564353303744,-4.16453506070705,-2.6432288402758726,-8.232326380571761,-4.869434042260022,0.5687016100884894,-2.8638037944755856,-0.866066445662419,7.75839379899951,5.368074266415825,-0.4145403179111684,3.2811941341067534,2.5278965791811423,-5.1707657551392785,-3.9988193321793783,-1.7231462198417316,-8.98639493828938,-9.975245149704588,-2.7333577532145483,-5.0358286551176406,-10.316803691280638,-7.393761932378073,-10.259103747816393,-18.75433970362512,-14.218505123923714,-4.754409420586332,-4.727346592362219,-2.2166671030780565,4.266578767104917,0.2153947719550522,-3.815062915451107,5.175250215289799,10.786001681260352,7.043244482199134,8.174399820436193,7.272923132665127,-4.868891020612985,-10.570284811776649,-5.635316894423513,-6.2942163538405325,-6.09839413612159,3.920499925212573,6.876922538423558,0.658943697257437,2.5294877188779736,5.425219406765804,-1.295683990172324,-2.229852684377798,5.5100077349848275,6.489149138166743,7.605489467709248,17.24859278531441,17.362368203469494,4.503408707862116,-2.4639782931662686,-5.652543964135472,-12.289746409732404,-7.975713990296839,5.684713033627282,7.693486674407324,2.531314190543827,2.61206019977445,-1.5803382425627157,-7.720961278074691,0.0900435496438945,10.344520327453937,7.779526524027199,5.824330330916416,8.97536313923974,4.412839251164506,1.102892455961712,9.398006155955661,12.471669133220997,6.3572610987991665,6.992023645483601,6.895073620275421,-5.627359110150954,-14.524036775435466,-13.765376779453582,-17.158157442004118,-17.84419234558929,-6.122176488400304,1.001135891655557,-1.4446651435884719,2.440374812597673,6.961545238452829,1.8619525866776905,2.1426289493781923,10.548967251416672,10.557133867224977,8.883078282918852,16.63243568463059,19.5288090969365,15.940616036550887,21.6071307698913,27.23136744237195,20.49784367124431,16.8592456352534,20.422190996636147,16.421294233554192,11.729697035143523,15.493532633401419,11.631038477293451,-1.5928881622603646,-6.44657451733751,-9.445952302072433,-20.43420904631495,-22.624369593226433,-13.566634984575508,-11.086620404048109,-10.173382397523675,-3.186025403453733,-6.219677659351999,-17.524489299510325,-15.682445630523848,-7.581718116424037,-7.059800354614612,-1.6503701701168159,8.535739668870734,6.62769774199401,3.29667309047307,11.63466124317667,14.632425439276178,8.543802918696551,10.413216965990985,12.686436010387318,3.4995957625324237,-1.6392021133431782,-0.017355586682023416,-8.075928349192864,-16.04248828910134,-10.178234846864658,-7.025947773595818,-11.46328558654176,-7.337844689527102,-2.1789493918923317,-7.254553000463247,-6.314943052684919,3.573388292956485,4.4037340815913435,2.314260261316417,8.896955632945343,9.052130014119378,0.020255628506149037,-0.4787439073199511,1.4960219146752096,-5.243312615996399,-5.1476698513354116,4.755677611128926,6.05848460290275,3.28725804369216,7.223328401946125,3.6846647393893903,-8.814517826978872,-11.872069812510762,-11.743637540314387,-19.872174646540483,-20.552569324895554,-11.134326757753167,-10.16301599014956,-13.046636755465308,-9.190061165162367,-11.03122475018413,-18.0906146147952,-13.76107117609551,-7.197087914832067,-11.164491232362016,-10.875998006711574,-2.64579547731163,-1.3960224244416666,-0.6251414038802494,7.999946831773431,8.23270536568696,-0.9908686740983668,-1.1758879294349727,2.0927879563430234,-1.239680657208138,2.873837663682574,13.56052910916254,12.330263587983758,9.01442718910174,19.43677281690373,31.31465328719486,44.68449778557517,77.34233615526304,117.48502155189428,148.4265331042809,181.83576512256542,213.66008783344813,222.12127535539537,216.89546203949033,214.54673273280298,204.42081752900577,187.93707221111927,182.85087052875474,178.54174307554854,159.22315115035533,138.38694007888165,119.10822763453763,86.49345605552861,51.466470858677134,28.215757614160168,1.2020625697054204,-33.4051999032209,-58.825136552747786,-81.07701989023471,-109.91413183608529,-129.65960934933216,-139.2458781187149,-157.52163840501015,-178.21375787649245,-189.26324952280524,-203.96749916158976,-222.86025555296578,-227.66074161471445,-224.48048608493343,-224.68984233332722,-215.76787651714162,-199.29255384662656,-194.3048072256792,-193.31308487797685,-183.41322087861266,-177.85739338183566,-178.18385116897034,-168.44199154599835,-157.8760052131568,-159.2618466165546,-156.88193793182683,-147.13385897978094,-146.6099891676377,-147.8965432415228,-139.76345426067874,-137.13552145129316,-139.38564382871965,-126.54560334381802,-107.30639946562003,-97.65741762707971,-86.3236026947303,-71.38758787482436,-66.47666980460191,-60.535299166597994,-41.20859363018286,-25.614606563402006,-18.743485694493458,-5.147007971548781,7.654741093133198,8.462693865596812,12.470836567236681,22.241702912390643,21.902092938062157,20.378131139699196,30.177188071845823,35.675142154688,32.74924441452076,36.86474081535188,40.94281518690681,35.19607745111033,36.80113313969758,49.11282894994318,53.76886473509643,55.4890787411051,64.44323040640917,65.86157840481127,58.899269051266245,62.30232937898726,69.57923560914067,68.34900192236124,71.5042287123002,79.80490902371628,77.16321233694144,73.30829267017133,81.08962331780688,84.70893954050979,80.25352163966684,83.43511793458858,86.97953403098067,80.65632078829303,80.30508356089169,88.09184236060696,86.93800254463082,83.64775133553151,89.25193882084922,89.13824149239221,81.52771200944152,83.48876928092503,87.65821485808509,81.66410507797829,78.89952693420585,81.41004220406049,74.49526222438799,67.92135040924393,73.66565784315202,75.64898685697845,70.20830843200366,73.03909326594248,76.38702639685741,69.14095916225003,66.55130681039545,71.08827598638234,66.64850987433547,61.08493300035905,65.55822045237987,64.28547932236118,53.599521408226806,50.356474510162116,50.037534022367055,42.724688850304645,41.686385960844824,47.1808469990541,40.611030008470756,28.32035323649468,25.069126562051665,21.687815114655773,17.642023488626847,26.872607299558375,38.37952158914922,37.631717472461126,38.216573231371974,44.042409866483794,41.167376364664115,37.91092847154449,44.087149199776604,42.490644727207126,30.61566417552723,27.094295177791743,25.822109164493007,15.158670819817964,9.642403142104861,10.790043858355304,1.5188731240526612,-9.13668273863437,-7.738462251647663,-9.668390011529109,-19.070070446339194,-19.59611334884867,-17.950929131569644,-25.48682398186851,-27.17561806602132,-20.322894967454616,-21.758563241366176,-24.90657583060986,-18.713368550216202,-17.248150294410227,-21.66209835367588,-15.172531709740916,-6.1086519236293215,-7.291601662021181,-4.72860045477319,4.110573089134691,3.158959438005469,-0.18963740070448676,5.022858000141719,3.5224772360137293,-6.355800366544312,-6.776358646538258,-5.061102624408443,-12.984694468086726,-14.546862895939164,-6.165396733645533,-5.3614779750554185,-7.532691278970004,-3.617876595170831,-8.314906063530684,-21.185611884956185,-22.130262063365006,-16.793721851202037,-18.477274548083592,-15.900430870582992,-8.423159932922534,-12.056514009493696,-17.610884563062136,-11.729153848216384,-9.28356798561734,-14.523001708725168,-12.616405279408326,-11.129941898821368,-19.813375716235374,-21.883746418719916,-15.38874690365261,-18.87604435174817,-25.69752181431848,-23.59602718627675,-26.488354215218003,-36.59000690265815,-37.72803115710428,-37.276218161689044,-46.23688746322082,-48.77724541356744,-41.106481155613054,-39.93955167664077,-39.9671491036961,-30.94535314302573,-27.575779507693447,-31.983143975291764,-26.91536739223643,-19.320397385051987,-22.080414314241,-22.243770004961327,-17.318674336545854,-21.514736846957216,-24.690821893851368,-15.125484782486453,-11.247290118109893,-19.230001864442468,-21.841885436005565,-22.909384373417662,-31.27013782737639,-30.719517070291353,-20.201476113479806,-20.355102008698946,-25.734148413814662,-23.102223505972535,-25.206582695648976,-33.347943275503795,-30.587496175033884,-25.253576752071673,-30.53598114338154,-32.11546284231647,-26.7010109968949,-29.627439051384826,-32.87841717141995,-25.343193426695535,-22.4309982267409,-26.482598458591674,-20.491089750672515,-11.913997193734865,-13.748003517689927,-12.741331585105936,-6.444375198847311,-10.733697833936167,-17.70416298979359,-14.770658205760732,-15.729101683294132,-23.018398494373905,-20.642655705584353,-16.417227189337556,-22.45311711774803,-24.193772704229378,-17.965790111226266,-18.68381166946991,-19.770843944552055,-12.326947782529155,-11.934809414512774,-19.218932745143853,-15.946765119758851,-9.163635257026224,-10.761179486439104,-6.903451964237679,3.4958925650391337,3.7988583297136937,2.0410488204281894,8.7371200835321,7.438177875901608,-4.257500103595552,-8.449316776953477,-10.39037497430796,-19.31084208599085,-19.1369422093271,-8.355954627429522,-7.094164180078687,-11.558546808196606,-9.391718659706443,-11.117294610708456,-16.918093344413844,-11.441823444826147,-3.85210350730524,-6.633400247012877,-4.769258762656218,4.8645629395093035,5.156643213234014,2.495541854637767,8.933538924614858,11.30504407370653,8.539163957763801,16.108162334282824,23.06399793371924,15.856777319809332,10.608877778902656,11.607527326232427,3.14039568767738,-6.467278735008706,-4.235650628469377,-4.780303887294886,-11.99535683629797,-10.576444702643565,-7.63629921265374,-12.71665094008596,-9.276288577448728,4.026158678158012,7.57745786025265,6.010256230563794,10.964279427510261,10.832811588305066,5.64196239836914,11.763362486519291,20.455629092322155,18.54934058941132,19.53877460401184,25.301523835606954,19.087648715350177,8.619071623564304,8.027303894542634,6.112951774714546,0.7587805208889666,5.724895920343105,11.324354839954736,5.199200430060726,3.0789372828688846,9.44879278983338,7.822993153863917,3.4360358469909538,7.006680271356059,4.821471264943508,-3.4835907808512316,0.8499941522189873,10.118870266400146,10.588909125913677,15.704806388696142,26.370686945286288,24.79085210797401,19.292509150532034,22.781349151662837,20.34375709936472,9.36946485126165,7.576079871611501,8.693515659177688,1.0915103880763235,-0.2325886209029917,7.385460350412887,6.147564714208498,2.0209036782241423,6.299254762633975,4.052113148932547,-7.152418261513349,-9.136933854219798,-6.32437193360192,-8.834688293132013,-3.4626087649861796,10.006858527145262,14.053264694799811,15.10841615110079,23.782780482040064,25.4591839369068,18.55767119647223,20.662654479094506,25.543111977428115,22.22187978541728,24.241358351907085,31.051661877132847,24.56822689467258,13.553274205681383,12.05866721589539,7.705197884951403,-0.42717985326508234,3.88406184055429,11.038762908298184,6.568919934929949,4.117127977849015,7.595337932207522,2.703481598681563,-0.7236890509750467,10.752194252800905,19.672188437746165,18.298383712684014,21.681371084749482,23.917942939440948,15.194178439751859,12.39553610447074,18.03209259212185,13.236898008288442,4.655502605763756,5.99930991405055,4.279767945789272,-3.6517037824631573,-2.5546771973889775,-0.08032170907193714,-7.67225898465207,-10.15735234694782,-4.717472864338925,-7.67167793077292,-11.25496165503845,-4.024329006346184,-1.396933563273636,-6.431508111282297,-3.1048204303446587,2.0114121180719993,-1.248466622217844,1.170022667528499,9.767837353227847,7.4746846157769085,2.647760671191595,8.336007697210718,10.45456737191913,5.451695143871749,8.063639111835888,10.775559499070567,3.726119364275158,2.818675622752007,9.73461649248994,6.700312484412784,0.46429411908817153,2.955386482423819,0.8333060902635001,-7.44150058501339,-5.735145307665423,-1.434855428891233,-5.291465250498924,-2.5295744439794143,7.597459617789338,6.129014298248649,-0.7295707219753602,0.2575213174047406,-1.687167350514811,-5.66080706071348,4.244524448656723,16.180211970976412,14.03272999368368,11.32829405028177,12.73280488707807,5.36729494876402,-0.7359443250674673,5.444087421224066,5.662430394979778,-4.936177404501583,-8.532057926040071,-9.272007330422165,-16.254764904637884,-13.8331750389405,-0.8250724559866658,2.8502368195797487,1.95491356577466,8.60610764642278,9.524247364974485,2.150053283720625,2.861689425045774,5.586418408971245,-0.2824955173782704,0.03847096970640318,8.709946377125345,7.620230967689098,2.186017544487516,4.371469905058964,1.4343052608422544,-7.755977286395421,-6.576540750472716,-2.9933057233247116,-8.82332102434297,-8.871499187662085,-0.9562900261901368,-2.9134132244794344,-7.923953699134285,-3.0198584500077983,-1.6298317586092326,-6.840469010046552,-2.6249108221818838,4.125387101039922,1.0831162693279603,2.1092703680733726,9.927298609822826,6.969011645801499,-0.6161979698882369,1.5283355684181272,2.0901060171108843,-2.481297182997718,1.1097438562264825,3.3286993813322017,-7.923066342009786,-15.227224793915912,-11.594337524702809,-12.238376967381544,-12.946888680624932,-5.878236889201874,-7.364039085489437,-18.639431795016016,-20.318022369539424,-18.10574193475766,-23.624318664781438,-22.3670826672911,-11.896516164352573,-8.394026097726968,-5.415767563578274,5.291244648316801,6.817779243876355,-1.6021665425274105,-0.226958844338093,4.8419406022147,0.3655361292577446,-1.5171040375818965,-0.1616597741471475,-11.11802308516833,-22.25590356970282,-18.490000003947767,-16.212519670828538,-20.586805556067805,-15.285038828782938,-3.0457118545585447,11.523117549261695,36.274305638869954,56.27692225848801,54.016291607370235,43.46385080054809,36.59294918395798,33.160612713171815,40.5532997805214,51.34292092780645,46.68376511259527,36.97734266251253,37.46221746098521,34.041461707885205,21.781276381570642,14.935466613044358,7.386526314428597,-7.576587360852658,-11.318236159440913,-3.315798827167993,-5.071738209459633,-10.498229750998721,-6.188157659215825,-6.695372148165193,-14.753335610235567,-12.516177725329182,-6.7228806437403685,-10.430891859375796,-9.884261330152192,-1.6123477585683341,-1.5548572291091762,-3.2137097100373766,3.991083155173359,4.468516346393924,-4.590613865254587,-6.118124329178188,-6.3793133117440295,-16.300447208049174,-21.180891507725327,-18.16267379195235,-22.803280269965693,-27.78931534558835,-23.043269262497518,-24.578263253305508,-34.23400765379722,-33.48610214375378,-27.98945399312549,-29.05371607140402,-23.29788929343446,-10.735771677666117,-9.989747180976462,-13.528609134996346,-7.678007546813922,-6.20847955008979,-12.338571599007329,-9.357826535507913,-3.6448792229533105,-7.640563349680851,-7.878323629985275,-1.6216436344026115,-5.658393189553892,-13.479553819571379,-12.825554767317364,-17.67440529204662,-30.5962041415485,-34.23735897070484,-33.88437297697598,-39.30257779722646,-35.6988959994861,-22.986562752266273,-20.431323417219176,-21.672388315994038,-15.121693911898134,-14.368534493663292,-18.88434794884192,-10.69274926785389,0.3087076618842062,-1.3254182967015251,-3.1854413839020923,-2.208078098617243,-10.995677991410295,-18.11928332510578,-11.764116061922365,-10.199810620308114,-18.926171702089963,-20.327130005452588,-18.157755512985787,-22.085144396833257,-18.68369062949909,-8.89271552359562,-11.568956214166997,-18.087474306691142,-14.079814432634265,-13.588807495040498,-19.91446318891264,-16.580130192061475,-10.199620397917602,-12.145307307058696,-8.807563073752924,-0.08303890100810607,-4.083413400339684,-11.914540012384242,-8.076235714625607,-4.833307515454737,-6.39553465462202,-0.21542594332210907,4.328816820615041,-3.5570693463513736,-6.2246844905698655,2.1603758812040583,4.789272045582123,4.894342658008123,10.913792032305247,7.864284575185928,-4.937482047457408,-7.646396943907741,-4.47160611441482,-7.248710831670181,-4.791460215404239,3.119758837044227,0.5191238393752053,-4.324363960493449,1.7949301944420442,3.984389342280857,-6.201018178909937,-16.47264890533245,-29.450078384700095,-48.733414739414634,-53.38791151202012,-39.42569512775705,-30.253181354141372,-27.730912275558328,-21.388049943622207,-20.424109669496907,-23.949825068331904,-17.025578426650448,-10.098940203396008,-16.089582232155408,-18.398359525324544,-10.822775198198796,-8.521419306241306,-7.372567276061398,0.12995056643350766,-0.9344230215838145,-9.664562655676328,-6.156599066087713,3.731942708633352,7.3409016261152695,16.00010026111113,29.096600198446566,29.320500750235666,24.67657499439595,28.073082333413048,26.04018232540635,16.078073781107726,13.840678026186525,12.627391754299053,3.5151008898449243,3.3441115011520446,14.6170586581089,19.456168958266208,22.32201967970927,31.397675627569967,31.32216144848183,22.31401384446037,23.77201647744228,29.66780054421071,28.910420460641657,35.92696880440801,50.937476322714545,54.32645140988521,51.718953705206175,54.65787984760412,49.937054693772446,37.95836370792026,37.43309811375339,40.46992732896456,33.4351507654278,30.50555465590437,34.89994690784533,30.728264700521535,25.666637944185375,30.542557509815285,29.528183970781836,20.981153796226746,22.75964373436166,27.020597019822098,21.411058139558904,21.210760679336495,29.388624375899955,29.291858346554598,28.037017918263565,36.167072149118,36.927297574348614,27.137045198695112,25.292790823791066,26.40256971374636,19.202561865318266,17.713386563120675,24.333012622717447,22.656138111904127,19.59039901607168,26.44921910941809,28.11220081525414,20.87032624773306,20.633730040470585,21.42636584107459,13.578546782645269,11.991183550154854,17.528572627524998,12.751923344241487,6.153424149000603,10.994901744628187,12.668243420625325,7.25526719600969,9.656330216530122,12.174827945441962,5.14928081879014,6.486463166958115,19.254869034220995,23.890887535209778,24.63065204769705,32.046620203685286,32.30173224139203,24.850976224706116,27.03773975717929,30.543846239970573,22.08350123362431,14.89966369372134,12.099225446130847,0.688490122813417,-8.956157384227488,-4.9478137844307355,-3.967384533875645,-11.715617917916031,-12.724519916549749,-11.634387164250661,-17.460475221012135,-15.442135736450345,-4.0915497067198725,-0.7253527852326239,1.515225441290556,13.655417226298779,19.19761431579844,13.832886300075536,14.421113166410313,15.95129500928179,9.275086891565973,9.223288476291078,15.619886071353196,9.931072714577349,0.1788968511077389,-0.9438720544480454,-7.814554373601664,-21.539865985956826,-24.098272087737982,-23.032889585123645,-30.637276621586437,-32.534094923658984,-26.564175974802684,-34.80030719090874,-63.74720591617806,-99.07654311157953,-126.2713019224801,-135.56846093767967,-119.86016703085804,-85.18685435511279,-60.49421948069232,-63.2714140097472,-67.6024065023209,-50.687017960198816,-27.67609969408734,-4.759153128709346,31.350945443060358,72.35895124356888,108.13783870463129,149.15090418657763,184.55121578602348,188.92896259521171,175.43565906151807,168.020343925323,158.2635912009705,141.65682252090173,132.03178835393163,124.46274152513936,110.38096227791925,102.13037905605893,96.30924606879691,74.04859457427702,46.465006328127345,30.287036423382517,12.403512946131533,-12.24289802047716,-30.874835199169432,-50.32420583336522,-76.84114379813816,-92.15186832190744,-95.96133572364457,-109.42062737179482,-127.79878148251716,-137.98134361537237,-150.88279787383192,-167.36216420294176,-172.47766592775892,-175.4777394246904,-188.47544458314232,-195.63571947395695,-192.8942562567159,-197.10501682077302,-202.8887478334774,-199.1944443343165,-199.0293538054368,-202.70329801174043,-193.19871408169774,-179.7064938111793,-175.8957099176056,-167.126029721095,-149.7992484360398,-139.90692023211966,-131.27979335410043,-114.14213639288477,-103.4706678971161,-97.09548001740224,-67.99560987012319,-20.056588441212917,22.616602824287735,58.91212961705304,81.27409282229712,71.99552284277159,51.483937174638,48.25876290955937,51.173695343609864,50.313159417135935,57.19510108803405,65.49764215793262,65.60356427501631,71.85946530728329,84.02909395782005,82.69749733826532,75.55422400708495,78.40612452906826,80.0212350066144,77.09223790434355,82.91023932064695,87.97342509013002,81.02687223063161,78.55536182262315,83.83561962957474,80.12274661136266,74.83721174862062,79.90916325467413,80.69780191884098,74.22241794833677,75.65280718407946,76.4484694534789,65.57277899537047,59.97291664633847,64.1669981314457,61.765520180133436,58.06850557129021,62.502560941306726,60.37114395086094,51.18573180911278,52.47325932363984,55.245013995654276,46.16991356836343,40.807376035938226,43.80895811902187,40.5093039180126,38.86902794891532,47.99213394991079,49.25578891489792,40.10715060520177,40.343113487117186,44.72114791905525,41.740823285192675,44.69913518291746,52.636820416473526,46.43913113281014,35.19530869828997,34.12623483922416,30.43979545130124,22.80031911694376,27.799835987873863,35.5889761997039,32.013544667307855,30.96187103992771,33.58091881440927,22.798289071590112,9.458890091111451,9.95127165521779,11.16926370915748,8.693409838406389,14.69275135471469,17.85759164122654,6.74616936831978,-0.4102848777384407,1.7265438011310756,-2.619668114315541,-7.010973583500496,-1.1413620050278857,-0.1833098288522903,-7.180953846810121,-7.119737472279137,-7.225226308406311,-15.673334445362656,-14.318430678899777,-0.881803307802854,4.7278274152634285,5.362874235088049,9.37605574952398,2.6827213939883046,-12.285735665548437,-13.94638909237544,-8.97656204921753,-12.078226494753613,-12.024000073509765,-8.807642576829995,-18.88360028849214,-31.36801471697376,-30.93954225650594,-31.507655125167908,-36.676366250474636,-31.69477397709398,-25.407841980273385,-29.749801006078926,-29.706331858847477,-22.516599284698493,-24.333228708818,-27.647521374435257,-20.774214995859165,-17.917837620661924,-21.27324198856696,-15.511075128446866,-9.838471732991344,-16.46512500938958,-19.609108450043554,-15.328997576022243,-19.671044172428733,-25.93456759893364,-23.031603937531962,-25.298928474517062,-34.492455374190776,-33.9030217804208,-31.651608604720717,-40.08127481196119,-43.49933431675094,-38.20114959042827,-41.109751727359125,-45.36573011027844,-38.71220936969827,-35.09817313357702,-37.265377248461206,-30.59151203325353,-24.53889546146855,-30.92056617702914,-33.841931380957114,-29.17859750949267,-31.662221676331086,-34.23751159958111,-26.99325105063439,-24.698497664678378,-29.733980779299948,-27.102496242798647,-24.265500367627467,-30.12007300278654,-28.319790572266086,-17.733041339431466,-16.4574646526602,-18.320801863894893,-13.174515125322609,-16.026778135781782,-27.26458664697755,-27.40648223734526,-22.89878792320475,-26.12972118696655,-22.80798996265443,-12.37636207977166,-13.959853645475341,-19.202529635183613,-14.010090949914574,-12.556937650039895,-17.30576283369133,-12.367974273648034,-6.7959773397805705,-13.060488454018373,-16.069668740717447,-12.41688409168373,-17.070726041577743,-21.41193992522505,-13.375252302142009,-7.698122056978092,-8.208838935914017,-1.228119406293818,3.472157406478854,-5.916308262271869,-12.507275777892842,-10.792503072477881,-14.899901519899325,-17.3403606845105,-8.692604035252916,-5.619871638903254,-10.824098765626541,-7.033696763481914,-1.061765845239243,-4.756763930431229,-3.534245489159947,5.1385547669484115,3.892045326474845,-0.8896211010921307,2.4319371443604707,-0.39829746068217387,-10.175441839274749,-7.752711769586403,-0.3877578935430508,-2.1965937005570684,0.4347260792382692,10.771068960412718,12.90793064258829,14.111403786673304,24.414398868095116,26.4987536810087,17.519344463642316,15.858803502400233,15.496318132181514,5.584402787890233,1.5617643572012536,6.4120751457320635,4.290636516218073,2.0711481820471063,9.14589873415401,8.847080317240732,-1.4547210975840046,-2.870803439699442,0.6095310638815639,-2.1887968667283966,1.2099389593269407,11.821224799439584,12.642085940305812,10.603853556550735,17.682823571259338,19.490301240882754,12.82522552444193,14.18951492346678,18.165574105736937,14.740971707662386,17.64694499498596,27.04587023977077,24.713942936574384,17.319494338853197,17.665675546865078,13.671142476094255,4.486359875051093,6.273502248571423,10.145791701393332,2.9024150795562695,-0.4981983547138331,4.972850092465652,5.023716934990056,6.203493758984063,16.980119209164826,20.353083190459973,14.002265384078559,15.876020852036234,20.190071255945888,15.840573465773407,16.28788709221555,23.225581342345343,21.447914659409143,18.714629901479356,24.59657785835429,22.826776002532707,11.201051471372029,7.825501037772156,8.355389513438944,2.9096454989712726,4.194606959648613,11.748870646211818,7.900760604793058,0.3322039340297094,2.8433432304222332,3.5370014682313586,-0.12438771103379809,5.439155441115003,10.614292011774172,3.6972274002056618,0.41225626858429065,4.561107883751147,0.8851318480161363,-2.8445952694879977,4.709392681383531,8.674614205512679,6.051902552274237,11.918334888774071,18.113150010557153,13.902405888005466,15.4070658319241,25.16338645542664,24.772001501771562,19.503325646858226,20.696360225075487,14.884188661147773,1.232683333044427,-1.8478722284748619,-0.11589713216842645,-4.979639351725225,-2.5115858631996884,8.21329602195992,7.971504979089367,2.1796982759480024,3.8560077733157874,1.3112685493489322,-6.456924785593214,-2.822371551432882,4.530558563138378,2.7986868834494256,5.238340972094849,13.65662338189351,11.175030922318172,4.886814881156678,7.7727072576712555,7.468879275903188,1.5282362286074043,4.145689092364227,6.60625062958913,-1.894791749055563,-4.079754180313484,5.205627536397348,8.837395620408806,9.970921032820339,16.364352120336836,12.83218306489415,-0.1655978487740235,-2.356594375736851,0.8453012064245295,-2.4949087986389795,0.7761140317268351,11.865505381026832,13.366257756845227,11.149513323204447,16.044914125883274,14.390054296748499,5.256431282403875,5.738046113337318,8.296391794067873,1.3120824024484854,-0.12631599847251607,7.231923451214756,6.955061757066589,4.060666154321788,7.8823893509412635,4.776347354858655,-4.2634061149531775,0.0777983334574035,9.360271667570373,7.533922598548254,6.83624524074955,11.500960967167202,8.056106193063119,5.439971688700753,14.235357981789331,16.14056327801859,5.993838346049763,1.5646840027687188,-1.7376502928597268,-14.059418537644726,-19.35420041447714,-13.964042630562183,-14.933691932244871,-15.991696163124388,-6.167202967442012,-1.5189753419514167,-5.8402147534681665,-2.329710792215648,2.6607348859734135,-1.8787388708897557,-0.81729006201179,7.774991015334409,5.581071859230861,-0.804946832115742,1.8095801879797648,0.4715084765988429,-7.0947005753262875,-5.264191794210541,-2.273308768417353,-9.552786913496563,-11.20128794923978,-3.9545048550017077,-5.0377558714766835,-8.351579591154692,-1.9793838593812536,-0.2476662222990096,-7.282235270302177,-7.6135064232250915,-7.124551700807819,-14.980082649168624,-14.179735164803038,-2.601948719883608,-1.4087937657842582,-7.110033418476652,-5.756829002635981,-7.109786262875019,-12.285052912241207,-7.037483345060383,-1.8088381760937464,-9.832918159110882,-14.36550679266908,-9.004683988074683,-9.621029000707212,-12.127270692649962,-7.073550172088581,-8.103605798829753,-16.434105182290743,-15.198711808373375,-10.68889308753125,-13.98911445492461,-11.340029007779773,-0.9641775696932844,-0.6739207423992342,-5.993920278995897,-5.388240447744133,-8.503593561874776,-13.353086723044232,-4.611750608431439,5.844461609130024,2.079290914711719,-2.8997830470795547,-2.861421006138846,-8.071669653215055,-10.125918215874318,-1.708089599622479,-0.8574714437098903,-9.854745424432888,-9.744580579519706,-5.2318481309450116,-7.476088322316932,-3.7233655916331174,6.065210139718802,4.29890910037175,-0.9841029206990906,3.0183871375422564,1.9492988167331595,-6.550541542027706,-5.156335337485621,-1.0182274562505038,-6.707163115683481,-7.681876894033752,-1.0296827602049228,-3.8800338966262347,-9.225062719145408,-4.003739659130952,-1.7562460309143493,-5.678722906351736,-0.7478762700819734,4.205068499869941,-3.4368213869091884,-7.804991218539126,-3.481972185105761,-5.664528748458936,-8.191012872877227,-0.25019487137026886,3.5628664956341556,-0.1706111394531522,3.5112393372746826,6.506456793646687,-2.4310303075788813,-6.4047644780023765,-0.1634394592706796,0.03315662488658555,-1.509884770412325,3.2865115311041144,-0.45678409139509313,-12.112154150770818,-12.608043742339577,-8.74650610811155,-12.83842054493245,-11.390829875711493,-2.5590920441905727,-2.4082136734802755,-2.70057785324047,8.068694451286436,13.3689228394657,9.198072120912169,11.660068120729655,13.302537781865752,3.8714110815943945,0.10922970998796225,4.847481863339487,1.7022214085512328,-1.333891849088586,6.3709780643934,8.279688288171982,1.4958228891492547,2.3530235276880713,3.0033671815354706,-6.862717762084407,-10.169559407033013,-3.5409366794234405,-3.3721430585566097,-2.5299974453722758,8.353905638003516,10.659207689870177,0.4008153485100534,-2.403094916482993,-0.3939034198465392,-3.7148137057659483,1.2684575679441399,14.009417218824062,13.382279977096996,5.242517470734433,5.120238224876566,2.4613388629658726,-4.28284305181226,0.7082161747871338,7.954964692387578,2.7323934593894323,-0.48620737431180505,3.61156863978404,0.3030999894769275,-3.406651799012099,2.87841916832191,3.1792283439542635,-5.0615235050690295,-4.380058792651824,-1.159529274004442,-6.298367475238943,-4.8394969420325165,5.502501557734467,6.998753895253634,4.751606783587857,9.662420413378381,8.832658131800768,2.1411108756989155,7.362227656851346,16.146436094142594,13.006419568437625,8.814382706180204,6.320999225874692,-6.901380307171711,-18.476591385432265,-13.04981092003537,-5.60817934927742,-3.5366443302198203,4.257410225757857,9.176235893607112,2.926432873313672,4.426615786323602,19.806027727724206,30.555941877174696,26.74198618084599,12.09010714640442,-5.097417944191511,-16.98787601521012,-16.636015527860216,-1.608726496819263,9.656044021576472,-0.4013543925324736,-12.524964232271616,-7.644247420198798,-1.9799348633292961,-4.313705862848801,-3.160806999422121,-4.573045250196658,-13.659217679920314,-11.150792317499956,2.5525054188791962,3.4233340076384584,-4.367742815629597,-4.754119354396449,-7.96829281557763,-16.419077260391887,-13.453689204483172,-5.5111715840401665,-6.123213691402164,-3.90379103558993,2.714464916252323,-1.2707823921364412,-6.485377131870525,0.06218211614949398,2.788062846116348,-2.3681859634745885,1.8428129699376323,8.488704644203242,3.6756818315767505,0.5486554815445577,3.013987847219455,-2.977662326531594,-8.228209335595292,-0.30116384283011133,3.8834396449268005,-1.7651026152981042,-0.1580206582928667,4.260957772626571,-0.6384249274603881,-1.8646976807925073,4.179604918154768,2.3919236810169693,-0.8201767242567574,5.477765539063869,6.649387296999785,-0.7937455253693897,0.42147434695505126,5.7949319205639185,2.898000234309269,3.106556563993421,9.176062254257108,6.7431741866199095,3.457478439283096,10.593175994079086,12.135303888642985,3.3686557870593203,1.4746944536414137,2.8270111625838235,-1.7796446576207297,1.8740171831189822,13.709228456868093,12.951841460879606,3.8857931593487054,0.5827154389730712,-5.618230607480628,-13.233181987631479,-6.0059624741057815,4.320732168277233,0.6152388687289747,-3.1101392644015924,-0.1566539864213361,-3.708538840653646,-6.694062728966077,0.9784596507873693,3.509989289811889,-2.442755410599,0.06687817624835102,4.420506766468711,-2.103165336578246,-4.904799175130339,0.8689992749703088,-0.3208532124988235,-2.878233967487776,3.21592920681915,3.1674702571104723,-4.731143105103417,-2.913134363181404,1.839206549243978,-3.1767103191072974,-4.928884296289953,-0.367392170170469,-3.6778839946327206,-6.231165531934817,3.14883802957621,7.551560657405299,1.6134646825733605,1.8484777816344349,3.8625738743001,-2.6307727822885525,-4.019162532535382,1.5181790288733175,-2.423180599373166,-8.020606579910691,-2.197575321708346,0.14975640118177236,-6.887495380664337,-7.726582688454188,-5.5519954610547275,-9.1053333273409,-4.785293083001875,7.159242645169115,6.6449163681390155,0.1636576892832564,3.677788213514895,5.387705592787495,0.11673052914520277,2.0602169109816852,4.842821637388137,-2.339031257627942,-3.962916823132823,2.752048102648569,-1.9766901976552975,-12.54925792393277,-12.11057232683393,-10.434151958301314,-11.661602303593384,-2.979695402975951,5.773200528209196,1.2510144132438268,-0.5317408344181785,6.617986608045632,6.788590723377878,4.8700349146992,11.791498770644914,12.735289374315531,4.002173798459032,3.0763799807492767,4.4789864019805705,-3.8832389237870246,-7.053481456813634,-1.1015585226541496,-3.61134896919945,-8.40997028913933,-1.9264668227830533,1.6136620768368957,-3.1395880601931387,-0.706780658230237,2.453507908375741,-5.886613119251798,-10.201410058198164,-4.346122826159456,-4.224694573846177,-5.481008828950543,2.8864273341587334,6.355321876310164,0.5662549147295564,2.6590847662846127,7.468652540106376,-4.127429132720898,-30.72929276474456,-59.82438547362053,-81.58481109535315,-87.85249260629045,-73.32208004450364,-46.58052974761154,-32.076388770825666,-34.9247759111429,-29.313707738710168,-7.0437883969489565,16.128000764970135,44.57917461053316,85.78241652871621,121.92696909083283,148.31349840939885,176.75386136927006,193.63760768394872,186.66926825490955,177.59500133047288,176.73555760610367,169.72407467242277,162.09554282798445,163.47005928879068,156.90479919143627,138.3900042553202,124.86416321734725,109.80243937594796,82.07429422611973,58.11239591729317,43.005367980347536,20.73358747442952,-2.6763751166029115,-15.902883571151957,-34.45863091461573,-62.02476228765783,-79.53140754084437,-91.33193301581883,-110.93727268313194,-126.08438734125096,-133.4896952206321,-148.8802560063491,-165.5062777608016,-171.49086348825224,-180.8551553209086,-196.22648814235953,-199.92861681775344,-197.57216810367458,-202.74711804366652,-203.65434407417737,-197.3391367667716,-199.39046980826626,-201.9972022947565,-191.50881870894915,-181.95770364621234,-177.51094953869864,-162.24764627571116,-144.48393208074427,-139.17021347181642,-132.2128275932837,-118.16369090055187,-113.17971306621672,-111.45309384319356,-100.35251244587027,-93.8144627174653,-94.880773122875,-84.790922438656,-68.41092588614244,-59.64770916711801,-47.014807682376826,-28.214158576048966,-20.093367624779304,-16.638997967726155,-4.621715561670151,3.9433278081473153,5.390939175945245,14.12553013584444,23.338866261791768,22.030789693127584,26.03898614618573,40.50954964142046,48.40707374888221,52.74423412072171,62.46089371007875,62.970912708341515,53.41132307586781,54.5845360927518,63.726701905812476,68.3803787512047,78.54547371793153,93.52215874078897,94.73083189086387,89.47769240157733,93.72934343884415,95.09063281528447,88.37392814005871,90.07066904589414,95.58424399133165,92.80482722137214,95.6814598655908,107.25792914850403,108.37297302116737,103.95779214281109,108.26426526619677,107.61027675035092,96.53820777073929,92.94802861873617,94.20143666994636,88.98078969987154,92.71736261576977,114.01468273977787,136.92756599522056,159.69786368004685,185.76105201561566,193.1469399935773,174.05235533177535,153.93472948423778,141.67632878108114,129.7175859978201,126.6904865259402,130.5712492887397,122.42745098010734,109.26021216068736,106.29844277623215,100.42906452673505,86.31942595250447,81.22699380173692,82.34829545613607,77.47360799896646,76.79441810048787,80.57417566528285,71.5386804510989,58.29313092039522,56.98503236928119,54.431512639551585,44.76373368337164,43.52388365409854,45.55632513012251,38.718040947364656,35.74776308045823,39.09983124783051,31.621462037197603,19.8060309871148,18.07480316230833,14.24761289037448,3.944716902016583,2.109646113761953,1.754126233021371,-9.859430069186638,-18.011140801509388,-16.991777960738027,-22.194169814918972,-28.316633061213604,-23.881144787547818,-23.625872964540626,-32.811767001071786,-35.37785205095491,-36.30000699056888,-46.38942685691892,-49.20690612483433,-39.16518857449222,-34.39222579992215,-33.248832871447476,-26.881994711074327,-29.231707215857195,-41.46339102385561,-43.50739289280415,-39.11956256112094,-41.94997760889143,-40.40381821325305,-31.795335599610667,-34.17295450399219,-42.93972470872263,-45.25639071812117,-53.39907141996646,-68.46241702500788,-70.74061808362359,-65.47452184127414,-67.80583563699591,-67.09050966484891,-60.39446218224164,-62.84857943347977,-66.47040333987323,-58.293548314509664,-54.40884984258986,-61.506624804872665,-62.982039674564575,-61.91869669583858,-68.38038578824413,-68.31323220945853,-59.825245861736796,-61.794213585200694,-67.88365099809467,-62.691919218343344,-58.579954446035735,-60.98012242936546,-49.21905224927481,-13.638089596775437,32.78798280481013,72.43589107335455,91.035893695341,78.54102205157167,40.714637333069234,10.009603952040305,11.13949755593459,23.157740779589233,20.452673673648082,14.263492091181535,12.61970396556453,3.757550197317669,-5.027974585933034,-3.9245681515957136,-9.662925697004956,-23.896276951433762,-25.138730959580883,-19.312735562658084,-23.485106793663242,-25.053736593099618,-17.27581950695144,-16.81647707313855,-21.151997226524948,-18.39060858520802,-21.06363257386889,-33.67734321095797,-39.89895039619884,-43.77129475035059,-55.4614434583258,-58.89729224058958,-50.472080824545685,-51.21884697112389,-59.05421234318116,-59.65715741089571,-62.349725639523484,-69.02890729338111,-63.63346267258406,-54.45261945986896,-57.94429704602709,-61.1757158244547,-57.21382887889035,-60.80085413835436,-66.1652698782826,-60.569239172832695,-58.461974091310054,-64.78684878627394,-61.79443655836651,-54.45342649299941,-57.429692812224125,-58.2762421010715,-51.98482475160573,-54.679040772036004,-60.35236607843348,-55.37431730848332,-53.882877230513294,-61.39048174951064,-60.6813061238243,-55.72913093515174,-59.25598717445256,-58.07417746819084,-47.7396580622199,-45.69553485798153,-48.26142340122889,-42.89231242056413,-41.519886639798116,-46.76374147605213,-40.59958588232901,-28.55321201703366,-26.98034862815303,-25.866386108329877,-20.58650476772278,-25.77112873457699,-34.029454389794054,-30.4797133510706,-28.717093182032954,-35.19396178742066,-33.68375695437487,-28.079965705509757,-31.00788189541646,-29.566900959955305,-19.323150614250576,-17.739726987588444,-20.109531417581813,-11.859694859621008,-6.0081583126988996,-9.51606266138558,-6.983322772030008,-2.0797839389871866,-5.699599294457922,-2.8269572569927766,11.276023616452722,16.63684341733649,13.931176582396372,16.100350873651983,13.185058282878021,2.8657668408066117,3.1433882166417666,9.512594421672336,7.383852352775252,8.112706326743172,15.54113549283959,12.974935114250156,6.211094878047084,9.84848077638871,11.938259090497837,7.894079139404865,13.135692323466227,20.709680621054115,16.88648391056364,17.080896986636944,24.499154073931052,11.606085852844702,-23.43381351369326,-58.06467491274947,-89.62433466002481,-109.56950800322123,-96.20728319187286,-66.94533588126049,-54.906646954702325,-51.82793161267858,-43.388056573338886,-40.522414278093336,-40.80513811479601,-32.73621152293938,-27.808433334312326,-28.90032721759582,-17.731912018960784,-0.16596148256374388,5.2409421524232656,8.837641956431064,19.948753535525213,26.015871098412966,29.924527041870668,41.60371745878507,46.840351496635975,41.215686247635404,43.336768777563755,50.62412241488474,50.06655524306213,53.27600826028904,64.28846101777869,66.31777590922908,63.39352704268999,68.78514167169514,70.60091430412035,64.10378359691825,65.7128396382316,71.43854442852168,68.2019207518248,68.3254307115688,76.50776697327132,76.07017114575284,72.24017423013316,79.26953370629796,83.36172598839168,77.66780794834176,78.45308532039186,82.15261211451677,76.57292869112031,75.12224279403746,82.37797044238752,80.44318605327217,73.32934882016973,75.83533656012236,76.44235439269693,69.1121774031727,69.58765845631656,74.44634705780439,70.59910254975654,69.81420601131836,76.83567122356682,74.56946623004613,67.25064579446543,70.30683057236229,72.58763912265339,67.32762682162398,69.03155008504382,73.14855951281073,67.00946900035365,63.935732918282056,68.92933302515831,64.88725524957164,57.36184565564824,62.521159981553495,68.49771045213345,67.38215738818428,71.45078671848853,73.34561504810429,60.771687492420845,51.73037911954383,55.457083826779524,54.2393426609444,49.56490842225392,53.218170810671474,51.61463743788555,40.65954711341289,38.90316099755584,42.06681324913715,36.58756951640228,35.83120722095995,44.550066382271126,44.17916556553752,37.24233508719124,37.48271548663492,34.09547193115854,23.524088172770263,23.30751040011882,28.579214782477106,23.850744949545753,20.8425356347915,25.499985308658786,21.756363664544004,14.612763941649742,18.46910708925172,19.472692044274382,9.79274091533989,5.909733259033949,5.837111608441123,-2.0709052285038005,-3.919431935934057,5.40738804220829,5.681699812168393,-2.284383836669167,-3.424446647896066,-6.793438976859581,-16.40253076267389,-15.709212256888062,-9.812370112325368,-14.70953630200043,-19.080009076738854,-15.262773849921189,-17.186788905224184,-20.708015373899734,-13.564328052521931,-10.388942199394169,-19.164140851679317,-22.846784118907173,-21.816882774104197,-27.189610427021513,-26.66156383616414,-16.557975329963185,-16.89465704396653,-26.23758222672216,-28.80244856395037,-32.45220831307138,-40.63051261832906,-36.92556848379368,-27.025314646198037,-28.396993789228958,-30.84537990164427,-26.90596083680468,-30.230267741171243,-35.39677135969469,-28.78353086094196,-24.83100317372739,-31.663511155080563,-33.078616889031714,-31.83533605175154,-39.99435778464199,-42.90646350816551,-34.25369952314251,-32.2628251751577,-34.75109407992065,-29.03338644528271,-28.142588975558354,-37.341240253187905,-38.26086475664606,-33.48114844784901,-37.54522968465379,-38.67887912750188,-30.717147677241705,-30.89491471477671,-36.2098609079163,-32.116856036980636,-30.298358702606215,-37.01390821792781,-35.55312592016084,-28.830941054513964,-31.295952514454328,-32.166921451398835,-26.203465857289096,-29.815558877362882,-37.93062843833082,-31.31860179019099,-17.173397644519987,-10.509235112706016,-8.037598216776814,-8.620112935134754,-20.69823036329154,-33.84716728507997,-28.779013860304843,-17.77128532346999,-20.11474441713069,-23.286107620681484,-18.995230020283742,-21.060508512918922,-24.246764876048935,-16.512535095187907,-13.791985683084762,-22.93156663339841,-25.139481546703315,-19.1178880235964,-17.368651038597157,-21.593022493282525,-32.280540640685636,-46.32331854255984,-55.842473201768044,-56.66575899065495,-45.8956626909148,-33.88669779368916,-37.24020971471545,-44.43822884166311,-38.35139097734278,-33.30274322765018,-38.770155164868356,-40.2119296630293,-39.36105563408494,-44.525563634393336,-40.19940703066052,-25.032734260000645,-23.15533128699111,-31.816409846639903,-31.646364759551545,-30.697515365573206,-34.25934813701937,-26.538398606738276,-13.45217394304909,-13.006440043381694,-15.26009312474695,-12.077043304890468,-16.347848738411436,-22.214841270537608,-15.497962671923641,-10.586171625632192,-15.867635324211966,-14.176538392856179,-6.733390289073453,-7.148719651918454,-5.344918467648892,2.6438663985488455,-0.6208098675168765,-10.564361546459773,-9.716586470282241,-7.749934037850331,-12.124543974746423,-8.521317855016328,-0.9438644981386537,-3.0257529999286987,-1.8146475867278296,8.560005672302616,8.653729888090195,0.1169735256297395,0.04795384279453718,0.6464713282933928,-3.6059889721497695,1.750127016163714,10.692031527554757,6.606748753827033,1.6864264851138095,5.93492151103517,5.69542614250055,3.320000605208142,10.44458842937014,13.289418290517528,4.298507377436363,0.43443896683612154,1.8568462391670622,-2.3117184448695856,-0.38066298070635574,11.194111024331871,12.542016134427868,5.0449140014284515,4.426769247663783,2.7465556378737768,-2.732470260501144,4.674640331643012,17.695585315002393,17.584918250079014,14.96185506573763,18.697535796378812,15.871650402297202,11.26756420099003,18.730269791695328,24.340550638433374,18.571408624900787,17.33615463565401,19.66777759838343,12.458281536479731,8.143879913015468,15.092526435537584,17.079845839565564,15.250689382043221,23.143329147414615,28.35450308634175,21.972878069049337,19.951730772665385,21.627411904860878,14.951681170376354,13.361978376503627,23.56079005659004,26.425350426732226,22.13004847621317,24.502696198727303,23.28598574863866,13.436131122720994,12.164209024677511,16.924743774004135,12.991843266922046,11.14131342171015,22.299550966314087,35.88852912721676,42.3060485719193,40.31119515379739,30.327388761769946,13.02379411297293,-2.746864011472553,-0.45620033604640486,13.691444384766003,15.14142324223294,7.545126226353035,8.230332147078665,8.33669191209092,3.2704665436228053,8.966246313821639,18.887120445307715,15.93818943733217,13.463918142785856,20.359956588978637,18.58327066531936,9.296464808150326,8.89318453955833,7.33936475858051,-3.7836862671935703,-8.062729684887582,-4.7979484911258945,-6.202254709751107,-1.9766933367708237,11.506199708994336,14.35272543426672,7.610847529867411,7.495946316727229,6.418801180002562,-0.16456702173046533,3.4820482970576148,12.507375153223377,9.557235975837816,4.89273271430317,7.818995944972685,4.43128081189095,-2.5290733891775994,1.4557542460803616,4.903741364160908,-0.9469499552623302,-1.1913588641641957,2.314630016892896,-3.8989211731670266,-7.700982499992143,-1.0350226443684796,-0.5424297031606558,-5.35778771831915,-1.2869848082647353,1.1926972714735153,-4.943918041480437,-3.8518424764909365,1.6047895124604237,-3.945818677441248,-8.974151179408935,-4.339955000231976,-5.3071004479847055,-10.032462695957639,-4.671161826687987,-2.102271416537044,-10.71947697302527,-12.459719394973177,-6.80306749265761,-7.3125564601497866,-3.8209799208987483,7.929569599227575,8.376839852617863,-0.06925548519726288,0.4454675682662075,0.6499813851434745,-6.965214471084033,-6.190897391044954,1.0288840000486323,-0.8383003157164144,-2.5491133593805237,2.116959471182904,-2.776189068519426,-13.592523642446235,-13.305643701965359,-11.337726001821833,-16.47185364610787,-15.595822823265404,-11.1817734312956,-15.72309445241459,-17.468903905071624,-9.733224179496377,-9.019673710854667,-13.735437046878102,-9.883054981173615,-8.52148102909214,-16.20831090588492,-15.435308020913798,-8.244581931506582,-10.086663537186219,-10.015847803099227,-1.5406530799634544,-2.4234003862285274,-9.59477178106988,-5.854901725042054,-2.03788773109268,-7.109531828318368,-5.786672756377656,-0.7990152399565331,-6.542768030043191,-9.602382435624822,-0.7362205610401507,2.3719246006082026,-0.9146335146143671,3.092113939795163,3.498893852454973,-5.904664697389251,-5.537133718928181,4.483871248782858,7.1244450933238035,10.128252212119742,18.412504904227195,13.583955519969471,-0.04962660042674383,-0.8367908602727139,3.297197814388401,1.0625050908705629,4.189810889364858,8.424006186559419,-1.2755340194940938,-9.949417695329585,-4.473589541483327,-1.3247646088213214,-2.931732997562454,4.059757184625065,8.823972654252723,2.5485595105011347,2.0164218803341267,7.158595909066242,2.975765622429413,0.46585070216415436,8.593204533768684,10.144672054924767,4.472962311817953,6.166134880283826,5.8290699448639,-7.630710795768435,-24.002391466068428,-33.74754187225213,-36.441722099132946,-33.12757367320235,-22.941895176501824,-11.415890624008881,-13.150092173849353,-23.606910738552077,-21.24784171080799,-11.32340471219548,-11.160692736394113,-9.897041905651427,-0.08242101239320565,1.4145689080471724,-3.55573583829586,0.5415695815190871,3.5482258219033116,-0.808344243703353,4.604663537957954,15.039466230421555,10.809096154262352,2.41386011523572,3.325769894114968,2.822085129573293,1.4437433626727791,9.465525445472474,14.267800098665894,8.108685585136119,7.521081300807799,12.76549409795913,11.491581264818187,15.700340234561391,32.526279287870274,42.647784889067694,43.53902408175345,49.62214893666764,54.74737143781657,56.21862277479816,72.87786718904304,102.47149446402432,126.74647519170233,153.5419490266661,188.08096994293942,209.7425446306911,215.23077993130025,216.43340574126367,204.11966173410738,176.12031954724333,154.31999154298222,142.0848686042833,128.22640792796102,122.40308905016659,127.94454547097145,124.45159211954532,110.20288099728633,99.77317601874753,85.92996822544575,63.970710724760224,50.10296728936837,40.28836312187303,17.056169019765605,-9.185746356382577,-28.767201653536326,-55.33781894486884,-84.83561683996095,-100.69353291245878,-114.13948172989517,-135.20835152419295,-148.4965096171022,-154.58443698035038,-168.2433664764553,-176.25129549871374,-161.22589221543734,-137.48647896550568,-121.54771898804503,-111.61159656647803,-114.75978546536413,-139.838373152523,-163.16696058774176,-161.41563243914433,-152.7157367016707,-152.96903006056817,-148.62814191213715,-140.94757696021614,-143.10694858544468,-142.10244160793707,-130.09978506286228,-126.29449219337346,-129.9115696247055,-123.00599779583402,-115.66779679755805,-118.14217791567394,-113.2543411061819,-99.77786874326213,-93.97525098765668,-88.53015563618551,-76.62358753793566,-73.77050000046945,-77.14230532049856,-69.68039023519567,-61.01780486589202,-60.347312748497124,-52.26868476463976,-37.745147552609666,-32.7684148684791,-28.560528722581076,-16.892943096844952,-13.30401579985758,-16.588751273787945,-10.039915630367833,-2.6339376852905567,-4.526802292844617,-1.2211231694645268,7.1759503850790765,5.930667070777464,5.069134051515902,13.144024510544938,13.668065361225057,7.688231185756336,12.52840518222057,19.599783636107002,18.60149286549315,22.409031235829513,29.84236653814854,28.102891128425995,29.451002690449368,42.00993805866159,46.38990978007288,40.10014495359311,34.896930491316276,12.973964333313052,-35.68831937089784,-81.18448087433099,-107.470887843719,-118.75903454380179,-103.9565764369932,-71.11216782741694,-57.38925666158317,-64.39154213479003,-62.031763712798664,-49.91588398016824,-39.88995625097094,-23.833986217161886,-7.384098755685768,-6.510972846314829,-6.774312109518569,5.417907382596666,12.85874788307,12.460284371343345,20.384129568837608,28.91161931038817,27.65305516188802,30.183570574602,36.680493068452215,34.675402593099236,36.905112932431045,52.110613258758704,60.68545306694883,59.133925491386634,61.78286025129937,61.50644083645358,53.72686215230803,56.354463573547235,67.25025042970019,68.03778335499334,67.61561708425529,75.96318016758008,77.73195961071806,72.65915206617468,75.78267663109689,77.99480661660954,71.38944874875992,72.74482642033266,81.41596324137416,79.88808296215144,76.62294867704628,81.81504769209467,80.95647445937283,74.04867976587661,75.89741865745015,77.2980752894593,70.49639837634632,72.07640442563914,80.83365190964344,78.96717737313551,74.72546988343915,78.17720663949635,75.68448299440564,69.28472263491531,74.33664194535775,78.20113508723813,69.43036481568419,65.4324972702571,68.31101559061251,62.491634126031926,57.462589510737125,62.956840358038626,62.07873631743608,53.42889094919127,52.80210825373374,51.44558822837129,40.97513116165871,38.933784250919096,46.293278422977046,45.60867059850892,43.80444709035615,49.741651705711554,48.01746234954178,38.79861421587465,38.342558899348234,37.553008200649586,27.481044925391174,27.138958369146835,47.36621825683221,82.36542385013257,124.89859129092562,155.24500969963918,156.14482384110545,133.1322290713052,102.26499745668639,84.39050295322106,88.19329890459498,91.57222171218741,80.29828054656353,70.85519909545526,66.57520331602034,55.370273441952605,46.9791219290688,47.83062254359224,40.76857101979488,27.921095810685884,26.369226354930134,24.02376770719212,9.15441982322412,0.36341619404710857,1.4577193352775901,-4.655471849065185,-11.867110691489028,-10.469997149464037,-14.31628952037078,-23.119547998829937,-21.751927384596655,-20.711264214850555,-30.960081052129752,-37.259591185082485,-38.442972824563775,-48.52671030934649,-55.59745326046515,-47.86746452347824,-43.02911158219162,-46.61488581424326,-45.99764655736489,-50.03901804478959,-65.4671609443925,-71.87973893048715,-66.3562643935122,-67.09571208703566,-68.7721090430605,-62.95359804591392,-64.60744143430425,-73.46943551589865,-72.86147768240791,-70.81895074255324,-76.84762764477622,-75.2628045172172,-65.71614915141697,-65.7985480884671,-67.90061381096002,-61.54327253687889,-62.002232070448045,-70.80721894025237,-71.89652527496538,-71.95908162114058,-78.39279577930364,-75.23382037898779,-64.46725501124281,-66.16524025707552,-73.12565777230319,-72.31416798962415,-74.64899621350159,-79.66928322997424,-74.26776865212028,-70.38501282792203,-78.18949785089266,-79.57708521250666,-71.48254761466386,-70.4989455528199,-69.99115728694424,-61.11030291413313,-60.11809407689385,-67.77877159163342,-65.9689372278134,-61.61286167066379,-65.02653059114029,-61.424064797967105,-51.19796785754406,-52.568368240313376,-57.00749887473013,-51.54208753685627,-49.87813151418672,-54.259452789531295,-50.09931911716935,-45.66301176739626,-50.202125504532496,-47.64377725751456,-37.51102340145283,-38.68268027374064,-44.99425138895873,-44.41981263728488,-47.96655715624166,-53.84550980792437,-46.24660082682675,-36.14084506471329,-37.15580574927059,-36.44475282123214,-32.02334222872644,-36.26969511364444,-38.55770466208996,-28.92227049743113,-23.804014592288116,-26.25487726533907,-21.658070626423246,-20.60549542012321,-40.6061066023635,-70.18560608088168,-98.57992215680392,-126.82290371970092,-135.23389615947968,-112.12047914896758,-87.49249678070203,-80.49087082666128,-76.98393482696943,-74.29404025648009,-74.44029705415429,-63.420971042066675,-46.6877396154936,-44.50892032062556,-46.55392128941383,-37.05401937762537,-28.02195155602599,-22.784668792698568,-10.039403434558757,-0.6236324518392078,-4.110121605327916,-3.1618009371826785,5.5097707653761985,7.726397322111925,12.624321878591703,28.807669301128538,37.406761742350724,34.97304169712008,38.41642176856877,41.41104616388183,34.904390951402796,35.11976669636414,43.866009183537145,44.248806254100444,43.037677924564925,49.757027869113394,48.95402193634179,40.489766978002486,43.43016450100558,51.01222994290252,50.72872556987916,55.38892494709296,65.67532557462529,65.44884435183471,62.909031719191404,68.37956111179827,66.39162307764454,56.42148167323592,57.32315168501664,63.458176043912054,63.78785417576921,70.117054174634,80.88192152108377,79.63029296752677,75.82236843190155,81.15153219799441,80.82285580441334,73.06128428997422,73.7281340191897,75.051332982607,67.2742580631653,66.16752008275036,72.24274871302724,67.34359228753351,59.83069575410187,63.07739726691548,63.64501941336542,59.44299082239819,64.75194987418352,68.67478231448324,59.39398560987131,55.4602742784063,62.90508172114556,65.21978870230686,66.1238615681045,72.2419733852779,66.60918467676844,49.66820920756422,43.29019464318361,43.91054921999054,40.46685601890508,44.04960263805267,51.86694665522894,46.12057815694552,36.700224088727744,38.091250552748534,38.2332240350443,34.88083802545575,40.94225476616092,46.059490725992866,38.944975665772205,35.75189625231055,39.97717063093787,36.32007710104507,32.56009766581346,38.44576501165211,37.50308296495338,27.902318492839797,26.710404303224458,26.33490403948929,17.11412072536154,15.97307341156218,24.0957417197367,23.35774747246056,21.076812926739123,27.169571485924315,25.130813542774735,13.870707516750265,12.289638343556383,14.636836482950903,10.558892887881493,13.933122423833025,23.144052774664857,18.546622651715918,9.169790037017329,10.616991609620602,10.720019250734893,6.753917494851631,12.033018299718428,16.259189839746465,8.410727152106823,5.078735184633576,8.945137739348862,3.0375950530748987,-4.880454906061928,-1.8939480980635086,-1.4625437562451857,-6.67034627823403,-3.695696521547516,-1.376281291102965,-9.692771914699271,-11.577892213364075,-3.9152177268774038,-4.120726632913827,-6.5291214853648745,-0.9166428867641949,-1.5084713134195056,-9.349905995453751,-7.778270341503435,-4.270031783929994,-9.779061081921068,-9.922533564730738,-3.677820945674867,-8.007326254558954,-15.029135108555096,-12.433377838842505,-13.505634619330218,-19.703121676654707,-16.08839985903866,-12.585506811601508,-20.895080936352542,-23.78284924487579,-16.684294481563413,-15.988525232872442,-16.013320448907635,-8.834931361849057,-11.773118051108176,-24.996693585227113,-27.485927230502554,-24.36574572917061,-27.808739684832815,-24.77383150089341,-14.848656387663706,-16.344674237319342,-21.54869778009454,-17.046632804035013,-17.154160717684984,-25.05956892682925,-24.356256327084008,-22.07180850786613,-29.308269330193227,-30.046936405613113,-21.258625582364562,-21.644162198012893,-26.5404629499556,-24.440321077865235,-28.167966428602927,-37.8091631199114,-35.274938195788536,-28.677440591012292,-31.87199859664836,-31.18283265290946,-20.20192681337518,-12.294610784309048,-12.981080146240334,-19.849962477505578,-31.579552659853398,-46.471974395980865,-55.29254293402052,-46.649947602441266,-32.38486277590059,-31.465091310281558,-33.174687905652426,-26.952808920163328,-28.594266986903502,-38.16576397731045,-38.10888807556651,-36.562364784706666,-42.67597889234799,-38.25907538695791,-23.200636437384333,-19.7505821724144,-22.33823969189493,-17.365777391159266,-17.605950388128253,-23.881796753826702,-18.725833891312867,-11.496112209125418,-17.56666533274917,-23.13199819722867,-22.36654886162961,-27.539798644295622,-29.755150595940176,-18.840394443752697,-12.519978504933665,-16.191560141232063,-13.837418076496405,-10.86204019631286,-17.392498859160998,-18.354660234747413,-10.398174091379914,-9.505557239741899,-10.24494010465286,-3.3649643522234074,-3.805075719952165,-13.197772911141655,-13.502460992344066,-9.602123334609384,-11.586363877345974,-5.83792679803263,6.657404609770162,6.193110703682205,-0.36161260153317576,0.49520620728433795,-2.9421582206642247,-10.522404510333882,-5.803948901845869,1.0606244028136762,-3.8307658293051423,-5.2871811290617,1.1755056150060046,-0.26032282858049016,-3.6877532520946787,0.8610156482122284,-1.809756120185472,-12.730854501275406,-12.087614156126424,-5.107698836798631,-4.835243777544019,0.2926657727587414,10.353017219754673,7.75557830957135,0.7188812390976744,3.7966194871054952,4.599767048680798,0.3896352428665122,6.027733092595357,11.98668941250886,5.094510758489429,1.4104920062552075,6.052193351845545,3.3891032689139786,0.6282386066331958,8.839430749548315,11.39572382822052,4.3519476577574325,5.390688243962518,8.46655579896388,1.4330995352030316,-0.39269956423240426,6.987181833345176,6.041205637245999,2.960449646215568,10.501313992479798,13.399770249295203,6.674323784549532,7.197932798283385,10.244929174206533,5.0461385548284055,5.7791670124693075,15.061018099804784,15.678546085489277,12.497951178943236,16.3774771760529,14.259657188620158,4.569463793430898,4.4829468448623,8.08561311162952,3.827741343531805,4.367216717206936,9.632178768641815,2.5701773785240807,-6.532571349538221,-2.0131535001008682,2.1562758371059285,1.1211238841525808,9.19781524549278,17.155043480036365,12.242615225128228,10.789210179270327,17.341194109938552,14.290472607525249,7.486868376074307,10.643855095712288,10.703194565944132,3.1843203103306346,3.8477832129754,6.974110060935635,0.5692957398646548,-1.695053712860013,3.9547707408213713,1.6767078413198304,-2.5876878051022443,2.287820882093562,2.041879897669277,-5.595360550703986,-2.7129750296607344,5.048980620151926,4.687382874143465,7.405310205242043,13.828346003985,8.23880541673697,1.712302313989798,10.438721058166035,18.729808092796517,18.180896635275175,22.382828750454657,24.50088109806393,13.486927301404002,6.9049891509550045,10.291148792905725,5.488641329187335,-1.9410476425851293,4.623869367181953,21.83762461693309,51.449902831627405,92.87802299011524,118.12577115734106,112.11724581522301,91.011209582899,68.03655689269696,54.89416514530188,61.90240451627827,71.24681802996464,64.43511791747612,55.6392258960903,53.38974694778062,45.990355593221224,38.44121553754329,37.89256091690025,29.46451692375597,14.083073567888105,11.227393325561023,13.442369321473798,5.954712152220438,1.3863919042790047,3.7051897127494247,-2.329367927242468,-9.614459590342216,-5.484583869847379,-4.548684017842952,-12.250969167874054,-12.7821199576133,-7.014108188262508,0.9176432592427004,18.614318447384964,32.25671969781763,24.350937429317057,7.563635924770524,-6.640076553153442,-17.902494981046132,-16.927863865620196,-8.902011148283098,-13.568242091237956,-23.44690911464538,-22.94804868257113,-23.05163367476265,-26.95382922082065,-20.906297775687346,-14.116460321516692,-18.913691538491715,-19.944169836318824,-14.181413674931768,-19.35465284804025,-28.09498828984693,-26.07707891054897,-27.719449730569757,-38.20955322465905,-40.567690951083414,-39.48656657494281,-47.288990684169256,-53.86043306349121,-65.50296487656996,-104.20815296112191,-153.59765914385164,-184.14065925305368,-195.71901651636387,-187.6736942515088,-156.870831713236,-129.80240974916973,-125.71972401080524,-123.23538638054427,-111.19577814019996,-105.44185667592734,-102.0797276772729,-90.18671728380102,-83.91090719341355,-86.0143415492587,-79.19442024742438,-70.48090813633821,-73.44287562321408,-72.52404937830116,-61.07829286193538,-56.040777451265384,-54.41854534012133,-45.5213780313664,-43.323615344307825,-50.51371764219368,-47.1922383128244,-36.0023823219817,-30.352349011293878,-20.248049501081553,-4.636561809725034,-1.1876448760014253,-3.107461074168248,4.885672888133971,10.318982286786976,8.278502433631719,15.405995411692128,26.81713034295008,27.926964831423422,28.747521075858838,32.67197020309281,26.240641954959422,18.961869382056236,25.87853934367968,32.0891005407088,28.5405181866256,29.498184453589015,32.74686035071564,29.201953184198516,33.25119036847338,47.86362105736718,52.76353121197927,49.862013218872065,52.453479956042905,49.423248859155535,38.1548264061045,37.73478992715241,44.72164342018256,45.26484720558815,49.97095302684821,59.878133249920225,56.50377377885575,47.00910563057213,48.84222808063228,51.44925032175772,48.444609386534246,52.285397449631986,55.288638904679,44.794300051779366,37.50017330927586,42.30442974414558,43.575756079264835,43.2845687037651,51.152871813744014,52.98206859166141,44.400266682527906,43.17219947630055,46.510648412729104,42.281300987504316,42.59913298434258,51.81324797409093,54.19032525646921,54.33970675235514,64.90830535131742,75.81420558656649,87.41794964536737,118.82035422566398,163.46883477486105,202.33297123621108,239.43138776206987,271.9607968633032,281.56787480789137,276.30667280241084,273.90774359600766,264.53203104222007,244.98837828095822,232.39148705025758,221.03721731445927,197.7696782116548,177.92179556495873,166.5130748501657,143.7056864517325,112.12228585322285,86.00143042395752,55.96349708899629,21.45270255416395,-0.5202634673188848,-19.088774394294404,-50.72663115851432,-80.32990314297558,-98.2394314056694,-118.32440618130445,-136.76420070111482,-143.6971491179038,-155.4527877641654,-177.24445682550768,-189.87926548889504,-195.89415125050937,-207.61588279386217,-211.77934420242087,-205.18298511606517,-207.98021829051982,-217.83683496928916,-220.50978850162846,-225.234041730023,-233.16951220993525,-226.67346235663234,-213.09203618933134,-209.7199836188724,-205.32846631644762,-194.09512778703072,-190.56856847127267,-187.81510767838643,-172.43223363563942,-159.82267861822197,-157.04649999945275,-147.71767910839785,-135.40799969342373,-131.78701542343015,-122.9659000607009,-105.23918717788682,-98.12947940797011,-97.70737675495998,-87.29074800137334,-76.15278447043886,-69.11779475728542,-52.41321356498081,-35.12087871757435,-33.76583665454089,-33.34318610402116,-23.572726777644974,-18.60710395587494,-15.094516235202878,-2.090696532998792,5.286435006478156,1.198471611955187,3.8209845528049575,10.893642738875295,10.697977211067942,16.831713035978293,33.10461684093112,40.55513987636063,42.65438732118594,52.85612268717112,58.98677508503292,57.35953016300612,64.84213897130871,74.96965428913136,72.80471511093029,71.56904811726325,77.46120079925598,75.23826731437559,71.00030617104144,78.64749025667449,83.7130470050085,78.28224376794536,77.75728993146467,79.32386904496938,72.04525360198008,70.34490854715737,80.09859174318834,83.50545393615539,82.91131208896408,91.34266447208276,95.80019549653929,89.4753175975027,88.12315753490756,88.38043593697358,78.72821069501569,74.14129135448388,81.28865544707185,82.06119268492186,77.11372756954884,78.26471331841392,74.03029968558894,60.930823434798135,57.938141323893106,62.78785955815463,61.613130120326474,65.62751720901107,78.3474613282941,80.75564826171842,75.44154938480757,75.50223942910497,70.04257585553552,57.78804564517837,57.6000978191432,63.757048208327404,59.65193221719142,54.88473937790436,54.28454891992745,44.47276078687908,33.079474904380056,34.774055817972716,36.610048757260465,31.783289758296974,35.01058495975268,40.968245343276884,35.12687513914871,29.2574966705534,30.37352350267452,25.963614858414978,22.54768980188297,32.15804850444939,38.57668102614908,32.77542079913829,30.54566093380673,30.3284525917716,20.641644511603626,14.17366520574188,16.342508239025506,10.807820762954352,2.1026937851760676,4.146652436682157,3.5583705837959405,-6.148694209006427,-8.08481081961693,-5.284788934479926,-10.079870124707174,-9.25917478486421,1.2384825662167676,2.2983200132615886,-3.3122597922607784,-1.8215605246447333,-4.486373079540427,-14.165312668164335,-12.3850900404097,-4.9881293624077685,-8.834412541800491,-11.94831463517524,-7.941238163156449,-13.465485118278197,-24.170488504148885,-25.309333763115617,-28.357336015233056,-37.50567390582626,-35.49199573172723,-28.201746073193,-32.07263856952058,-34.858621459010514,-29.06919501014341,-30.095143702425013,-34.086742636489326,-28.147924752606148,-26.054071261687714,-34.189656750185954,-35.30072187418011,-32.30519458125542,-37.75649281508296,-37.72364425841574,-27.121637866246434,-25.65396324084824,-31.71485325628833,-31.06044199663774,-33.88917167102148,-43.77589412634964,-43.36949936167957,-37.73924010094157,-42.0597071120431,-42.95046899221561,-33.132394823856096,-30.332711125067128,-33.3764311777956,-29.626501773288716,-30.140897154725774,-38.17078891287819,-35.5270482089192,-26.704400879529857,-28.03429596787585,-29.318753451456974,-24.829492062114632,-29.80309462538419,-39.35707995419292,-38.58678585447153,-38.18014061743975,-43.47368988422434,-39.27098086324437,-30.883513992731316,-33.55146862369511,-36.054883814839684,-31.65407326987963,-34.80657349895907,-41.211125349961364,-37.48784596577435,-35.845965448650134,-42.19547918900336,-40.199982406555876,-33.319112743033834,-34.989198728413754,-32.52396581599253,-20.583694496284465,-17.56748723383093,-20.70168846834678,-15.813103840837734,-14.963594439062417,-22.918212123513925,-21.80364344225745,-15.932651245742612,-20.088382961205944,-21.716608909873575,-15.106659310432843,-17.80492667668995,-26.496209245285687,-27.04602333466633,-30.89955014815064,-41.97846004955399,-41.9641181398582,-34.2556485678631,-32.60902909228518,-25.14538127151507,-9.016558238167226,-4.711429414148856,-9.467317592437908,-7.1352951455651885,-6.980162112158554,-12.953248077911141,-8.5498739344654,0.25096356237691175,-2.5109433976065656,-4.194928358577528,1.588131068981435,-2.2138429342995227,-10.55901023786587,-6.777099322043481,-2.34730519540438,-5.123086300514949,-2.0326539762366975,0.26192748602119875,-10.84618939068661,-17.40358470437238,-9.567246603787002,-5.339853961345914,-4.784128440689692,3.023975660707455,4.62809552573906,-4.273634632490999,-3.617539718672025,4.583063395299529,4.460219898558262,5.499327955381399,12.585750787232236,9.288193908103514,0.7224242825647722,3.7661652391339464,7.393429110676777,3.2567740560032656,5.435988842846428,10.247317953349278,4.370593975693557,0.5896804221398066,5.6628394160115905,2.896539071658134,-4.216590499820043,-0.7342747825357265,1.6640722429155708,-3.159614546521656,0.9645860379971336,8.919199263616752,5.73929763496402,5.238590932558868,15.265805711253659,18.78334072459615,17.635433118925178,23.858665206539968,23.45894178577131,10.782829688769882,6.431765665332943,10.87949663988806,9.78797902550064,12.431508719894538,22.15113725745817,19.52960754829117,7.546972319824961,4.224017881036008,1.724315352675996,-5.180968948993049,-0.9598848950453474,9.006673281411679,7.858362736065951,6.408988773552786,12.298516221300712,10.368950284974861,3.99038434655617,7.787951236344636,11.027848255951719,7.662424923734557,13.310162639197594,23.24676264615544,20.96023335409429,17.02578039739764,19.410422978986226,14.269707047679471,6.171717707106109,14.706870751884496,40.07866269737369,70.03524797041038,94.08273201267055,104.02372105438822,94.14523390798962,70.46946521817848,57.06906358249009,63.46627773376729,66.09283867732948,54.65120928198817,46.82298385351648,43.51550065691549,34.65252504336554,31.126294369891177,35.15993617898265,29.656089658392286,21.92603518123963,28.45611196648865,33.1349230171806,23.96812106912048,17.642674116777634,15.744322686669666,7.869156110166063,6.797487756124082,17.764092255190025,21.480832189199514,17.766754457437116,19.031523218931053,14.45123303059886,1.2323157331824035,-0.43722495470300626,6.077973155038311,2.6342066141352825,-1.6769262784612218,0.338470251652911,-5.644419488902339,-14.748114093921282,-12.494974759632605,-13.170471994110427,-25.019630334522073,-28.28458484865042,-21.965513452433424,-21.397273785801534,-19.08697681479757,-11.57082430851398,-15.174340833057334,-23.148898201819218,-16.443466468134442,-6.5934819834161935,-5.983193780035222,-3.53880082195852,-2.2863649159509016,-12.965551826614913,-19.856925834238453,-13.771879167547812,-14.63222519372993,-30.01673675352442,-44.504685530651486,-53.210526577040454,-60.27645559113762,-56.359744992335195,-41.11932512213022,-39.31089425418837,-54.8367777164906,-61.27670773282567,-56.07144985183605,-55.27986375519218,-51.1849324775072,-39.31472206969542,-36.71144642266961,-38.773872034314934,-29.406633453048403,-22.778325450036643,-28.93099407174567,-29.724391019988303,-23.77782710338014,-25.269744862860556,-25.582244450407202,-18.98197509902958,-21.15067195594984,-28.22510393777803,-23.734992243857548,-15.556131443921686,-8.302102818345288,9.041788825745718,33.4454892248607,59.28181611784947,85.3958514765618,100.54052504789784,100.81882556766567,92.03966987033803,75.66982645341155,62.72194958286535,62.70147324042816,60.02247905951159,47.47963749303767,42.09679192326877,42.08524181062173,32.88077111749259,24.796239902004174,24.469231543426627,16.884502327034753,6.742674116897332,9.647162423124392,11.981350945889512,3.002165621949063,-0.5289279038820742,2.2396824243871967,-2.88044874175773,-5.488509682227244,2.8669519555113347,5.862869646268171,3.077775577727452,7.7998404300804065,9.039091545193788,-0.49452505421106085,-2.70719369465898,2.295623317319264,-1.6022349644445066,-5.8671270515072305,-4.198497954101345,-13.420650936334264,-29.826492060191704,-33.718642262384094,-32.26205381299479,-33.75821346002105,-25.673817826658777,-14.860147210175693,-20.131724827587067,-28.873640680704906,-27.3108745249977,-28.160273396635034,-30.01062295138153,-20.532731963460897,-14.850911757971375,-22.846627849733636,-25.355729129422127,-20.13670538747229,-21.37349200329334,-19.93862598628758,-10.34429251988479,-11.400390852490338,-22.341415461460535,-25.42668583830445,-27.19931639898566,-33.49241277057427,-29.106808449799537,-19.045401035315784,-21.946317652527892,-27.48756780330701,-24.015768944661623,-23.464458671318074,-23.77226596316935,-13.399619304868951,-6.786607031805058,-13.160655016280272,-14.839615414437056,-10.619083961152985,-14.349309956811535,-16.695019411483607,-10.764820338902368,-11.874800151548493,-22.720405768997498,-41.92377883408275,-86.02059795115008,-148.68009257102932,-191.527303714854,-197.02923415141342,-176.04291535487965,-139.50546173503136,-107.68978507566706,-103.88300658763438,-113.69453465890862,-108.69974127593704,-96.80488058268101,-90.9449994233753,-79.83224716286827,-65.8951590333017,-62.22655528085459,-56.35945090132331,-41.02440077947876,-35.123946342009205,-37.634745482705966,-30.66871908436969,-23.572865389213312,-25.693084196617406,-20.112417942125628,-6.187256718462961,-0.43548987825358476,4.850210739202271,17.313315415175566,20.753289936896934,16.634017990030756,22.261181567694543,29.049093588596765,28.735277887689783,37.08247551926376,51.80513828804184,55.212047993164795,56.23671120141577,64.32856539893137,64.51167638522081,57.81645157970096,60.21067895414055,61.929770381117734,53.96243694353083,52.98444826259946,59.02116741825422,56.37790204432393,54.40576236391266,61.687673479956246,63.58839199131573,61.47963558803613,68.79291933023966,73.39985725445848,65.75382356614392,62.958072327839176,68.53433661228658,70.34917019965926,76.01845229192018,89.10932692874259,90.44969827830536,80.38570850742269,76.09654332361296,70.6024062543536,58.56656608228283,58.00212330875846,67.31865441967804,68.2260696867635,66.92297098545987,68.76262126315979,58.68780259639742,43.216059136907404,42.93506415593505,48.815733113920814,50.225340767352776,59.5938066166707,72.42651165579535,72.02737539918058,69.83757633052531,76.23500429442556,75.70070099963364,68.36433566295963,68.74713315192854,67.23295458233709,57.10848324798124,55.53530904156228,60.548752720735834,55.13354809251631,49.71353351074555,54.50120214207783,53.781849456493575,46.847236736841495,47.2358773211157,44.391622820771914,31.857067878663543,29.577051395603505,38.16158236193903,38.774723961369176,37.34015191835497,42.144101899532664,39.10402880941953,30.871945741838612,34.50918862076438,39.26945338046847,32.669005312072684,28.886618685741112,29.819193471210067,22.985823697006744,19.08229896587271,25.949275953963912,25.16660026229976,15.041884312582816,12.033564083413172,9.33807642552022,-0.6135193374903873,-1.9072742094340205,4.760354510334819,2.5381089389561184,0.1944460956205183,6.685248715833496,5.4978662242910445,-2.8911914115006407,-1.497100274472019,0.09861959677594107,-7.7434295771349015,-8.280861904776607,-1.4013039379346037,-4.012430606476592,-7.500528493027381,-3.3489105166965727,-7.664282738840644,-17.97245108895021,-15.63661861010812,-10.74801306779318,-15.85279098150836,-17.617624439726278,-15.695728461660153,-22.348946472797056,-24.772962265106038,-14.021971283402117,-9.352687353101715,-13.74655782372565,-11.52972067195679,-9.915419488764224,-16.819675725292683,-17.317698099220202,-13.229735364716927,-20.49644982049351,-27.246428180065415,-21.86745897496467,-21.112952598375067,-27.27615443222225,-25.458129952423043,-24.574463868769985,-32.41796443336269,-31.718361903235305,-23.67258512682926,-26.912181925180235,-32.801052992876485,-30.72002231095405,-35.79172784983835,-46.718753195076005,-44.55315763919548,-37.25934990068605,-36.39376984839139,-29.156460266343437,-18.33728179921758,-22.031794705307597,-29.385548444970684,-26.126525588239094,-25.74626687921003,-30.252465760160586,-25.855701460047396,-22.43288043515026,-29.947209006841625,-32.266774556614536,-28.035508008475404,-33.32401381623768,-39.26451451383089,-34.59596977688111,-33.874038139883524,-38.54113201220721,-34.22969256085144,-30.969178773032382,-38.19399834469619,-38.36158381434681,-29.659724410893222,-28.67305963002776,-28.02096278611134,-19.667002697204076,-20.78585648949541,-31.340692429310806,-32.2286647093151,-29.781878831727127,-33.56263385081767,-29.394063257456367,-19.6257515229115,-22.89373137800552,-29.377813772457905,-25.873094694089108,-27.01662116327762,-34.74616488077271,-33.275380056884615,-30.23202050288436,-34.29874760728254,-30.11728695130577,-19.245029611964846,-20.62339188116713,-26.973628442685467,-26.258604263821482,-29.634233249694322,-35.772124123643344,-29.518346583281698,-20.879625744888568,-21.318064681351014,-17.097964343353624,-8.620430995103677,-12.12537428645338,-17.8876292981886,-13.740909258262452,-13.325215666049361,-17.292542397234627,-10.976066758623428,-4.834614614691473,-10.075463829121222,-11.018039502179851,-5.612083166925361,-8.898869501314433,-12.166630547172456,-5.708339150105136,-5.604620278955815,-13.833921141746334,-14.350541871426998,-13.981491757458043,-21.674078430776913,-22.649246925650917,-17.195247363107477,-21.994656016098553,-28.01310828375612,-23.764179153812314,-23.430859724533097,-27.259110128740787,-19.01666562019962,-7.995493724873836,-5.65673385294567,1.8728165923659326,13.69358419692423,12.914286789327488,8.67782035806089,11.81521398916923,7.798182352171793,-2.8878929707464267,-2.4500059593853623,1.8382286513056334,-1.3657692510306068,0.5394669924414324,7.128802574053139,2.6380279318188578,-3.2924892676940396,0.38432591448294096,-1.8288247953066559,-10.975602545742673,-10.20403236306416,-6.8713869771742475,-10.943416038657684,-7.795489178581889,3.737555527244767,7.939597903712592,11.913693638534689,23.33094788780646,23.97133546110978,12.463297816941314,9.508376757977974,11.584069377499096,8.609940558244386,12.805586171387208,22.30306548415888,19.904757655871776,15.094452276363215,19.538692953027677,17.30866380577257,6.129271759373949,3.1119215453419606,2.756027723314367,-3.3979640871793872,-1.2495877826066528,8.124919506870565,7.655160994098473,5.240416020976836,11.430019836016726,11.915852466616574,5.320384943080684,7.70185374221656,12.745359245361517,10.836440547240638,15.411865493750375,26.38577938111388,27.07961645071169,26.31161416788431,37.57671983945525,47.45965075042805,53.77586134435501,74.03374019687507,103.06765475739222,130.53864779541385,168.00689754298514,208.2913742488209,225.1012076977219,224.29473556734854,222.6816903479414,212.26191984496785,195.04487981817226,185.5927765104119,171.6082437017056,142.16487821450244,117.4251764382781,102.95752440326999,82.0470500713404,60.31304555376185,46.37338520969903,24.878033048660175,-3.1706658846868736,-19.428207990970304,-33.64590125354436,-59.24329848442402,-80.86731422581762,-94.89377147627869,-115.24195840199796,-132.02458671828333,-135.82316086186967,-145.60244527293605,-164.42500619674786,-174.57581041502385,-182.7177434373776,-198.20502239762132,-204.54908967369033,-200.9831637313485,-205.70021176228553,-210.48310098258682,-202.33098707326027,-195.4663349738374,-193.24360141320182,-182.15290908391125,-173.20115753426518,-177.9221991206578,-176.83340085131582,-163.37736774355432,-154.18720222013948,-144.91886013626657,-127.68264892027865,-119.01915076524756,-119.73657760081404,-110.38532922192954,-97.62670221473478,-94.36058908364598,-86.66274812057836,-72.57506016710859,-69.04241181575162,-67.90182635253174,-56.62698995568536,-50.01451862054324,-50.15170151386287,-39.72001786214175,-26.388074803753437,-22.895732101960604,-15.809647084005631,-3.8647627829054563,-3.56467499866286,-5.473029030819583,5.1720923212544605,15.260196230494268,20.991660482276075,35.56180961411434,48.21423667294405,46.276178921547455,46.6479242630602,54.936751785172426,56.191205113411755,56.5342081069671,64.8637550965301,66.33052831597315,60.865001942255795,65.94565120593461,73.4288327559117,70.49704640865107,71.19324449342783,79.06882701533247,79.30032359336153,79.46345956721554,89.69220876855945,93.30880002443476,86.99687115092786,88.17668508345933,91.53965953108471,87.00339653496857,89.1828850585695,99.17585342203233,98.03525106158567,90.63860352121048,89.32055631417715,83.4185083659256,73.61346668554269,77.13296779075694,85.69670750586563,84.58987798115336,84.92189841687961,88.95090209645815,83.16275537499737,77.20068054434552,83.51725426483767,87.445372960152,84.79095739880107,90.36838996854229,96.93593352164933,92.32036645519749,89.24040463585754,89.72169820171591,79.2914844536131,67.68056002252739,67.78836362186131,64.74774854448268,55.345249925148565,56.207771515859804,59.794517288501595,53.18328704641695,50.40990271158027,54.05112344161844,48.508746169919206,43.33257698262424,50.854481604648505,53.65664661220965,46.73178030628065,47.43059172267726,50.051169904237696,43.07663184630478,41.74359006650492,49.428843014462615,48.277116735955616,43.129026609640036,44.49772354968331,37.41834770258761,20.12800835268721,12.9097701940733,12.502155283442463,6.385021681025748,5.460647041183573,10.193549017601049,3.5640096216545096,-6.116880188380681,-3.7670604778192773,-1.9118025445430136,-5.2919341400597855,-0.2996073251060478,4.727524450867536,-2.4583405252143433,-5.83792716207661,0.39618095335987924,-0.10624417315568024,-3.061250189404369,1.936703003152728,0.15716623648498418,-11.582025692199363,-15.474907236958305,-16.402701499094956,-25.619049983250836,-28.359932267209032,-21.458517606884794,-23.30732462504095,-29.95875434596133,-29.431002483337842,-32.87243024538264,-40.70519896820933,-35.87926118654179,-26.114390477624184,-26.37556173551543,-25.166718885492564,-18.606737871263288,-20.991438834466443,-25.706466451567515,-21.590709855998476,-22.808119572804852,-32.992911239182874,-36.06365822899183,-36.70757462945247,-44.70541944102587,-45.49756191432272,-36.8743738892319,-37.810508192828166,-44.37545476867268,-44.06013193883618,-47.82020047364754,-55.62942400809872,-49.52042811600593,-37.35313682918279,-34.66480807178478,-29.716012269516114,-19.37147543412658,-20.405145582349935,-27.279055843658025,-26.829070701317974,-30.216137858094164,-38.82872392540679,-36.143752772153434,-29.86066276509191,-34.7423654472654,-38.564369243923416,-36.622860988194425,-42.42158807670313,-47.54506598240682,-39.449817978566166,-33.730494472054744,-36.434009816314166,-33.021307738554334,-29.800370948859502,-36.40053306235791,-34.97312384578589,-20.826974805470655,-13.919066164067392,-13.391150023971965,-10.104048600299773,-16.794984380236844,-31.920419419345873,-33.496693490089086,-26.11142347529614,-25.019991497415884,-21.30928621194092,-15.473088556994675,-23.866915215498953,-35.989012954035566,-35.139969350329494,-33.464606731323514,-35.621906555426335,-28.47943935730637,-21.160186705583108,-26.013466378968925,-26.718483824645823,-17.68721867072947,-15.907917267093104,-16.621319951158707,-8.047211878407255,-4.804445393830769,-11.488449969302133,-11.539630426530358,-10.058893338147605,-18.364883543090063,-21.56934875503884,-15.269430817265121,-16.49832328583991,-20.449050441520708,-14.758342944934974,-12.655172004338814,-18.35606998763805,-16.050159643558942,-11.453407149058677,-15.965449320224012,-15.05357024886327,-6.094823258557818,-7.862691165931963,-15.25285969267291,-14.05105243865452,-15.224664762159794,-21.041488770208062,-14.995042140751686,-4.766795321928685,-5.4222786293336265,-4.0297587301464475,3.2669148108947943,-0.4586923552076585,-8.135685390259992,-4.547351076171688,-2.1027819692345107,-4.929231394892035,2.8409327549105674,13.053701702508155,9.481152367000522,4.780965565328685,5.774938052472718,-1.0352048573398824,-8.836374110164066,-5.112720613538923,-5.284927562611758,-14.656932015350582,-13.50959963205063,-3.576694932482873,1.551821923518386,11.24186952998889,25.3113164523241,24.269679162236738,14.386928340879887,12.967870123846234,10.666770944300657,4.633095575634761,11.182478629757755,22.268196110838108,20.377262934897626,16.66913004481166,17.49348482027376,9.313532586406797,-0.9566310700150957,0.5206545892923913,0.7965916115900955,-5.366864784380178,-1.5863701553420428,7.300756394104274,6.4552931509153115,6.749361791280197,12.78126478248817,9.126554000584647,1.9735619623715768,5.959837429843045,8.692201450312782,4.480904838171977,8.968514269590973,16.694208005606004,13.088257913074912,10.471103664928307,14.413655166103288,8.928436122654922,-0.5521362129138967,0.9269494059854351,2.010970550722053,-2.4752804382911133,2.2587989155991166,10.241875397442389,8.003928278026372,8.480007567490695,16.856476771256443,16.70116075530846,11.924761675637363,15.5764566347158,16.384656312955514,11.04556775441591,15.5793225347293,22.910359718102345,17.794675383710462,13.44486358808338,17.034933559828257,14.180706502969564,9.591260771671822,14.700527782457034,15.241904015313331,6.369081018422548,5.8463613569033885,10.524026552704855,7.57222526888594,8.611749419593469,16.700129683640817,14.786571926949957,8.520789140678854,12.157017677320631,13.137401737290784,6.61576527682138,9.871849644280015,18.234769225768158,16.747079093666958,17.146586388704012,23.347514818081486,17.37576678755607,5.9527945788951255,7.622187475367484,11.441265529704394,9.377201596881756,14.539300649081348,20.13442590672488,11.998441371478037,5.680528544370325,10.796733500294891,11.957863938625584,10.817120485965045,17.63943677054351,18.315786516977624,8.882040690196735,9.392445541985701,17.056718069682493,16.33353385483987,17.331180333578097,23.572725126348036,18.52420232052797,9.482174283555306,12.508639203993637,13.924625564814576,6.4316467581228824,6.295271762879992,9.389377950000618,2.2923483183506286,-1.2897857097591336,4.980155609364707,4.415895317399708,0.9873998382555695,8.043405101829828,12.158822132782564,6.5596782286315,6.864715215366967,9.355188797609614,1.4640180639070217,-3.4428477050754305,1.1949967272392916,-0.5642219862997078,-5.252399305406516,-0.6134801547657553,-0.6443376851841909,-11.185346951240966,-14.368062084863272,-12.567436976299149,-18.61524279311622,-20.341425754177603,-12.535507848083778,-11.098403835985291,-11.475981172700353,-1.580407444811558,2.9934827117439493,-4.384223499372196,-4.688185312362161,0.6137160901512639,-2.4676637402774393,-3.1683813736691926,3.0082560419448185,-0.24493336458859405,-6.554396119489102,-0.46901181987395413,3.0028198352709534,-5.130316196225998,-7.685407826919967,-5.785010566310287,-11.60171392573248,-12.778306161709747,-4.74813034477002,-5.721753696597597,-11.913145884942077,-7.659510899729687,-4.20205811381819,-8.103296230208837,-4.102607236230381,3.1793703771439334,-0.6168874656768417,-3.0237897522349195,3.0811580323298844,1.9649285687576348,-3.0804577452777675,1.903778715060903,4.80173205461898,-1.8616236664071004,-2.884706938986176,-1.7762548972615342,-11.912730120354931,-18.774956918949087,-12.586419224599135,-9.31949389393287,-8.921426307351998,-1.1806487828284218,-0.8399800970484561,-14.250167564684004,-20.94514342100883,-19.713490462681623,-23.51784074111366,-21.50258976342572,-8.381855069824498,-1.9293357316806359,-1.2692497421951543,5.593984033368703,5.743594911979883,-6.8420356770349535,-12.294408961056,-8.539983646806185,-7.815971459649554,-1.190139371915698,12.687344343415356,12.781264208714376,1.5095931236936195,-2.6152078760935824,-6.036460650203303,-12.387690649250448,-5.899464059431525,6.167962920341308,4.816961799758961,0.6890070188975739,2.984617410559223,-1.6288088035817823,-8.59405993052746,-4.0454957365132564,-2.08824253833998,-10.793223475889931,-11.73972972291693,-5.606967356290808,-7.846429084470881,-9.256190898423002,-3.460453943256448,-5.326236582104782,-9.98926992483711,-1.887386669654318,5.6649415668951315,2.1235565556462594,2.088568927498709,4.626004975542619,-2.0175512044514052,-5.20262615610082,2.177994381355831,3.126945745341537,-1.250753589509187,2.7703004127103794,3.825910365618451,-4.913855774252872,-6.2968424506886205,-1.8311369356715625,-5.124221808150217,-3.82077112785223,8.872797031177331,13.656581516786582,8.868704984542136,7.9069229669205185,2.749826731997263,-8.60392846001545,-6.2060930659561375,6.619984909195187,9.676142895150601,9.003861519987481,11.403245837950722,4.058233334855407,-6.40579413774932,-2.9621826283600874,2.0495460290302967,-1.6702984175348141,0.04680977315470303,4.8091483421052965,-0.4255971312864584,-3.0214850961289934,4.306309481784751,4.62166319117802,-0.6919536362067387,2.752714665321988,4.86203907152933,-1.0192717530652091,0.8199136599153585,7.795338616063845,5.152191721150295,3.4302365847565803,9.362628484974254,7.0152160298585695,-0.4909549587157813,2.210961312203717,4.1195397632140995,-2.8711221678781236,-3.502511332611255,0.0041816504584704095,-5.653203836724046,-7.742180357575608,0.3964691944248262,0.14609360352666778,-6.885823249218373,-4.348805003414359,-0.979295911715052,-2.6364061074780647,5.401841942214842,16.935938491031802,14.748850371634678,10.631879696499354,14.215732355693461,11.720089553524321,6.320925847036809,11.40090185368169,14.242489790502812,6.792826389206926,4.946007244452988,6.499085233496229,-2.379138059361176,-8.980456912781921,-4.552208040338807,-4.971503238086625,-9.306828749294121,-5.534398759238468,-6.124196412705842,-16.189370305449774,-15.737249757588506,-5.568797505854693,-2.2398548177154716,1.863865056612554,11.27703072352316,9.871996343223543,2.5333572324461944,5.936583625493356,8.54891717689127,2.1514881699864965,3.0942057238153398,9.327637350354895,6.842911798945354,7.726549305345044,17.977137686603257,18.057876029177052,8.251816020582417,4.264833811026308,-1.7840258147778403,-13.191191003043278,-11.58946973478334,-2.0377946675606,-4.485766535023072,-9.271093444928914,-6.059706535964187,-7.981949434053401,-11.925348676129525,-4.310162781922617,1.488341229219271,-3.3479469761029623,-1.9828440443798225,4.4081576455443106,0.975561043792333,-1.5301876151396998,4.877950595089363,4.691726565518394,-0.33205780233380855,3.5148580960105202,4.833494680649483,-3.316388240782738,-3.6575843878348366,2.4635941699611585,-0.6873488413248916,-4.048891172599651,-1.0091183061829239,-6.792308680552949,-16.41318054733711,-11.59451625813889,-2.8233625353873206,-1.4517283681040318,4.8557518810515194,13.17430623972532,8.891735496027264,3.7461858423976624,6.627495837293632,1.292800319244066,-10.065912746496632,-9.806757496857927,-6.971186422876469,-10.762033350237338,-7.214282779174669,0.5101363955505751,-2.7486468418835655,-5.226627664795765,1.756109889489808,2.086465852727443,-2.669899411865477,2.359484565024355,5.798740948588389,-1.231567455538181,-2.8369984371125376,0.2660735064328774,-4.945267413100168,-6.277874387165362,2.9632550005182416,3.44463658136419,-5.17182002981313,-7.343765847355028,-11.232895948767101,-21.115434196200486,-18.968845348856465,-8.036047577867729,-6.025658564781134,-4.280856734219023,3.7730330921152366,1.8054305477009476,-7.4539922190846175,-6.999641074755749,-5.708588758313735,-11.118851168868078,-8.12399328883583,-0.1996095174463708,-3.6485190449169815,-6.769166215415394,0.4466112926955619,1.6835877533866594,-3.5826714204257133,-1.0200658187821763,0.3708665574207688,-5.27643460688086,-0.7211140033470538,11.884487650786822,15.031685104481785,16.849317679752545,24.880066933220924,23.30025979134654,13.0815749671238,9.911623425858927,6.496814384506568,-2.119709789601806,-0.055939155933480755,8.387493239236603,5.103708480267732,-0.46138818378697577,1.9943811059791283,-0.27853687260839477,-5.082442029971494,0.8114579555682413,5.108424557939412,-0.14214896226363072,1.8619605970126556,9.454757835675794,7.029534033897166,4.699505926109941,10.764822490985498,9.785959609526326,2.810288066584426,4.0175384416218485,3.4327512172897747,-4.447852014237961,-1.3898032767630224,9.530365430664911,9.102043065227342,5.4159480480793185,7.013087268102323,0.18064471489881173,-10.49441543710177,-8.10862355515156,-4.341960020290316,-9.388112977734153,-7.404008929643984,0.011466088028649679,-3.4149590636984155,-6.8200645680336685,-1.1262271938181767,-2.458614442639843,-8.675840307110244,-3.1337703432790307,3.9764807972850265,2.6433123054916443,5.999210268552417,11.460817683165956,5.46286193951735,0.8484106375996827,7.106783497143501,7.198683306445748,-0.580524130106471,-2.299882121243673,-5.222553118053217,-13.30135456770085,-9.209442289959874,3.280922185685929,4.263204021806856,0.4844249069136324,0.7815737078090099,-6.939959349331016,-17.14915635860387,-12.601602680030568,-5.5862004846584234,-7.891112873390146,-4.494311016791974,3.9924346128850345,2.0958050479014534,-0.40915816967662016,4.745603284232191,1.9992480369675953,-5.90647498548345,-2.1391474356171534,2.335519826471858,-3.305181385935926,-4.09169052857411,0.24574210061796564,-4.122471694827205,-6.850480865908777,-0.23381663451279078,-0.8599309993382795,-6.984748046446644,-2.1717568819620583,3.0310434290745065,-1.5245331213655198,-1.318920626672598,2.9473291146730896,-1.8588474404929554,-4.006821896776358,4.570172783477936,6.173995443761685,-0.1338891185329012,0.7122072840203411,0.2699207821546472,-8.399313033490731,-8.628905244091738,-1.203260254338507,-1.9964993731733323,-2.103864878697471,5.3288310013631595,2.7064167176575213,-9.020874013569502,-11.87716118587949,-12.679488432478538,-18.87576747125153,-15.552503552765305,-5.155270648653031,-4.054774187322772,-2.6370144892515186,7.233515879164834,8.777471325540276,2.0199852371978295,2.8755223943914183,3.3446223784199987,-3.702401484523048,-2.20974561078779,6.19955400754477,5.05631225872924,3.541724954812051,9.063617158891754,4.961324866473625,-5.7067118360721185,-4.365327322873935,-0.8307348269292107,-6.0147980892763915,-6.263294752328166,-3.0288214727292493,-9.979159272887333,-14.573232227274204,-7.033983732176758,-4.540682973212897,-8.07232154171167,-1.477316171622069,6.362160507266501,4.854565686649318,8.497675179030203,18.49809225595088,21.461920974604404,28.142673188039076,48.45563985862673,66.44362619246368,81.57455519423226,110.12582626799022,143.22632494485688,168.2271017458308,193.48780092929556,213.34880950846195,212.25829537361037,203.73580295628483,201.7412289249733,191.87853594121765,170.8939782387317,150.82150491493874,123.45067584288469,85.63234788064088,58.43249094699476,41.235601995309274,14.297063790358717,-14.44191955123424,-33.35934234384878,-56.10064823080769,-82.79107054490821,-99.39475904315032,-117.12332305868941,-144.5380804651474,-162.15732034848617,-167.33526259327286,-176.62848590575325,-182.82729829276482,-177.85777281480398,-178.22427178450639,-185.05935025683226,-183.51787823500445,-182.0970282144753,-187.8671815839755,-183.43692069951422,-168.87475625771503,-161.48771220293742,-154.38742260473327,-140.56081929751983,-136.18156961368183,-139.28906983095376,-132.1121698952312,-123.30795004314398,-121.83403489460368,-112.42095988584198,-97.4038859424345,-94.38239069555289,-93.91489772625167,-85.69581090957256,-83.16662099652041,-83.0381574566013,-68.30477829074059,-50.13427188376296,-40.95671781915341,-27.621618788978004,-11.373468952671,-7.705910557868054,-6.292315903748249,3.169253151340633,5.813508155408372,2.4858644025427092,9.275057275598698,15.987963440334589,11.619776174850807,11.215237523923605,16.15365721891251,12.870394142139872,11.6878028297854,21.225774270141063,24.43551055073991,20.993465781394168,27.319865680724707,34.85023427341859,34.78607932055896,42.800854101492696,58.02349101112104,62.980099628655566,65.03174930200322,73.1032185843516,72.86738481022041,66.18442491938745,69.90521978665969,73.66100754768695,65.93991515955902,62.79817653161909,66.8856109722057,63.82267235285335,62.096946166858004,69.10390198536406,67.42680349830444,57.52941353246592,57.38095860784412,59.047419177129655,52.83123898422411,53.47734329270487,60.48243380905636,58.5501366340073,57.49441075794398,66.02094496973649,67.53265220598388,61.64676738064215,64.16465714061923,66.62394011716336,60.23087697646698,60.12927414613317,65.86331156194302,62.031752787814874,58.39554870685973,63.797974687403695,60.84657304232151,48.7779497670727,45.53140021962651,44.86479387294823,38.27594144566453,39.923135063590635,47.03248968545378,41.993222757795515,35.24702088545018,38.62568336166853,36.56634782353506,27.201780078824605,26.072574651656435,26.31405636510525,21.289751230244406,27.363282248965152,41.97788023518348,44.56369869335628,41.13546900686953,42.10760236164263,35.44686738209006,23.834565990906576,23.747726797591675,24.948640111229594,15.536939243442824,9.88596397728525,10.265245117521143,4.226920742182868,2.7477378122378258,14.69123623498773,20.69092845589784,15.39266682378496,12.680335104048321,6.650323531116738,-6.939652396580555,-8.591438862707385,2.412116774602372,6.7293817394485576,8.773134566043721,15.99663613020081,13.039144394640118,0.8372613927915045,-2.158573584699577,-2.024466562583674,-7.193848917438263,-2.985801915262992,8.120943613412582,6.433672699019221,-0.9987671528108906,-2.6307986229111804,-9.595522223430354,-19.07127484249532,-15.700285468614611,-10.860672800105142,-15.928079836648536,-16.24379203887638,-11.55444425968722,-16.701385025452172,-21.356917752175633,-15.120702443251144,-13.767014497804556,-19.171790351113998,-17.53334698109385,-18.59163913755918,-30.269349977281237,-33.63473085706062,-26.254344419204642,-25.223794784891826,-24.538057120441408,-16.767535122744757,-18.157714670584085,-28.061927995478726,-28.26532582095425,-25.872125698350725,-30.296170016997685,-26.95077988828107,-16.82145284239874,-16.728790963892862,-18.276132835199753,-12.313986902614097,-14.582037327327217,-24.512346554905623,-24.007990352404626,-20.689257599078882,-25.157564751659255,-23.790505886442254,-18.00310060933115,-23.777596108436903,-29.68440502371096,-24.11138324846097,-23.51364870829181,-29.78336571919636,-27.18381641944113,-24.1189019479794,-29.38791200096044,-26.54236784893753,-15.645043013116325,-14.239188054461822,-14.773218161703145,-8.567063667005222,-11.47641609180864,-22.211947369192707,-21.856091823754305,-17.696305433088824,-20.480363382239723,-17.208802024440327,-9.88501096510419,-15.776089118615616,-24.703780803050346,-23.09631251087653,-24.101855000030795,-29.027897930645636,-23.179259141168597,-16.748963640514898,-21.772161691408215,-23.089000505374244,-17.545946837127484,-19.210127944339266,-20.28030324401597,-12.220366220562976,-11.000476655795955,-18.149004966481318,-17.20217103562433,-14.589201997067688,-19.348851689449237,-17.03267235331042,-8.261420800800076,-9.98949414209803,-13.377639056314251,-7.846369745111824,-9.161704408533547,-18.05412592607647,-17.04127989590953,-13.895791073543684,-19.452410304288925,-19.044913617952812,-11.979256765847976,-14.789523937929747,-18.63088585395725,-11.720494038728116,-9.018683612017135,-13.353697105684871,-10.282409639010247,-7.745976730760788,-14.729179364836765,-15.640164042908662,-8.886705449236285,-9.629871868432549,-10.471229240654587,-3.065128792403703,-2.530152520445426,-8.750854600957412,-5.494476981062104,-0.8714413591627626,-4.218043296820838,-0.6521591143867362,9.092077410326905,7.581971337200072,2.279420099959636,3.3356013237634605,-1.5893951422902437,-9.377913496414507,-3.368792437577008,4.545381827483663,-0.10211185467532413,-3.479674638173859,-1.94390845176983,-7.727449508971755,-10.806209581868316,-2.522367945682726,-1.0420796535202244,-7.765185441856457,-4.6323716765572485,0.34686694071963986,-4.1506614744873245,-3.004448611634259,5.030490410265983,3.658372460457228,1.0999048028343332,7.530227864731006,7.724491834245688,0.7512011265099212,3.400312974974295,8.431760279306488,0.04612831260800343,-17.04014474106928,-32.33564901817013,-40.932952710019734,-40.235058131779375,-27.8516368835596,-9.988141119261938,-5.8433740635663245,-16.44935896410032,-18.547433692487893,-11.54082896877405,-12.52644492540441,-12.733615771326162,-2.7774366717937413,1.8489806918754388,0.7328803111244455,7.787561432771108,11.556586980045843,3.4244980750847285,3.580202063373714,14.5530191316097,16.097969726240287,12.211145330813567,15.066629848540964,15.02729155660992,12.503569407576919,20.65355969134224,27.562669196483622,20.755656545342603,17.06658042259655,21.75166255686663,20.579828553222455,20.24780149580249,28.740625660314507,29.73012443115621,22.357303404824552,24.37967614546782,28.967167489408705,25.023104851309522,26.05480094937703,32.74203981512429,28.871899819010594,22.423679048551346,25.05864130378943,23.664597314469447,17.175984818754937,20.910723996482428,26.818734070881806,24.144564041982633,26.372768091717596,33.50521828224995,28.717735511571377,20.51134150981963,22.348861737669882,17.443925933619596,-11.610950197613388,-57.64357477758004,-103.12718456062599,-129.02840238795125,-121.93908302945493,-95.11475194302767,-80.89465747512173,-89.7237355927084,-103.56533766721677,-100.60478730919965,-74.93073279795327,-49.56182864718279,-47.33513074432428,-52.796664076879395,-45.73143021966466,-34.79297255421926,-25.062138365909185,-12.113494538944707,-8.098667816962914,-14.598662843616653,-9.013091280578045,6.5175211299343445,9.020931760192756,5.582744860058819,10.423386173235649,11.122499736420089,6.855008184181646,14.417600210672774,25.31326097010804,26.157181932853312,29.806900933221918,38.45568764324645,38.02585323287961,37.34026939816469,45.932971105210484,47.91394708111264,42.99630942083998,48.83933475493986,56.74123585336713,54.191177824312035,54.85310108694438,59.99416319678297,55.42862914022142,51.65056421123584,58.92070533967766,60.15355701449266,52.989385098524785,53.809412857538554,55.58551395195066,49.43439893081751,51.35999707595933,61.69103413399961,62.44286329460528,61.00248063379874,67.6062568124045,66.85953794284369,57.81483134423708,57.40888186637431,58.61704368655863,52.219801175618656,53.84424726507088,63.70525650821017,63.19516041916768,58.4810225957594,59.78328888462938,52.9459886361837,39.13674496277603,37.83580257889452,41.56217568655775,37.99051729338587,40.71023888953398,49.17087470247913,46.08785607289045,40.850192067383794,45.18456025296065,44.456789786562254,37.81441650482711,40.81676528348755,43.881592762593044,35.901763500970134,32.5342812763099,35.829852989015016,30.437675434536963,25.89392574745133,32.97464568935156,34.28130826071196,26.988796255045628,27.964970847282892,28.67986090428109,18.345783584284263,14.710174566024008,20.6462945193972,17.927064927434273,13.633292007014479,19.29769816740415,18.519615032593457,7.953207046081744,5.361848444745519,4.967857505070607,-3.5439306882291945,-4.409492966761974,4.710420993753864,5.47076910477805,2.605395116941269,6.695112898321687,4.242217854402737,-5.316296150255415,-3.8745808987469563,1.3922548205628,-2.7757764555166573,-3.205530735385235,1.9618734362588777,-3.7351624794851257,-11.681614143377981,-9.202231869698261,-11.270148655940513,-20.01670371479574,-17.9104486137127,-12.815412931753745,-18.557623175410527,-22.241541259594126,-20.667978879594166,-26.58264924066639,-28.94173785469954,-16.489653249109224,-7.852125411310388,-10.237580570168825,-10.145062896224939,-12.808182190299615,-24.020976426298677,-26.56672856202721,-20.1159821279713,-22.93264448881808,-28.705878354563524,-27.375283225594963,-32.16918433847699,-41.85696306424898,-33.5787708162037,-0.3929261545031668,51.390352714915025,116.06313840378739,168.78869294781808,176.07880706753835,