-0.41835025317048924,-1.7109153934553687,-6.799705204826996,-16.81386350586539,-16.694684854246514,-14.299578503609869,-24.47555248880557,-33.862536793716124,-31.821865269836415,-28.00142603376389,-19.342274407843412,0.4196262620810485,13.977374060356386,13.495181045222056,14.099804735550789,14.010368431011276,3.6870665417976802,-3.5776342912139176,-2.3349567309078,-6.559822212725537,-13.137767738427979,-14.104769195800806,-21.685361044537174,-35.85650994476197,-39.74041941358681,-39.08420494753762,-46.71107832390403,-52.82702328353164,-54.24712039687442,-61.97965499348857,-68.33088401034146,-64.12884313678869,-64.15355779023568,-72.3892147065107,-73.29873332331769,-70.03601139539327,-71.906256060633,-67.82820023855547,-57.48402819953514,-56.79228399113523,-60.02071980721675,-56.018110071462814,-56.13031644045166,-62.55802338705525,-61.40543237258991,-58.06592215718273,-61.853331628149405,-60.174011080926846,-50.41478060094649,-47.62393112446627,-48.35863252617445,-43.8577335083223,-46.24733878948686,-56.74883574041387,-57.987941575303786,-53.74201433268321,-56.03860936683449,-54.758591811420715,-47.4797810006523,-46.90896721675113,-44.64480336287173,-30.095459376686787,-20.499595889459613,-24.23040896262728,-27.305167953638325,-30.48547063844094,-38.31357210472347,-36.18500269559418,-24.928155864345474,-24.97051307825344,-32.58119847359489,-33.55232064447146,-36.528262647946455,-44.427775437728435,-44.36271401806572,-42.656924076020445,-48.960714728557946,-48.1373351526715,-36.249743293179264,-31.291155808234176,-32.123258978891215,-28.818532246890083,-30.657050821368898,-37.54923124522294,-34.71988373253232,-29.31654031398979,-33.35886229809563,-33.813214638254145,-25.48076317653068,-22.03971917532342,-19.73404757347499,-10.482072367724054,-7.72110022416462,-13.093880719282215,-10.181676746336667,-4.860492913762952,-9.71642564804453,-12.714206901440821,-8.847452212002288,-10.378026506326773,-11.11560026404661,-1.9184919238454103,1.6744644238547757,-5.63173339466375,-8.598747324869947,-9.992822772425585,-17.69180273853364,-17.510898180918225,-6.9149042693832685,-3.4195056375376063,-4.427735458837726,-0.20169952937707558,-2.43511251201834,-12.00041262847427,-11.478885354634901,-5.105423546724646,-4.755706451194314,-0.048629099813441545,10.181661768762627,10.13861768045828,5.999960227209016,10.48988240334105,12.003125511070879,6.175218983338818,6.550428493908897,8.931559017096852,4.096172979588963,4.331969027024612,11.720373023579981,9.807779667285072,3.16881674340884,5.096749765696632,5.594665015980953,0.02998141817108868,1.5384144971513858,6.005576349666874,3.1182283203037033,4.852897090315601,14.690885829198939,16.28175266856472,13.039382769485524,17.75560436743894,19.676902467699634,13.893768394220977,14.852318611230018,19.108008978055068,16.14367797431556,17.677231167299173,26.23267173204866,25.4613901744504,20.61979339352477,25.90247060122158,30.590878144180607,28.199096759638113,29.48186463156574,27.619442670263282,12.790973879091897,1.965046926774517,3.763230191821778,3.9670151429931853,4.411094284321033,13.559036590591797,18.048720958757663,14.356153823578152,18.470424886665487,25.656007120814493,22.80257224484786,20.514554487280048,23.54676770761415,19.814497206566053,16.09133221573915,23.48309009337923,28.051454507402983,23.638926704940268,24.082708560246257,26.379356425557916,21.689806024132334,22.523541881033978,31.207938493216673,31.386227552030142,27.229529165843132,30.150293749534022,28.608756100939488,19.123756561625456,16.33055609745301,15.909265518492475,7.710693579942987,4.56671542160079,10.450396280876722,9.707855337087825,5.413865356599437,8.72696937263153,9.083678040587184,3.424981562542579,6.522971945072321,13.297946975850415,11.29511815203677,11.604822706666129,18.568592118470438,18.664776806702335,17.011179899335236,24.22157869790692,27.131539346378624,20.771018593996523,20.011275528980548,21.568831134103117,15.451605265849189,14.747590122093726,23.13007571643108,23.081910142163593,17.217113894269225,17.769892116397685,14.053585589163118,3.5900808325823994,3.4906526640430573,9.17971877895937,6.394150576748901,5.705572848382825,12.192204905132247,11.336005777551767,7.226945204119967,11.709118961860067,12.624064750680617,4.9279381477754995,3.8350658540380187,6.429198334118952,1.8141748022540294,1.0992286305686065,7.951957821365582,7.767530316290922,5.019278317405025,11.25152498250788,14.258922556304864,8.81908536420871,8.849187798730181,9.731043197679426,0.8020832745858577,-4.11297496991405,0.0013560204086933147,-2.6082204064288868,-7.354594250163357,-1.5595475100682696,1.5770818623231195,-4.9585031858059745,-6.657753055332263,-5.82001541126406,-11.823798045954401,-11.00842962632078,0.6341648532348527,4.220707984459004,0.20324390583272156,1.5663609680433421,0.5156603217083112,-5.402359437981886,-1.1991709587586767,7.484392839589802,5.973874412771638,4.627727307319874,8.405172977194974,3.8098238268195734,-2.4344259535501305,2.952076693394988,6.762601621153589,1.4214400015465443,-0.13016700110565405,-0.8465443782783474,-9.597859226775704,-12.010667988423975,-1.8766361637266575,4.458846077916611,7.307397231278857,17.244063001194778,23.16180797472637,19.58008938173752,21.365769639769766,25.846481742095087,20.232396461336442,14.963688073979943,16.621153212711526,12.358726976725244,6.415410735368223,10.961288247655498,12.88919075116467,3.673359764397836,-2.5755677932602214,-6.558025461339882,-18.01076811062099,-24.53688063355109,-20.498193109418338,-21.721189014500748,-25.546636504430918,-18.54861962973257,-11.457640941647977,-11.631110835526318,-7.284326326916017,-3.344077994144955,-10.625255562982101,-14.44639074221387,-6.851561035662804,-3.2442529635325936,-3.6689315597783536,1.4951887670189739,0.9286492772185071,-9.397978941615802,-13.01220672565142,-12.228466811866705,-19.418788044952088,-23.69800624586414,-19.06911100618319,-19.457388214324915,-22.488187020128294,-17.162150732756913,-14.03483064271723,-17.92227238746214,-14.777401265270626,-8.415821059852899,-11.792525417116286,-15.391761902364369,-13.821163114793151,-18.85862374139529,-25.283307218939182,-22.08046647394001,-22.342373985565875,-32.62931355948929,-38.03070501924321,-39.5340582124453,-46.64180817667507,-47.91341958095673,-40.10509156146344,-39.562954609501084,-42.98081027961473,-37.6708451353671,-34.558906187214575,-39.21363423201298,-37.07290898552259,-30.918563365642218,-32.41966460512303,-30.34074669335351,-19.382399806662015,-14.999541174543985,-15.158533153870458,-7.531487906129908,-2.8881102348515544,-7.659101154245986,-7.31638242154229,-4.160035423302211,-10.05535222230026,-12.486986425337566,-3.4983539157812737,2.511124347539691,6.6266584243133195,19.100864913026506,27.40403511308754,25.710572345765584,30.27699612780158,38.37263813294152,35.206939723608684,30.82873922746572,33.469001745611834,31.48739294660995,29.329928355684338,37.91481573792985,41.77508111023468,32.321450216751956,26.551277594337684,26.13380489703018,20.766704866979104,19.789230809435907,26.084402680020396,22.9003444954669,12.968649254278244,11.318689580450975,10.03938225753906,3.5095504993802407,4.712272279848361,9.212256932276567,3.166352245194497,-2.4737804740581373,0.5820996704640002,-0.5883753197539305,-3.7320414864184674,3.1078015638509764,8.467710353482282,4.599053410039679,4.9432626054831195,7.06355927170635,-0.6535423096813573,-5.645377382802682,-0.03237576017854771,0.9666260961888093,-2.61123932862802,0.835141347692304,2.1379183212135193,-3.5223333888937725,-1.881398592473782,3.1500441660978873,-2.558782375399179,-7.529547623104318,-2.3829451595167663,-0.4432186976570787,-1.5399250242473186,3.3984236442507894,2.1629662825101743,-9.025649329226145,-11.230848343367713,-4.817168133878173,-4.127368718493955,-2.175031179731546,4.895913689478689,3.33618926477023,-2.357086088564232,0.35286454385085975,-0.6099730071270315,-11.443426814243695,-15.69683283744196,-13.658792194136531,-17.047577132535245,-16.631854235212202,-9.188040545090008,-10.829651624847669,-17.6838002731792,-14.999961819756287,-13.191448607913026,-20.03126029498332,-21.570281438751685,-18.933063551425615,-23.41319815284129,-23.284718957865124,-11.486611162321203,-4.924331853532639,-5.394068110414092,-0.8784840412821617,0.27707513489166896,-6.773869169217885,-5.763251953742992,2.0542354170831016,1.7677477438870368,1.245611008190887,6.859867956668102,5.042760227736734,-1.3987801355694094,1.392717962158154,3.851296980987976,-1.1919841315890025,0.08356802243720463,4.976528003238232,-0.23303101273264026,-4.414450959138912,1.3418535318776263,3.751057206555873,3.7138327121306753,11.328281331358639,14.04914740302005,5.22454695965134,1.3096794521096136,2.680325123454768,-2.423480071723034,-4.6030801283894025,1.5157505825357664,1.1913110708228964,-3.334129975405126,1.365444333835435,5.671955566865317,2.787243277596598,5.962171248340375,10.968729544171127,3.4494816300851148,-4.569553895481919,-2.78131012452336,-3.4600993308681547,-5.05941796024993,2.2688466439695363,4.7593978964512615,-4.867289298630158,-9.377618558602606,-7.476085170186362,-10.841097640836422,-9.498901985453562,2.366226393490847,7.8415431608263955,6.488933655462018,11.853165808949798,17.203835476512044,20.330794219029936,37.780420817478586,64.24982080678691,82.81696101417857,105.77128365515705,144.33257334182565,182.950372591939,214.72778582697183,239.24265555305206,237.93467778163767,210.69742874454886,188.44764766994894,178.86006196493184,165.68731114472058,151.48882983015935,138.46600895167592,112.10104513040582,79.46411080955795,60.074861627756604,44.234564341846934,20.745771729778646,1.8317475188125854,-14.532587018066117,-41.1947102910564,-64.80326792723748,-74.42160859833697,-86.02368684920066,-103.46926418635275,-116.38770325002453,-132.5382569497523,-154.62032611663025,-165.4371163953039,-167.0663535546604,-175.3749803758823,-182.9798943216422,-182.75188697427546,-187.46906742014755,-195.1887787479868,-192.8685143348023,-188.9275748263676,-188.8679783257108,-179.25115083931445,-164.3595821953658,-159.78950625858133,-156.59895976848122,-145.87990336335417,-139.53999551117732,-136.3967775278319,-124.79917275974833,-114.85890592700555,-113.71563654618714,-106.57273232699876,-94.02483444748356,-89.73833400287845,-84.93310230126019,-72.12323375419359,-64.8589418205921,-61.6236580232104,-49.63465702237376,-39.40482133992717,-39.024861482792545,-33.69904906669211,-22.911853116114347,-19.096082820091862,-13.553676492697619,0.09145082868714383,6.731055431494645,6.6435879583509605,13.630377103001596,19.264524094212938,15.716265870237425,17.093198128034413,23.707667921649836,23.38806558940591,26.334847319653427,40.2273791777619,48.77726175707582,50.06808210379079,56.53323840386769,59.659816325574866,53.60081054913458,54.9378963907788,63.19462947749519,62.31438285803284,59.573098678934606,63.188304888570286,60.409087885564986,53.17296274551686,55.32241429777804,57.384098575501575,51.42053456919362,52.365209101847455,60.61687472739962,62.01133381123823,63.64254712443552,71.84777408503952,72.05973420032922,65.70715226418031,67.51819953257889,68.8691348333198,61.88292558320035,60.95680861621036,66.00825593776752,62.859692277135515,59.183377234750516,63.47877952597655,63.15869923563025,58.98204113836947,64.03568320861508,67.39706927236209,58.517303682167416,52.56069348919388,53.619205317357405,51.37139892092232,54.051920163722855,65.84342623057171,68.55928494546764,61.323667319664395,60.11724248674346,59.53856086004296,53.137856633231216,54.09042699272429,59.87547552772687,55.27512989035101,49.577377271593065,52.82762052891567,51.969767696444165,46.41860344856388,48.407311317518875,48.00231871507263,37.16586352367296,32.08311262833915,34.90492973188675,32.42221552931555,32.032070259639916,40.30223956991807,42.218422073575,37.313399715082134,38.80753401244163,37.87924956505764,27.100553280418097,22.02416932364276,23.731478693675662,19.093704249026352,15.805180861623876,19.70442693237611,16.031028575902095,6.816292322879116,7.378903527821965,8.89229908250725,2.132039334276124,-0.3821101547482262,0.6617918237262309,-6.655019382089565,-11.387573944877182,-4.7905990552850275,-2.224389519339341,-5.928851555812046,-3.991411696871496,-4.621343165034524,-14.24013662929625,-17.40462244793154,-13.687445798757565,-17.480770027198446,-21.12481712073541,-16.35230011413507,-16.370915308314462,-20.613136837151966,-16.305183260341366,-13.824001346765296,-22.21247918078975,-26.6301577810916,-24.79942346858109,-27.590429433199592,-26.039728745407864,-15.697793796560306,-15.034952847934758,-24.961149731532355,-29.201078148257874,-32.5328906750274,-40.77300831913565,-40.005308641686106,-31.8959965917524,-31.492581612340604,-30.275130310065528,-20.42803808924326,-18.005167915096774,-24.413419519698625,-24.734028489336076,-25.00383705298396,-31.87344806888102,-31.420042528244075,-25.26742594131851,-28.856867254726293,-33.63653305496274,-30.128916915948427,-31.205479050643365,-36.07336706931686,-31.34035234473214,-27.2613179644938,-33.339464509748495,-35.15781327361365,-31.628822452522886,-35.62807102985287,-38.21520450708146,-31.33216120307595,-29.721315972452345,-33.650899978320425,-28.517796866374134,-22.899022120658447,-27.309157015252946,-29.288539272904547,-26.884888934270116,-30.395675663609218,-29.848825808391872,-17.86795338948483,-11.558035296561911,-15.042881993447004,-15.570663692278647,-18.93334297259587,-30.24106145432256,-33.39762688015544,-27.892464961582505,-28.513741772616605,-28.086675771255702,-19.952445162076557,-19.453459835047532,-25.770406660990453,-23.236447571001268,-19.896924544348256,-24.751253643897346,-24.258528077777274,-18.429640116790726,-20.716101765236925,-21.598185797732675,-12.402048417228059,-8.822672108334578,-12.701960697269662,-10.286064581472441,-9.187828295320593,-16.872804171201764,-18.752154142849584,-14.539406117141404,-17.627882095736894,-19.0054258176962,-10.759528090960586,-8.078471576026264,-11.909383703013855,-9.238332014321863,-8.89007493060186,-17.960051028999306,-20.383508720261187,-14.77768793908648,-14.410381485338997,-11.617503816458544,-1.1832781481242067,-0.24229925404581687,-8.644768227704807,-8.941318721091474,-6.012310253473611,-8.626828948257725,-6.16223439187387,-0.7798256769739982,-6.452903854302706,-12.64262678782751,-7.092045437610933,-3.083758635092199,-4.804275865707255,-0.7039210459549619,2.256085132797819,-3.6171834528455067,-3.682860531248034,4.065011503622067,5.138942536116243,5.260188654570895,12.38299544839951,13.228887699915404,6.950174609276154,7.563158842567364,8.789525761067686,3.4067339009014193,5.212118662221722,13.999828844176953,14.44286678632702,12.983181079284037,18.185771757812894,18.109844738379234,14.115650505410347,19.51154755192123,23.181853821628373,13.893708698985693,6.419807140280334,4.8904467959990745,-1.8255249881115874,-4.6753931345968045,4.565312793968321,10.046891814096995,9.666435051479679,17.084405573396268,22.678320276882097,15.456583008314766,10.53942345117948,13.149556603938214,12.005244767749739,13.482530358917142,22.949394524551277,24.11026325946261,16.18308219063782,15.591401857539292,16.775763847862798,10.221874617931531,8.020391447035102,11.958367450164655,10.217595033194545,10.476897706582264,19.150643253646752,19.901653811353025,11.358094235470892,9.428443875148762,8.393210073732352,0.10393810312540497,-1.47520512194014,4.483960158670717,3.682790864055997,3.4431776402088174,11.261920213421067,11.700490322590053,4.151789885101913,4.801444413571046,7.654577511820991,3.531066036755869,4.56456367155845,11.005355644167615,9.09411951966008,6.138338076949365,11.048359069070012,10.506478435826818,3.2152920692201175,4.183535196574389,7.982833355420918,5.610912392033354,8.520942910893414,15.747767808699011,13.106125664779427,9.960731222005254,16.673723487035833,19.144405933611274,14.984248348217665,16.85365526703189,17.1090792942748,8.371320089241902,5.376571310906934,8.463862522905806,3.1378666721896122,-1.4149325869623717,5.659405578284101,9.97393967357826,8.127368520186353,12.39919445791044,13.818209356038306,3.917646220856846,0.06507048399830861,5.609496213467639,5.222794947864713,4.595987799820221,10.923442493363442,9.237163956678268,-0.10842379443576666,0.07308072154554734,3.5394539283446576,-0.009075396168316097,1.5411038427829085,8.637506878721577,6.759658305908954,2.6892483917488783,4.847221613231854,0.2068062875098664,-9.58086348097908,-6.751204588013146,1.7846605396939128,2.475535500393434,3.5147326485186055,4.861042403851963,-3.7093532143624106,-9.026749137003643,0.5563781201334814,8.073452072315142,6.731298804798817,8.272899661022269,6.789869400734876,-3.8032438010243306,-7.026435181384579,-0.06579637250950432,2.24114745185979,4.583743252690617,13.265504036578415,13.254533961945008,4.025351535791851,2.359148572755871,3.6428831737807137,-1.2855010419212696,-1.9837358096175828,0.5814579443668928,-6.2458095699205805,-12.245042410634387,-6.5932862163956285,-3.2789768452649266,-5.841781034537187,-2.1310370688674323,0.20425712259861206,-7.231362029735929,-9.397989560605922,-4.059493329623482,-6.17648329472466,-9.314345755891594,-3.64866751676328,-2.4465599686485118,-7.808200873797968,-5.198857587593584,-1.4308418653584702,-7.066352934546368,-8.52852033977035,-2.997122507331971,-5.350564186383357,-9.570847983798215,-5.700976152070612,-6.112610181517403,-11.572288921941576,-7.855268672574541,-3.526563812180314,-9.479358617022168,-11.448811863990578,-5.485009457257872,-4.6702412859637565,-3.3506002224926887,5.3860922837511644,6.537736901744615,-0.9473466448636483,-0.49368289663383047,2.588793336269118,-1.513679618664861,-0.7635182306584591,5.391395783493067,2.6409809661555705,-1.51187198109053,3.014412461224113,3.5643434418181332,-1.81420252612575,-0.1650331044716562,1.331393606073195,-5.832769252161073,-6.954016690087174,0.698555828572974,1.8742128056184728,0.698586001084747,5.034213049413949,1.6561686391347084,-10.179474721440732,-13.89534057455263,-14.028179382557248,-19.40259619349431,-15.983033060497887,-2.05696635695036,4.848457213464791,7.5611713155349065,14.061934776119704,11.374435106130994,-0.15295106453751384,-2.5643031357950044,-1.141996250236136,-6.832691784745214,-7.085757886861835,-0.26768028811475153,-1.048662665312222,-2.0795980502391354,6.410413009357374,9.995571273191537,5.852024837237751,7.515175003239868,7.442791867906726,-3.639388253884391,-10.260066315302867,-7.9396457047322695,-10.063246013180416,-10.84449973712597,-2.435752549060649,0.16966936894184198,-5.308948253026154,-3.475978340527017,-0.5480556927551057,-6.8420473965248645,-8.682220293189003,-2.696473110115179,-3.3516703729565487,-5.401055273256079,0.5802218047286853,1.763639308921824,-3.3873809267771797,0.5455587358052236,6.383096905498135,1.323529282390727,-2.600096532141109,-1.010587993762341,-5.720743944964873,-8.758199951826636,-0.11398457748102597,4.640739269469586,0.10758960771845061,-0.15111655161361304,-1.2379591129907785,-10.929410966849584,-13.623222323325006,-5.6394483051838735,-2.626171433043513,-1.288096123346446,5.958662268978363,5.4981259083670775,-3.7659863982099258,-4.862787942985998,-2.1442008310342944,-6.332092195508151,-6.392771697518111,-0.4306791676959394,-2.2152279650868083,-4.722791195084135,3.326723871068013,8.357625035228892,5.172084694039322,7.06686592162635,8.681970993405786,0.87046357156186,-2.245064589713281,2.7477774494632774,1.1691725965610869,-2.1897111789490875,2.2094571979053215,2.3152378875392747,-4.500586997379394,-4.663653181610377,-3.620392814913325,-10.751881468987438,-12.738995386981983,-5.825690530546593,-4.2599489881958315,-3.8072877504592357,3.944226959512687,5.64419705395198,-1.2357261741792267,-1.6867633538514144,-0.1617933657144286,-5.370103700117205,-3.940893341701508,5.79663835829885,6.955226987646734,3.9422035742287056,8.150577904586031,9.151632159855101,5.507445092348327,10.869073413661365,16.923956338825715,11.212089463775731,7.373476459720212,11.581991218990202,10.978293704057489,10.079129629284653,17.738919453027854,19.872025712820335,12.078373390811983,9.252795902854848,8.094382786900313,-0.017547520979150466,-1.528627516991404,6.901511687381358,9.065753312031688,7.206978706669462,10.486485317633663,8.718332032296466,1.9991721115744765,5.385639526445112,11.617218417899881,7.220669419476971,2.0974171438949325,0.42569957938274633,-7.559999007331975,-12.533125801608293,-3.780401530190647,2.5830316859049747,-1.2413052461869634,-2.2779496479742694,-3.239440850124368,-10.032576182446533,-7.928733556370352,3.0698682334249443,3.5562210283694324,-2.226601881062913,-1.0043657112047701,-1.594299795903663,-5.067636207402129,1.356823733461197,7.716249266936809,0.7576394198533785,-5.5677523246448075,-5.077937052557742,-9.857123028726432,-12.91238320554006,-4.451045337103867,-0.6426499513471331,-7.306623098698398,-8.750955666963973,-8.023007921628313,-14.262881369516645,-13.772515835182748,-3.9190408699499466,-2.040352324242321,-4.212830008624279,1.1793437280066406,2.7302350583915276,-1.9973807359063127,1.6418275598671561,6.384733092168696,-0.5746968121478093,-6.255480098878814,-4.3093238161855645,-6.58525159564693,-8.156622070933714,-0.7976286376787907,0.9738435331820964,-6.80829713613922,-7.949020413619353,-5.226301313987666,-9.69915870955904,-10.84535287256286,-5.380051548722496,-7.453341001973317,-11.459976381261118,-4.811007694366776,0.7924008978221337,-0.09623289925621514,4.960342719073225,9.200990982098705,0.7668244714086749,-6.260090962634159,-4.735235090978804,-7.23638294515272,-8.979319160882214,-0.5406974597566618,3.798785227416509,-1.0559382554665238,-0.9690638996624081,0.10981599305490253,-6.204478061371171,-5.992581233007,3.1637058502084563,4.0849627513390345,0.2500603109498347,3.392001476286214,4.038843990539507,0.7312733507233482,6.984371558424286,14.249062505273553,8.803480015484986,3.6695963205778526,5.514715921704735,1.2226248042074175,-4.226772612068137,0.6491933909822483,3.011942657235079,-2.801763179096325,-2.873908161519344,-1.7437453233999798,-9.659030588446285,-12.23111089335377,-4.28825973720409,-2.1486846080252957,-3.255224058337855,3.4725944397432267,7.210924950949044,4.739955027200768,10.00544807065139,16.614961295106404,12.421500655200663,10.431050011923555,15.88090196417231,14.500935917234628,10.604602362693962,14.810300975302995,15.24352287512605,8.519653826794162,9.335344016746902,13.201910253875505,9.232013057068283,9.66494483095818,18.06764587227763,17.911915217698958,12.652799687979668,15.103613150805918,14.642527030000041,6.760344688211222,5.387324315020871,4.89929030196335,-6.32873582767703,-13.528266600504548,-9.14001796907719,-7.656131831910425,-7.270369065532798,0.2934759258041022,1.3707261528162995,-7.955706775818317,-11.384117328440484,-10.630393625055241,-14.557834928490369,-11.745166886109374,-0.7402069722494407,1.3457938201234483,-2.4638225978828787,0.14453501911749278,0.3042509506049814,-3.9213438073390243,1.8193978158352717,10.525345105117399,8.18622287836221,5.949670781575353,8.760464251249825,3.6471350585738955,-2.9733903602780147,0.9958943178797854,2.3315915679143187,-5.048228373516255,-6.833984344679534,-6.5720624115350645,-14.74481449718672,-18.620175084490104,-13.549982659959879,-14.560784754811056,-17.966391051366998,-12.975594344846334,-12.320113184105722,-20.44602303260579,-20.50595697898387,-14.306501372366455,-13.733314254186213,-9.385786106135567,1.3179095433418508,3.5062537544303263,2.2536561440198506,9.59383192679251,12.933791480532602,6.08621366501546,3.6159881789209334,4.04488787599869,-1.9600210043374173,-2.862311932529334,4.619698202214347,4.3068162981936835,-0.8002153322957299,1.2577010651621607,-0.18529572622534896,-8.909767481202882,-9.435556000838542,-5.446513430471473,-9.012804094328247,-8.769484319135781,-0.13356515919968714,1.5888467986849997,-0.39353876213778394,5.314129991570112,6.700797842594696,-1.0746930381208446,-2.665498185862153,-1.5288472191869582,-9.316795648331304,-13.628708062570416,-8.52314703592454,-8.272270017109694,-9.233535897119006,0.241032811707095,8.944333296625853,13.008070006425251,27.65111084665439,47.849281872855876,61.54947372273007,83.01914629754305,118.97692130767771,152.3218746417446,179.77149396909263,204.60662832427053,211.3669044198879,198.81491003918703,189.42865839958668,183.91608346185046,169.38510992278594,155.1918108285234,144.93472447000005,122.75614626466307,92.13996822384206,66.26852898546956,36.23364597613511,-0.15529191425785882,-26.875300122431007,-47.73892896965304,-74.80029480367527,-95.80096118757898,-104.57062835747661,-117.1912458131984,-134.45666045560247,-147.19374815979359,-164.6947470372534,-186.66745551569522,-193.79370881149663,-189.78471614959147,-191.67505946006588,-193.84615400128752,-193.89308027553557,-205.0859795994985,-219.02596395243194,-218.15714297854822,-211.78669278552144,-207.87437041872033,-195.91884037716488,-181.17484343742316,-174.61220883572548,-162.6593926405936,-138.3366425567066,-116.80991417680559,-97.49967662157442,-71.51291561353214,-52.65353622518411,-48.17924799033717,-43.86892101157183,-41.26341314802802,-49.58575255025174,-55.20799343620175,-50.9624468228192,-50.62240466050941,-51.49229191228358,-42.59007083007694,-36.69183590296735,-41.49818843966544,-42.09699597076714,-37.51924203786895,-36.82832364762071,-29.50029926183072,-12.093125782639012,-2.3815261971938453,-0.2800831709292227,7.032655653903202,10.97893548443196,6.229398081918971,7.56455187794912,14.48169726937522,16.99187583300962,26.040906424248362,45.06956833358893,55.56149822282042,57.704883367332755,65.65591358830403,72.95496714586953,75.42271475876397,85.23198917704389,96.28330590406617,94.89336211480133,93.29887173722274,99.44419043272728,99.47660194847904,96.37287312915011,102.61216890189078,106.80536328710294,102.70543844646,103.57922035475401,104.12576360206448,92.90405927031071,85.89973310142928,92.33278017382212,96.40889069608909,97.55819452428456,104.55399520551572,104.12403089849602,91.76054580592235,86.76052177678277,89.69415737705448,87.43886725167,87.83374669779518,93.17696684178328,86.33192609798986,71.7734962077087,66.99354974336124,64.19533098291426,56.66264627347934,56.70474249751469,59.65693373499919,52.634264824264754,47.39070468978829,50.53986756009621,47.43413269221703,41.31397174511604,45.8285195384339,49.694466105429186,44.02915997011589,41.356931662383055,40.06381903114073,30.447190958808157,26.054983553231114,33.46987081052247,34.45482571950321,26.994839793368527,23.071878521827063,15.17973881936149,0.7694215961245385,-3.38440827400313,-0.10788932224179715,-4.978707160217155,-9.895895333913185,-8.06981116814978,-12.005162134554325,-18.37423307827016,-15.513956995073276,-16.092790104501688,-27.083131207295043,-31.484000424501943,-28.518649910462166,-29.927577032696746,-26.7907647331109,-16.01943372819309,-14.347684227049422,-19.119419754413855,-16.49358513360712,-16.089308698319105,-23.46089661076659,-23.249084227626234,-16.967196943997404,-17.960945753282278,-18.589520101495552,-14.33457261092196,-18.172617761432974,-25.673486158136864,-23.68390279911879,-23.162364075352052,-31.605301228289157,-35.019034466114654,-33.69290739174642,-38.25908392337416,-39.48226959504497,-33.19546070462286,-33.532397542666274,-36.427179106865516,-28.991036941493682,-23.65460835982653,-28.958810980007442,-30.893508426828205,-29.962845172248038,-35.25425880766604,-34.234648341648914,-23.080366006571335,-20.159022632624616,-24.568773913955372,-23.211098730810853,-24.455118229537582,-31.67484328527818,-28.96944475023603,-18.42961178299153,-13.14143216467328,-5.45426735712369,5.965496286152523,2.920846967765812,-11.982305475977345,-21.57265322307497,-29.479827679953434,-37.39079394946324,-32.30299948263672,-22.24251887265594,-23.840032787478822,-25.843777512717338,-18.89721201700024,-15.667849292127356,-13.993809791383027,-2.9208188644407054,5.099745479216114,3.674919288517425,9.44245800172098,22.661126078880955,31.71705081446629,45.73336338937126,67.82679981705766,78.68224606955405,75.68011342711748,71.13201562001522,60.382966874462454,44.206875713556144,40.96945981843317,47.897504676943996,47.58948050686783,44.67300073336039,43.982422954302066,34.44001063526703,22.7313845040047,24.657050495504834,30.07422451260151,28.883549285823488,31.313309779316658,34.932396747808696,30.551791768991137,32.518897880887934,48.14289014673322,58.82084445273885,60.63588757499264,63.2877287613594,57.41506989262817,39.75862806099184,28.673445941940233,24.942007800183855,16.810397786619177,14.350355474972206,22.261909828329333,21.70756014634733,10.930190193441504,4.167792817702129,-3.931318848838356,-17.088731554777215,-21.02254789219744,-19.609200628609226,-28.647739664807908,-38.931407689331756,-40.69239701239853,-45.064606681497594,-50.24669424838563,-45.6758151563262,-44.44220730187809,-54.28142871829326,-57.478203938968946,-51.59503197313819,-48.19124033754128,-39.16183024678506,-22.589087811393288,-17.757949005574066,-23.56198337999839,-23.551380430314875,-24.641508814236577,-33.34520735325099,-35.63127827351725,-34.135239239930826,-43.573314055287774,-53.19780658861856,-52.9997409839261,-55.548783174804086,-59.48101218669719,-53.36360032804728,-48.856300806530825,-53.54909610737596,-51.901846436951274,-43.51942012458136,-41.49625224034236,-38.423855148015065,-29.321112539388864,-28.47064424664195,-33.42076512899597,-30.59975981406629,-29.538232081094357,-36.95955504500439,-37.83418276511418,-32.79914902054018,-34.89257034340452,-35.68969694441838,-30.58395338873972,-34.73975461419327,-43.89801431672996,-41.590425386428564,-37.239904450813384,-40.12942310780768,-38.597439171335,-35.609498674183975,-42.85498361198024,-46.96157094085606,-39.87548559583298,-39.62110102163796,-47.935120573516436,-50.074368485859154,-52.23234731220875,-59.80264309567839,-58.1369612212692,-49.524918931197995,-49.62368802894408,-49.65162206931379,-40.794642569703115,-37.45076368236968,-39.70976655583758,-33.526497450208836,-27.352292493201894,-29.027338048791016,-24.969321708725403,-16.68492842321141,-17.698229218351823,-18.67535609796409,-12.617441194027993,-14.484246748476012,-23.14103967196882,-23.408512488834912,-22.89760380819059,-29.02871863094318,-28.00309479686974,-21.528609552778946,-23.788283695144514,-24.574412766923196,-15.14628016976532,-11.426011798039301,-15.842147363001958,-15.873410724723893,-18.6070583454399,-28.220784126159824,-27.143331621167135,-15.57147381386674,-10.324528543503119,-6.1372604070149706,3.450749580215144,5.383235160379753,2.070824434541507,7.675836712423643,12.719605368253102,9.355079115618256,11.693355656079362,18.45232699192201,15.994723340939732,13.91469157948878,20.239530805035816,21.226355868902107,18.148281801185934,23.885773938324025,27.651981982052593,21.31135748325682,21.064650601937217,28.00974670701353,28.31027185497507,29.936809682736175,39.05758487327779,40.53492501428991,36.61795052668759,43.05434469742742,50.920561971953695,50.837739855034336,54.906497276356404,61.35189125580707,56.98064595509695,51.69303455546326,54.65538945411603,53.13548637981107,47.661563862089096,50.525332084349415,51.535532386129894,42.58633983709496,38.4685084063017,39.661649230475064,34.5523686520494,33.502768854999346,42.16872987721865,42.60472366979522,33.27648204656646,27.56932274028957,19.882156701451557,9.00953895384863,12.538211572722618,26.940520265619355,33.13065666441677,35.96036705548255,42.179065217199614,39.33993800294275,30.647703591250735,31.74283697573534,34.76652866049668,32.27859850585332,37.71329603122741,47.97634373426263,46.433271431711425,41.07415360604553,41.42331959490974,36.19191919289834,27.90008524518125,29.626801157560045,30.874964279266674,24.238549242592022,26.244142087267807,37.97675565487192,44.92467513292215,52.45780000898901,63.76397550926819,62.55116702839089,51.730652534900635,49.28521476791775,49.06838446941396,43.365536927616205,44.662759763192845,49.47507582973677,41.58631299659502,30.572069556477423,27.05566784284458,18.808697238253593,7.931454938208455,8.661728264823223,10.00950829714495,2.0917072223238846,0.08276073583377974,5.634423546467335,5.793302515774407,8.49500560298602,19.23442966002236,20.84397669183786,12.794203910014522,10.869814572088027,9.011986510969642,0.0899684149302149,-2.7663389035775245,-0.17479403804603377,-3.8271836045604903,-2.9165310486256133,9.768421889603323,16.295663006822863,12.955894250317137,12.74657287268974,10.399856572958175,3.0132315628880857,7.080553638309359,19.614467509430405,22.18076465141345,20.26683068086958,20.31442834087073,9.164820830208097,-8.236023006926274,-12.277311596815712,-8.525891979922744,-6.378671117728386,2.6931888431359114,11.885051805594502,6.212686971854083,-0.8809027119706943,3.2907464107354154,5.614110961544718,4.328483838594982,10.149131695880135,13.394340500611865,7.411036100018643,7.225003842543713,11.621694745809897,5.775144304123115,-0.4004980437609704,3.5514288377526895,3.4910338790886324,-2.493330390688318,-2.527947830364957,-5.680794114087161,-17.522310254092726,-20.14031675971147,-12.788209528341518,-11.514997284816326,-10.866713798907783,-4.230816310468329,-4.382130953553544,-9.28700523338825,-4.766270746309398,-0.5960769936972543,-6.977024770634886,-10.119900740653602,-8.186908161686297,-14.090729754647896,-20.312714962928105,-19.460512110465423,-24.899062607443895,-34.41075827056601,-32.189280350430664,-27.11555451390159,-29.676292012102095,-27.166983369844935,-19.40214325766122,-20.218492275884955,-21.964844628051928,-17.149772671419232,-19.58983152482235,-27.90043745167958,-27.08338069145126,-26.02709163903865,-33.532908312261014,-34.190391724958985,-25.944683108567222,-22.43915328978093,-17.549435103840025,-6.129222707512265,-3.940262751303101,-10.67411827424234,-10.654554341449186,-11.174526861316759,-20.91096818894172,-24.383158534295113,-18.326746690238508,-16.352935262239328,-12.208546204014048,0.3515258654201343,4.285752148116455,-1.9818535640628885,-1.3705624133154521,1.3320755666855242,-2.4706635115583424,-0.03726309828909091,8.462354133306235,9.363457502966446,13.674571678749292,32.543035243765814,48.99173246024015,55.649160027020066,60.91478670534677,55.62594790952046,36.02784904489711,23.571251819193208,21.500044255769655,12.314746057607087,0.08419079869937063,-7.585784070099935,-22.786781379334272,-42.60498468685841,-50.871696892474446,-55.45170359400175,-65.71582669220301,-69.53165588377142,-67.64363575533669,-73.38155357473431,-77.87061660882985,-71.91261487605348,-69.32013575601788,-73.04023929096518,-72.15290756513511,-74.744013206735,-87.13710347760816,-92.10575940484956,-86.14246493766771,-83.31801466866723,-78.37658502227741,-65.95882239765194,-63.4954111362295,-72.88132454374274,-76.37753276203998,-76.4482410837746,-79.26440591938675,-72.13876513073262,-58.01520105834412,-54.36754048331066,-53.823411768762895,-45.067657539084806,-39.57417344100218,-38.91235660257961,-31.836017873126842,-27.953969588680298,-35.94259590657753,-39.408853242559864,-33.40970440540001,-30.559948801670796,-25.698912021365572,-13.378220990845877,-9.911389320421332,-17.080940336698408,-18.628628775175596,-18.215884593914367,-22.732845842727464,-19.30604202460615,-8.672146996127168,-6.774032842128725,-6.8248747828514995,1.770305045726924,7.0847321974954305,7.803032984596917,16.40217805368288,24.181680021768734,22.20501522497544,23.744350100184473,28.331086990518273,21.609661472637214,13.658139665954689,17.09607188009474,19.822763280462084,19.419458732670588,26.711506628198727,31.293532257078155,24.76187843097168,24.250606091937726,33.028906732307064,36.09147374097918,38.70060968711579,48.18652428624691,50.46236379272431,46.017062275265886,52.0654381918381,62.49335547469032,65.21951671270847,69.01679108311848,72.85351359429772,64.74113075464282,57.02202395864394,61.97352515559851,63.825506847337834,55.84902030328252,48.94415867563663,38.827170074018,23.082046056218488,19.29226373673049,27.616694268573795,29.331074693716438,27.077749776706185,29.800769876735817,28.746090047927172,26.176158082407746,34.53404769704366,43.41612340823228,41.400463956913505,40.324231252197215,42.94804715185501,38.77664014204549,36.39842808530507,44.478067568383935,48.81725971093542,45.740387886824166,46.500694095656044,44.31222731465944,33.399440632428,30.594927090415464,38.19614685937226,38.78795780722493,34.508774369397734,33.24414355571432,24.7683471201519,12.328219752903063,13.043270399019587,18.67032745663004,16.452886527125607,18.981906968469364,29.223424052271064,33.246310402653265,36.92774685701333,47.22594046355104,47.56483948631276,35.691096521417926,29.15612551483521,24.765167701005364,14.470932418754188,11.965848699696508,18.38023191902856,17.03687226559184,12.728880207861103,15.907035733278924,15.449089273400311,10.154998733803383,13.717712748238752,18.38714385651562,13.063140776869947,11.522399101132274,19.624167732348617,26.058785200518855,35.584790032200395,52.55938907030098,58.317663278210176,48.833218810402876,41.93453865523469,37.429091689526985,29.630598503248745,30.674431891669695,37.99811608286577,33.531586866753834,24.07929719286635,22.384964171892527,17.442502857390366,6.91786900499017,3.607488890268092,0.660020280800045,-9.540364856819265,-11.588458808864477,-3.959151384580556,-3.991180116747656,-7.853135255635178,-5.557479328183458,-8.167353440802156,-16.77676219491609,-17.67086421424701,-18.421918579522963,-28.976034835263288,-34.19942440324902,-30.042987950261548,-32.49446764993925,-38.07010033269147,-37.13190007606837,-40.70354361301756,-48.92298492920311,-46.61716585524944,-41.107697780258576,-44.845642212000016,-46.86647419634258,-44.219728705465315,-49.26071361103046,-54.7986425868324,-50.232034306569844,-47.80508090985655,-51.78085697360546,-51.960488633694084,-55.81941579695425,-70.08541820010618,-77.48880926954467,-72.79750391044553,-70.05470636932986,-66.43651681296974,-56.89890071883441,-55.7667116282732,-62.580029949271704,-60.56951177309663,-55.87411677669183,-58.59639449743976,-55.98101657291256,-47.146117091922676,-46.9938737019572,-47.473069021141136,-37.43804158661892,-31.12994300657956,-33.16638838016553,-31.278039466811535,-31.940262165339007,-41.5755344807323,-42.06947442015072,-29.760204140851457,-23.272212705400438,-21.875161507841046,-17.635119224200047,-21.259838966310973,-30.428942858566494,-28.163658236767155,-22.901027401402942,-27.695922036280624,-29.52714855048098,-24.15669951318262,-24.701853344425523,-24.33629202401947,-13.05471993959097,-5.660252440593984,-5.984292218057588,1.0622191078145509,8.346833375031768,3.252607875692535,-0.5901432947528671,2.322287555681812,-1.5312763481895226,-7.111072867445632,-5.312541383193633,-9.543036748399619,-21.119465109272298,-22.391786222021977,-17.06090951669226,-16.236588593582585,-9.82852828713293,3.3031233011541565,9.235313741962557,14.033130459152316,26.185594350224584,31.076899511151087,25.597330012810964,24.776052080965137,23.91534790720878,14.699802988360512,11.786472871150202,18.102533908768567,18.13197144286127,16.160845060615234,20.21827805335029,16.350025773345976,3.2146878931215213,-2.6355803908170623,-6.262339251690698,-17.566147183154737,-22.861213604423178,-18.599060176722027,-18.554545005926684,-16.745195657296982,-4.658026609389388,2.6231490738707284,2.1008073921038637,9.429845975613247,19.278974243734496,21.158601609336966,27.591098176078546,40.484667688446,44.304803445060905,45.71794642015797,58.088429608946754,71.07853586066054,82.17798649067618,105.68761755433778,134.4822968726208,154.66433916164272,177.76960454819528,208.5892700560953,231.60036121456596,248.116462581443,263.92392743162344,261.75694939234756,238.46572634865197,216.44727974625215,198.69884951063966,176.625265488888,159.55576699651377,145.36356446283793,116.68017190886863,82.47036485679115,59.17582251906393,36.484296511764825,10.069722800935848,-7.743534437523138,-24.13750140535918,-49.84842939826886,-71.80268402945187,-87.0113146083736,-109.66702214791016,-132.32745852537235,-142.71466953959506,-153.53076440325472,-168.9311183617547,-176.0133421703818,-181.82265823501982,-196.93003481807978,-208.01277824124617,-210.7883156404007,-218.0659576265024,-223.67598534215827,-216.9672001916917,-210.81172092223554,-211.16268839346685,-206.528934119234,-202.14151693628875,-206.53101587357258,-204.35660305794613,-189.79252046035091,-177.81077714424433,-166.04279192312845,-145.4532118757026,-127.39771474605381,-114.60374963692047,-95.26561691574575,-78.55760029205626,-76.73249188380835,-75.43184817998421,-67.4289747997448,-64.75603146015828,-62.839831093678434,-53.12510026339433,-48.826809525771964,-51.92875716092698,-46.61730769762521,-38.896779468357714,-40.528045196478814,-38.34682824667847,-28.140830361607293,-24.994234811010205,-23.847502731965893,-13.371718898989661,-5.979413318851936,-5.09531415858198,3.6293427291787688,12.891864966305652,9.641249698589693,7.188117769451102,12.130635670334886,12.566821293967045,14.739091393947433,28.369758217303175,38.303619542665736,38.544035103842575,43.367318517013395,48.86272545077841,44.68177452137962,43.69529606601975,50.62194535069015,51.231837525427466,50.68849212805774,60.11814753495099,65.67231305167613,61.00641398376908,60.27969053711601,60.9199160737418,54.21651822893077,53.50654677370028,62.25027832258504,63.24309287972514,59.30692926984398,62.92607542015047,64.46821856399195,61.13952910431649,66.4372112924426,73.12373317824967,69.01649647372324,67.59495946562018,74.5156043192255,75.54657286305753,74.27965389264287,80.5367093452514,82.21432125477479,76.51369243719371,78.81918569034451,83.80808785429181,78.54688797348885,73.48162984091766,72.73279955008594,64.15667067226774,55.4236239844124,59.82380851226129,66.45981544791958,70.13843998231576,81.36800323768063,91.58203568624705,88.36241500569561,85.20151973210099,89.1764734508821,88.26233496265974,87.04489242954499,94.10559512574144,94.51510344640877,83.38753546359452,76.70738115809246,72.18510742265389,60.40816124566495,54.163707508980934,57.42435567016995,54.66726525049989,49.22090564217263,51.83146428788292,50.72529523929357,41.770836995054935,39.14929917559212,37.91021467597069,27.074452778632452,20.35413429173075,23.721975007396797,23.04109347838183,22.262170098214533,30.829837974096588,34.213946438683784,27.344280284478963,25.426497227222008,24.50210611401259,13.701584603438896,5.70347409548673,5.840227690378503,0.448850183001968,-5.775932620383797,-1.869280409221018,-0.9863310150898152,-8.62213006121113,-9.926504304565418,-7.9448340924328456,-13.160170632678222,-13.843751225122546,-6.431042075628416,-6.0921021590452105,-8.422628012922054,-1.4742596535177,2.976845790680948,-0.8054561638996045,-0.21915226328194626,-0.31309964091255654,-11.502509991540768,-19.64869682465496,-17.898196994852963,-19.635911964750015,-21.556631832223708,-15.167726570035292,-14.66713172498975,-24.350559975372466,-28.29485308071432,-28.899697051772016,-35.05989927301183,-34.17558541261205,-24.079517336418334,-21.593417908822893,-23.28133041434913,-17.90398205025419,-16.427901753503722,-22.333376859218063,-21.28766817008364,-17.871893635586012,-23.19272099318248,-24.921103820675725,-18.036900510045747,-16.839172969980314,-18.27751086952981,-12.962548212516463,-13.22267076213262,-22.450753213165,-24.769466813325646,-22.640335916271347,-25.929163110822753,-23.614274869931574,-14.377097759854252,-14.816125283988875,-19.90217665784061,-16.660310572411948,-15.831425367014548,-21.71691879535497,-21.159144105097667,-19.409454066758805,-26.651187958340827,-28.75524508695549,-20.295515333098496,-17.70252151711083,-19.817990415764257,-15.918912220853244,-16.60963223500669,-26.062775112357997,-28.911270372238146,-27.22230294723937,-32.15472664198778,-33.28194557086624,-27.02897062041462,-29.232113437927055,-36.23064020301634,-33.65711047901068,-30.151558106913516,-31.716014628751388,-27.781518899540316,-24.5370204995152,-32.03459628968263,-34.46304419949315,-24.325685980918202,-17.75585992707289,-15.591342141490214,-10.292319279458923,-12.994778155393275,-23.52990575857781,-22.412830512518966,-12.67215420848256,-9.562917909894994,-6.620154060585392,-1.712568600104309,-8.013476948216693,-17.196024812911062,-13.192131472203732,-7.320805833325007,-8.29676439680016,-5.3026270840148655,-2.9874897250349908,-11.145170425070924,-14.806397774870467,-6.927273496437634,-4.093754205148153,-6.076705438440307,-1.4292777310740337,0.24177884290109652,-4.989550318430612,-2.976071559946897,0.947136751354295,-5.839213993532393,-10.190839915903323,-4.481744737921789,-1.6405445036133024,1.3858155594779793,13.174871224730346,18.889444798859916,11.942909142986016,6.572777758372691,0.69067080184508,-13.371663993041793,-20.58364046214343,-15.670923140291226,-15.352022514712326,-18.44959316380388,-14.799463339318013,-16.423354423006586,-27.958407741557536,-33.6564508388507,-35.32430435152654,-42.18429912951588,-40.58993985857607,-26.335616807868245,-18.443643818116378,-17.873337399010474,-14.069857965199557,-15.927468735385576,-24.23686488385166,-21.808563686223422,-12.800123499745563,-12.077268325223132,-11.777334613099496,-7.405485104298455,-10.784735867583665,-16.204520532891227,-11.983067248300655,-10.174033633143736,-16.61193741171054,-17.37364828643308,-14.64558385124412,-17.772968370872167,-15.138956221990451,-4.026044716835077,-1.667395844232208,-5.652789561802788,-3.757903164241824,-5.920894124047093,-14.69424475129855,-13.900405627929906,-8.64078152931106,-12.738389849342589,-14.23315023782623,-6.881904736097594,-5.926486842539238,-9.70383184938223,-7.760207252966808,-10.982689917910083,-21.88918198646179,-23.107072592241536,-17.763336744525727,-19.77948838259258,-19.87088742451538,-12.880473071778194,-11.887110546456553,-13.020588393051673,-5.5481110697355405,-1.9544758095959318,-7.395519104553862,-4.236684942697912,8.487200164398757,19.056811570455878,34.22908463788352,53.21483097320973,56.55171671559457,48.03215182939806,45.6770474529555,43.24433343951065,35.27941718171875,33.955253309935564,34.50507674789972,24.92694910536072,17.743176660523822,19.58972451141797,16.132480324903423,10.97960208842385,16.40727483561905,20.195961869023005,15.540326559863775,16.200863364427033,18.952214445290327,13.221691310759336,12.061520002120325,21.062681407159427,24.17510435448788,23.210073290230262,29.711831960301605,32.04867014496013,24.616212154362707,23.683576733585326,27.95350398655877,24.576537228847513,22.709444501138766,27.090970509786434,22.980229341792324,14.494202520633252,16.452388052665007,17.91149602122482,9.885383412527787,5.390342964308653,3.0988411590553526,-6.77563996659927,-10.617292455016337,-1.9734764816384436,1.210941796586324,-1.6038026050962646,2.270552148380462,3.5434754386342875,-2.7906656553867712,-1.4309889223190424,5.098694202359144,3.935276664075325,5.0783819958721885,13.945522739070881,15.567643985087079,11.441482348963305,14.009300781700476,14.498919213855087,7.389753675236589,6.168692194102277,9.050163647278504,6.074385628972393,9.381759866193736,24.032588282262903,32.20127181250044,32.452128876352916,36.01702537557476,35.26941797078515,28.17810068264607,30.108660124339224,35.716819139080286,29.95149331271531,23.90425885151139,25.15768815661837,19.78788101279227,10.239200146170614,9.2203281971892,7.454159945733817,-0.1683290576188785,-0.6627739054984256,0.45765193002254123,-10.63790003233684,-21.355917282650488,-21.675321802029234,-23.488140245123663,-25.968775450319043,-21.06870472831175,-21.391136378256796,-31.33291469036421,-33.71251088569797,-28.646920611559825,-27.46406472149424,-21.698296542142927,-9.313599738950998,-6.443327248802591,-9.749773731545252,-5.948724778974052,-5.129163172089091,-12.866098917099835,-14.39887281598547,-12.37071483948402,-19.117161901900968,-23.37255364938831,-19.2146325154364,-21.635809796435662,-27.083614183386135,-21.73763455244749,-16.8264320338821,-19.936653331872957,-17.471626798781166,-12.324120906973896,-16.226687023893287,-17.23344882344056,-9.123884596973738,-7.407320411436645,-11.384545955188301,-10.429284312283066,-14.283948915886231,-25.3640635793187,-26.140388755730456,-18.630941798941087,-17.769882026078605,-16.978588128263286,-12.218944573377712,-16.793846600105766,-25.77151309262952,-24.938647333465305,-24.28014194638166,-29.69236107000585,-26.126920705360874,-16.0995766971948,-14.121571079815755,-12.080690969093702,-4.622335948056371,-5.670763625846609,-11.484329021292806,-7.94460753064198,-5.7759682508919346,-13.241225513743336,-15.928283473472495,-13.105044933156446,-14.891285416930511,-11.581993340575202,-0.2921295399145327,0.46847510076779986,-8.720208079204756,-12.16557556432497,-14.299095134537245,-18.811191372126906,-14.278092120297192,-6.899984584901313,-10.750270621695712,-14.122264033017663,-7.719596409375357,-4.771374554275949,-4.947887594515525,1.4857602829379477,2.7510698402957536,-5.941135519825066,-7.120443547198574,-1.4702559016960466,-2.1387900897809775,-0.05917473870852297,9.755466675481511,11.925035011647992,8.939023912643986,14.238491480451229,17.676579128253767,13.488399420503203,16.872226663143827,24.78053072695388,22.79433226425234,20.40737964295199,24.717431115724487,23.11776770333996,19.0193160903742,24.309556247014157,26.421854823534993,17.495521230076008,13.38096571020408,14.960860513039346,10.440418729761456,8.677365700677274,15.186141882902334,15.020774541986576,9.903289794232359,13.998049271635905,17.742423323111232,12.50263344430999,11.998698488562644,15.79820200988814,11.488526705107613,9.23317688803266,16.814140045073973,20.260055720343566,20.514920761655574,28.98118536183538,33.19526104861865,24.39210543754075,18.191412074338572,16.92006027298623,11.635657682175946,13.491539177023547,26.269874415462194,30.26600486269609,24.585194377155673,24.73726548859888,25.31173436518983,22.684999666621962,31.84348764234081,48.07899040355527,53.853117226027436,56.89482704450305,64.43563194434088,63.310760875241954,56.351612675939194,56.930727390926705,54.4666310490075,41.24958468830224,32.92905172269303,30.940740436170696,23.68122838898141,20.350438968432194,25.810034148961414,22.370724286084922,10.249275207714186,4.746561323569292,-0.6519119521005852,-10.128905241174488,-8.276432027227397,1.039905932724455,1.003501646111229,-0.41933993461617247,4.383650472043439,3.303408897067732,-0.4592164276192803,4.759961811418408,6.664615226052323,-1.8138084675048707,-5.082611697560875,-4.5745301006429795,-14.272927407266916,-24.58627894405401,-26.64315391062184,-31.703637578686973,-37.16196301780674,-32.77826894272109,-32.10471626055959,-42.991261305532646,-49.4745833305462,-51.12583834055614,-59.86151598646795,-65.50928426269951,-60.67697707914274,-59.65831623899956,-62.92546258285482,-61.06166070017251,-64.54486103631608,-75.18374042017591,-72.74697631075118,-58.73309150845931,-51.815019586782626,-48.92903855679034,-45.83536297201194,-53.103631068205345,-62.72507338210574,-58.587312363262214,-51.75117010951931,-50.81228788676718,-41.34515936732576,-24.952556263445445,-15.803014745237633,-5.812593913445173,9.860277197184356,16.547428809665533,17.583562819686612,26.718957111626516,33.24886223808328,29.048664072175605,28.07831128011767,30.06421339840129,23.82909038125925,20.5484835152571,27.532898110384256,28.426900957772645,21.69276642119983,19.48018698457907,12.809656684488015,-3.3585458334666907,-10.65094917281811,-8.359105018564337,-11.928832927731882,-14.405237862481698,-9.68261586357439,-12.233054642972055,-19.547072363406908,-17.064737911006848,-15.010652606178432,-21.75090055669079,-22.530515901130514,-18.170642544614854,-22.479989945735507,-25.21074728427461,-17.320861760372672,-12.945642309825832,-12.032587211911691,-2.8525845479893954,2.282694244452172,-5.643533751265712,-9.561775570349514,-6.917612743493792,-10.599540992542284,-11.494533441655832,-1.8791349337906622,2.4051139624423565,-0.16306183988657086,3.127239842957657,3.156032193613288,-7.096006327663152,-10.741543190110987,-5.81450074413055,-5.947367343867618,-3.716647410441079,6.811053511468803,9.396916362943642,3.7809833789474756,4.582205770958953,4.596099177638235,-2.3353045172031,-1.4787469150913752,5.677715894798598,4.549016794434417,3.868061326131067,11.833083511467672,14.540641376884553,11.52265295381384,14.982723046155012,15.748924893967018,6.9879189823849295,4.955588705579816,10.846340975320444,10.843055556541001,12.291412830508026,21.355733205744524,23.27621355928412,18.995558367091522,22.041185059597503,22.54473527743195,11.988211984994273,5.373622894361783,5.228679393214098,1.3386374821446758,2.903230937028921,15.616146236971613,23.430269540969995,25.166450698169008,33.27259277865097,38.453480027002655,31.95608058758549,28.17667771466248,30.1459149658212,27.970009529025287,30.430523154613972,41.71072818369237,43.524023906750514,35.15066316289979,32.748874331890846,31.093712186975132,23.871269427407228,24.026584202099976,29.30301293294183,25.797364637550345,23.146425366966653,29.472834112974308,30.071014861443246,24.550500321855814,25.889983199188052,25.71200954345128,18.15731467628384,18.892731957011648,26.71660954040523,26.538292698148684,25.59668956084415,30.255078332978833,27.810646742144293,21.66806821605075,25.324599141128683,27.594404108324518,19.11283171458928,14.449097406737188,15.618458881234904,11.567485940326119,11.286653064426286,20.327866630928327,21.534503162764768,14.044358020042212,13.239900818037295,12.87277434351649,5.962272957932877,7.10261536009454,16.27062535136154,18.73188203795486,22.21041034762177,34.9103629987801,42.66164567552127,45.09328875545435,55.796693666939134,66.4480228659895,69.34084040348716,78.41961992136024,91.56338259100154,92.09719837289643,87.41298043230245,86.47737946471037,77.19530633813434,62.44368416627874,57.26772939072774,51.332485890478054,34.81652665033675,23.08372361338051,18.437182396478246,8.772060363169974,4.293652608583341,13.420547879166332,18.214868110297665,13.214914633045844,9.869517463436681,1.5030783336749827,-15.980984332694419,-24.671786399433522,-23.641628942419004,-29.89863850804675,-38.8812924189357,-41.824362292350045,-49.15067200247294,-59.33591758679963,-59.713052241835086,-60.31677535966831,-70.55050160908584,-76.23890703995653,-75.54891475821468,-80.95807701637025,-84.2115128973164,-77.21664742560725,-74.66924407449096,-79.09333707542527,-78.48377097618678,-79.69903055150715,-87.86892402006012,-87.22387611290203,-77.81437903661866,-75.46901679608808,-74.60250551910087,-67.02624365466305,-64.41566924281491,-66.69416693282508,-61.969210464863835,-59.42713355467847,-67.3124054292757,-70.74789667340454,-67.01956491513064,-67.3890930604992,-61.711586814992415,-40.285436255173934,-17.49699440826899,4.644216038912434,38.769216043044686,75.64147211060668,104.09213706668706,133.6563794253687,159.39540224498992,162.67406384011466,152.2323798643191,143.05604376055163,127.25204277484241,106.87471210922178,95.24214888327268,80.85579527424716,51.994221935574984,23.222685213604926,-0.8333018137151935,-28.971459976543844,-50.20039394405406,-56.94892568026124,-66.65650483057617,-84.32561486520781,-98.41264024090464,-114.68585396707087,-139.04770370287542,-156.9761254352797,-166.49584935670657,-180.0973756144249,-189.56700046490405,-186.28940688724828,-185.43746684266637,-190.11165981294334,-187.8710246340644,-186.69928415221187,-194.3628799943781,-195.280855876227,-187.1022156760908,-183.29480406698468,-176.86180814629532,-161.2953498339541,-152.80254972843426,-152.31208074847336,-143.10592008565536,-129.9577597031755,-121.7673061916978,-107.80204579539186,-90.39384333521366,-84.79622081781059,-82.15379553786333,-71.03642098489786,-63.02519751823715,-59.3613217873765,-48.15107857065391,-38.172578401412224,-38.38837082270411,-35.038763306342304,-25.809624578589638,-22.18632063221472,-15.468260397640302,2.0311735546314527,14.611865139186333,19.592385384712813,29.922094554679514,37.80162391323407,35.38200863606493,38.332735834765884,48.822929375045604,53.13412914851689,58.93904068107904,73.0513725614313,78.41319747126353,73.92523940562985,76.31733535682243,79.24865763062259,73.0080520134401,70.84591931182746,74.4423264389359,71.10163361934167,70.14409496039357,81.26694085642539,88.93150464685817,89.24453836804858,95.66861418414396,101.77125159431098,98.67813222686647,99.89735929539592,107.4358531035243,107.80627197210374,108.24400659594382,117.50779216106096,121.2750277949538,117.52674913758256,120.41072456359956,122.49551085941063,113.40268789154675,106.40153371392616,105.14857854189228,98.327377319764,93.62623395135576,98.4042131880238,97.13682689636474,87.8210836046268,85.7928906454867,85.81977519612813,79.0346783774382,77.44891045547918,81.96480038343847,79.64943264997717,78.27277013213487,86.43896528942167,89.61498514088443,85.458092406943,87.65851026441655,88.63603823155279,78.99070928190068,73.50882395363665,76.00039127792336,73.38115246179935,71.0030912530533,74.99791510893579,70.37054703732059,56.56781143941175,49.67052675587006,44.92730533696107,35.33576725055211,34.67266230044317,42.644594881962945,43.05337443730244,41.170633446617366,44.62592152284704,40.5332803096324,31.018689336143275,32.62592371415688,36.6720864140591,31.739963850915856,30.62178876178777,34.234717120473,28.631830405986513,22.753401591502147,27.053586982357402,26.90821905961354,19.11080851071502,17.31558978032835,15.016019103225988,4.659417413826791,1.7306058022034991,7.454709932446894,5.48790326623826,1.8503925545452113,6.084634358840855,5.028391169819855,-2.6039764180400424,-2.715939170133652,-2.906420862278111,-12.261573713737743,-15.531875608711001,-10.01974786504158,-11.27734053554916,-14.322008954111325,-10.576847334318481,-13.426254150779169,-23.89589776883031,-25.754063544218408,-23.695310438586105,-27.713084741435416,-27.419008687193024,-23.32308001754341,-29.658300491702057,-37.67044574100868,-35.17329445424258,-33.895089170873625,-36.470768840416085,-30.90489232578811,-25.459297408732333,-30.452082030177472,-33.23130014292425,-31.47843948980489,-37.6037417173482,-41.96073865625718,-32.71097293261283,-25.060943371029005,-25.945781446470676,-24.43292186138647,-27.154435686319147,-40.6206307090024,-47.09652163523807,-42.46756575338741,-42.60792689721974,-44.12330737591334,-39.66305037656875,-42.77780222442979,-53.85202957806342,-55.74809878732535,-53.20808994669379,-56.48544414852008,-54.18901833995462,-46.04167541548979,-47.39251224294127,-51.61605005289388,-47.564377709803004,-46.42281946609888,-49.55465466592413,-43.32904593607344,-35.34528485797959,-36.94202440938192,-36.08359648672199,-29.83332115062123,-31.13156280968963,-33.67948091286775,-28.849098546854982,-30.211376208012204,-38.958841633465426,-38.8110494261782,-34.3208300884999,-34.96854646540074,-29.2878295532028,-17.075436497219215,-12.996714613078883,-9.065426834047603,5.987485259472578,18.316940640140626,23.41050744859491,33.77055907138244,42.91135814522427,41.57062895123914,41.84569551481806,43.45181557888752,30.299769525597092,10.149272454554364,-2.351477141725269,-15.83313724065705,-31.777200296411763,-37.461330072135425,-40.99901349651013,-52.896221420416964,-58.691629244203234,-54.64179690064602,-55.93288287732082,-57.91711552790548,-50.86567869586745,-47.54849041527328,-50.997393812687406,-47.192161833941725,-42.38209595846822,-47.29688846342373,-48.24470948835598,-40.654900690242116,-39.15191414146081,-39.43087603501348,-32.11478236427233,-30.609414635289735,-37.527932188093594,-37.613434074163635,-36.82471471856168,-45.20157774630692,-48.03745087868916,-41.20906664000627,-39.636559434420086,-38.483878645435844,-29.410610533596028,-27.64832625952623,-35.226629837134645,-34.055883153868315,-28.072007431590315,-27.86596838241147,-21.2649235820553,-7.839996550716318,-5.6864717969247,-9.065402124134351,-4.359161140223021,-2.760017700983409,-7.514398694290183,-4.463585953087086,-0.41158594072783306,-6.779195179074944,-9.67658282827152,-4.37961639930656,-5.266958861774311,-7.006672874873354,0.9614531457413116,5.626540015509649,3.061303513303682,6.452830890889572,9.570542968980337,3.5831604279790588,3.6016322143498947,12.92558147351164,15.352870463467177,15.009683568461838,21.59957023851578,22.616110289663474,16.519101191069268,18.722139215960024,22.33256798082916,15.33085172446237,11.028364178957695,14.365211422369683,11.805893077410406,8.958573181778785,15.724894043048282,18.043115064578107,12.225704278465827,14.421420160443041,20.618732370615874,19.222038482522496,20.48854770299717,26.271803671670508,22.822526901109022,17.983545345542645,24.6637105714463,30.544062674155775,30.171089755659384,35.52136430822155,40.27580868381451,33.993503852723535,29.650398142124097,31.853385690335315,27.894333103143843,23.522353350692928,28.760369803666407,30.540177759616398,24.655138832212305,25.49325423836427,29.130399341563056,25.811666691743014,27.031152140516408,34.07929109097601,31.419965465528,25.13499347698106,27.386591263159453,27.423193504879148,22.918803180342373,27.168145598699518,32.331764796583144,25.764594428808696,19.732008854920103,19.638789040770742,14.204051804077874,10.838456992377825,19.11765827910208,22.646854545007905,15.339196702186701,13.145069131477351,13.771197179281966,7.967423809904944,8.608804156587139,17.972695396450817,18.80263645264249,15.095181761819683,18.839620002454186,18.717002065255187,12.093070521305055,15.605659769002045,24.432326513222193,24.59774790665868,25.769607298957236,30.408106724708308,23.604328929021754,12.673028488988617,12.071117320952544,10.53350788494495,3.2197104493272404,2.9571713304740648,3.139694472575682,-6.4384572365439645,-9.772263494452922,-0.7761855287760038,4.226866627935159,6.74126810975413,14.939203491095945,15.26551003287317,5.77236083698086,5.127579693055446,10.67006091577434,10.203908488499042,13.329206163838693,21.13491335620088,17.71395474187439,9.91130749617627,12.050261533107497,12.125842477070805,4.274628578530346,2.6014701342303894,3.6725593282664586,-1.6900378215057885,-0.9462822563004774,7.38069652266415,6.22824801194295,0.5421931390469588,3.6462350337841842,5.05433828167834,0.2036224389287069,2.270902361735703,6.1675459023598025,1.3762036794369146,0.9677604142204972,8.760740779384838,8.937502835769413,5.485327744159986,9.118845835519355,7.568282215410674,-1.9257911650495787,-2.9612036238748214,0.4913976937305766,-3.5312479679753688,-5.06250826414222,-2.3707608288872493,-9.238437881732251,-16.681759192278268,-10.82103395901505,-5.796737536135689,-9.187053175004094,-8.272837706663331,-7.904817107232355,-16.69232155797031,-18.100158484850873,-7.6945671765991275,-4.11977117189935,-4.979956122730533,0.7221936612019637,-0.5217293252058322,-12.735678499498466,-17.886204068625815,-17.896197770823214,-23.682833748911374,-23.202006550577035,-13.626669090862109,-12.970728123320091,-18.938268875546886,-18.628150304528663,-20.838564101795598,-28.083045722748285,-24.571753007392793,-14.264327834724831,-11.04949706381062,-6.696503540948374,1.7348074751555091,0.8031253995828553,-3.5041512462405366,1.7861433481310578,6.247877058726329,4.42532488386157,7.899232017995721,11.004252857251545,2.6391805077730757,-4.187598591163492,-3.184462517728977,-7.8298642555782365,-14.175317207022864,-11.935601576117978,-13.776280866303344,-22.7248996421518,-21.07888114100773,-11.956587666337311,-9.445763014354243,-5.448993481052989,2.3798891292602846,-0.832371934323898,-7.950218651654283,-1.035099460939751,11.985032015231631,22.479186284434835,37.08259491294849,46.51275554692715,38.090714668275275,26.816120085368397,24.844603969927277,22.137698219723994,18.863961875630842,21.119913313881202,17.242146428263233,5.754864989865127,3.599416527708477,7.000272141148984,2.3108972306656286,-1.110058023820916,1.0337089065269027,-4.110491708431886,-10.122289675790482,-5.555203931293777,-4.877356498770286,-13.643591163150129,-15.665874058710026,-14.455176927024969,-21.9778252852987,-25.817595203901174,-20.533034735648442,-20.762977823706848,-22.40200315927361,-13.962719349571245,-8.762739603432067,-13.933609515302926,-15.858102612137678,-16.96483586055024,-26.006415684253977,-29.529301819022095,-22.918757767324113,-22.633276035811583,-27.585929341817334,-26.47893145268553,-27.99118555998089,-34.53660966365815,-31.175000742265944,-23.520010136731162,-26.725319680352875,-30.41544680732126,-27.23366632440176,-29.10623205167454,-30.857862671178655,-20.98574531790731,-14.312079377299025,-19.07776539352288,-19.75313454766497,-17.101861190139605,-20.97928090141554,-18.870833276618317,-7.01323531554626,-3.5247131209875464,-6.701659204179603,-3.9467935024905736,-5.389855822972981,-14.755358829298698,-16.407993946833205,-14.407695009867773,-21.63690340633642,-26.56386555207933,-23.016913125454415,-25.053064000568014,-29.529767549841957,-25.14191944742384,-24.086952968226655,-31.704554226487563,-32.004240277552455,-27.43074754853636,-29.839781401268112,-27.606176225780544,-16.222722572998457,-12.722707506018146,-15.118180461223602,-10.57808153077874,-9.123603970099264,-14.929109067880988,-12.501337470565307,-6.10936560262963,-9.68136462662124,-12.441836554219856,-8.404942082637604,-11.669042472206252,-18.055657978939124,-13.987845415998645,-10.344604128518668,-14.584913398584025,-14.170039429967304,-11.836582552091496,-17.52908074167142,-18.116415456052273,-7.51701079666927,-2.3404717740306786,-2.2292917342278953,4.877257396042774,9.362705655152553,5.8747723555068445,8.16945479599181,12.216958264136311,5.609544681049743,0.6668009542568449,4.8379758894795275,4.720494379612749,2.9524702042727675,9.749609826523544,12.188718617617258,3.863736357251179,0.09783227231033463,0.11190680930953989,-6.251396426903298,-7.3586223852656385,1.965484847874186,6.390017445767764,7.865445489231311,16.867259904912878,20.98585510318,14.920574678335619,15.26286862827893,21.322774985098533,21.36258951125741,24.172679114594434,32.90813086823467,32.75737388881362,27.938687550441564,31.276746606360096,31.171484230881447,21.822990118889173,19.212587864262037,21.638178479687035,17.438997347035002,17.53367360506204,25.946894586209897,26.4648227550063,22.15293087585465,25.875157798834454,26.97490969027409,20.824314691474157,23.73283609573473,32.554782057631925,32.5463988056343,33.27315225848083,41.133424636018454,42.93437441518956,42.63295291922959,50.82399174516275,52.5663237250553,40.583649985557486,32.07892256455688,28.054130633056417,18.31762840739471,13.74974211483272,19.795954962967123,21.346407676464977,19.941957990666634,26.93431936429794,29.884211199197487,20.831505820218883,16.024167188750674,17.52001929402239,14.68714213742623,16.62659830019954,27.308952590219274,30.090709942650754,26.421108581750758,30.075556890610258,32.222385425934604,26.605716849875073,26.115622869198344,27.63487292738212,19.547936416281498,13.199701971128555,15.338952279897706,12.835279633987614,9.047289499584995,15.647662594008308,20.303518707603107,15.29014056007102,14.171359674457914,15.444261749479951,9.593460164954003,9.179306982602238,18.441124113881706,18.93262674415785,11.728068601160341,11.813345817595337,12.086668714724143,7.936788118430177,12.8031276610414,21.506509736565498,18.476708845893803,13.463245022727598,15.36098920719025,12.91964089150555,9.202087642628149,15.496086235846164,19.384729811914777,12.742845548584796,9.58558607988029,9.369287704979257,2.315687246208787,0.02353308094849449,7.303909365093054,7.799764613002351,2.9755777778758086,5.154496996769827,4.259411738822809,-4.112515307308426,-3.2951601418380343,4.33044178724348,4.154380218121705,4.949850529561191,11.94502042962943,9.850275375635967,1.6256681518748481,2.14460687396842,2.28484752047763,-4.373494847321801,-3.57313463475483,1.1313145223724947,-5.260905423198937,-12.641272853505654,-12.167777406057807,-15.965236176899671,-20.568690804806,-13.486895311273813,-8.581123781338434,-15.96155639034875,-20.326047120040418,-19.983602136897282,-24.798383303577417,-24.252968369855015,-13.742131861429613,-10.790365219626553,-16.056012180054108,-15.994656934846065,-16.75743611238489,-22.300855862277803,-18.862124157713062,-9.818851672326119,-9.657693785698001,-10.48195254009693,-5.884610574192292,-8.097227898969757,-13.896197914690905,-11.0390042902628,-10.631513361393102,-19.603031526029653,-23.016873304087007,-21.432146626340735,-25.578456131524195,-23.777092485447852,-10.448140247614791,-4.399480578247411,-8.625131769161984,-10.78812493813209,-16.142138260493173,-25.501611820611377,-21.937723635724623,-9.599168930567354,-7.15983301968336,-8.858484202312422,-6.495790825459757,-9.771903264136547,-14.667568635539283,-9.354926858038702,-5.024658051409302,-8.995157801244131,-7.995567900748387,-4.530993017716925,-11.058461965609494,-16.502166125424974,-12.217459206401319,-10.971069387181286,-12.17626678666028,-6.741220116707556,-7.352036184133741,-18.664835992997283,-20.84602378863003,-11.892509406003377,-5.800290941265302,1.82841768197077,11.475717159800974,6.718863356721036,-6.950757938658003,-10.547741162157623,-10.618374874584143,-14.44496999620705,-9.868334286891507,-0.8011444026600745,-1.4339222222169974,-1.327785758264834,7.442393311739711,10.685645847926063,9.94544878133073,17.68143063509678,21.85778026811517,13.756799527442674,9.417298440566702,10.663470332330613,5.827337765051269,4.137630596747419,10.929974582362004,9.388098262766071,0.17541194291728246,-1.6623280363112976,-3.910214437744467,-13.328667182733032,-15.588831288325123,-12.007858566145803,-16.1965899347058,-18.504494746389113,-11.192970751814187,-9.402984916500273,-13.73274467720564,-11.989576430474607,-13.753349504270327,-24.525404097692697,-26.867168062005288,-21.166267496594756,-23.147650699489514,-25.87934895472559,-22.362371363473862,-24.97628165659431,-30.07223730960572,-23.728367792943942,-18.184692291748227,-25.000681477135057,-31.223003960993278,-34.746918059308,-43.29950874773388,-42.65750469048003,-24.075484739494193,-4.550363415053171,12.750461764561804,39.94819787756721,71.1493940162095,101.52629364306391,141.50945970297033,181.17345266034906,197.03011567038865,193.68910535826632,184.4034067315569,165.66154697315744,145.438404270137,138.49159671609942,132.60194090741254,115.7131926487057,99.33275125203002,81.25947810838913,48.801793611565415,16.944202728914902,0.36403076274670276,-12.544821221079529,-23.765097622130593,-26.572208122539898,-36.13503259633228,-60.54110057218614,-81.03152761935789,-93.51363808801602,-110.47323494259216,-124.20495311622054,-127.65228093611628,-135.94928297876064,-150.12869679225412,-156.75807597456597,-163.42943767253277,-177.15352011082348,-183.81922088922164,-184.24809126518124,-192.89051960532663,-200.88729434529063,-198.2390805185602,-197.3887981026243,-199.06157901020933,-192.23007992358237,-187.03207935122137,-190.5667872709883,-187.20882271560959,-176.31748401389615,-171.18570068630711,-163.8084184514132,-147.48654074187914,-136.90503508767213,-132.3890746176723,-120.92587321995475,-110.06322185315287,-106.01548300131626,-94.54115064772473,-76.91538554749003,-68.07843504786075,-59.99836660978034,-44.50012080163424,-36.001735706732816,-35.29841454692805,-28.651870465860178,-22.527120244027966,-22.29455722484611,-12.56382798960584,5.14267472498578,13.128221862718934,17.782113813898295,29.248109430016214,35.54212749884423,36.40277320816709,44.508981068808595,50.44646198953343,46.27334921342816,48.692271455758345,60.47124523891296,67.63984331403265,76.16912981002957,91.5380725957016,97.9510179814151,95.17011785092126,98.02551014373402,99.50047123775384,92.84539054093298,93.70401911234242,102.90563871102134,105.8054393582884,108.64665390095261,116.88751546098767,114.99076670425146,104.58141898743109,103.51865465009718,106.39725155429994,104.24279303579279,107.77150026011655,114.3564184871566,110.0005922676944,105.6696805219672,112.80738907224674,117.40106443235439,116.22116137511208,120.72405152161987,122.45721859228195,114.35363450620744,111.97594438414845,115.58166417928174,109.85469894659043,102.4178957035681,102.66097307368562,97.86302467899563,88.39042329784651,88.66972022329591,90.04485707918451,82.20619669817054,78.53610105126589,80.39179235262051,74.74524804329147,71.14047025436929,78.73895605896428,81.17124942428643,75.17611422193076,75.24274148028408,75.54578926355362,68.43876552689915,67.91081522200645,73.37408822667975,68.4213808090222,60.88038101671314,61.82259896553504,58.57403023845529,50.388694017900704,50.75310938603806,50.08280120911721,39.10702941987621,33.582752642557594,35.85338646717537,32.30718644745402,30.1344812103964,36.36125492139212,35.826470922993515,28.041896757660307,28.334635989396716,29.64528534262513,22.93739303677395,21.350933375043308,24.65059832286096,17.995929579383052,9.378114777604145,8.984665943029327,4.73925800069512,-3.5790727377796716,-2.3365156861026604,0.033808055459345066,-6.406081170489467,-8.531396071039936,-5.364009378864894,-10.767400319319133,-16.423511748372878,-12.573259183719028,-12.883275433451947,-19.01127437598043,-17.632566755774544,-16.715588174005852,-25.20806723477922,-28.238336833637582,-22.488310887436718,-21.47919191271405,-19.64936019072095,-9.974220353687826,-8.18594959226452,-17.70669410516201,-23.327251217670813,-27.79886011489984,-36.83434990946549,-36.68447586160301,-27.96589589745951,-28.4174744791542,-33.952063394510105,-34.114893170533094,-37.88010325322864,-43.72025963947131,-38.213871494889815,-32.098253594339496,-38.240163239745904,-43.54702984129258,-43.72450320939871,-49.82085368909048,-53.844211015271455,-47.69341977831688,-46.720613241118606,-53.344460595537925,-51.69744855292744,-46.64338388821806,-47.58622279374224,-42.9621614216213,-34.44342088032027,-38.947384017944735,-48.786153300976004,-51.38149351909546,-56.79297696572619,-64.51942442146171,-60.344744564812174,-52.391436606393,-50.70919707453743,-43.019721981381146,-30.526737438426398,-29.90343689503483,-34.47677362455225,-32.90811415924581,-35.19663863445996,-41.18376192962231,-38.66882194336961,-38.14347080731123,-49.97016869461538,-57.96123547924831,-56.60287414289762,-57.87178075919987,-55.41177682147251,-43.276907869927555,-38.61633819267455,-44.204349558502514,-44.53869454401564,-44.14657435744424,-50.02148090485872,-48.070851846015,-38.257335383736915,-36.900438843175415,-37.47579231713845,-29.674150358642578,-26.283668090581685,-29.1613348964721,-25.143877576553578,-22.123040339007133,-29.502077889032332,-33.112649160041315,-29.458759168033914,-30.973327498755822,-30.72221430314671,-20.681819511572982,-16.98831036123048,-24.215060980693757,-27.630925393035646,-30.146823438828513,-37.488854107375985,-35.52096801180391,-25.09929918407718,-24.029391924131396,-26.524792973717922,-21.32716834793733,-19.522775405044836,-21.553470317781745,-13.330524335667501,-3.789366318058982,-4.883947260196389,-4.003066523314106,0.6627217049717193,-5.083198051685834,-12.598630058942941,-9.159196933961066,-6.837721388986345,-8.71304682337757,-2.5463243653659395,2.4450027204084197,-4.445334964579143,-7.603654458142563,-2.0798282522051865,-1.8465149254244966,-2.0558504533636817,5.090514789421698,5.620171665834697,-1.771721615805364,-0.5218975363165723,5.283349192943421,5.787152226496229,11.625508475717039,21.97726647082103,19.716029210300626,11.242277195186418,10.428616820091577,7.869957386901494,2.2303077372866293,7.078813985060019,13.748760928441257,9.702517254603276,7.03095975386554,8.601524730740865,1.1041189374148854,-7.126831108005187,-2.8279441423648652,2.0103315787420373,1.7069734529173783,7.148029734221247,11.303587678418417,4.561430697173501,1.6733751793301688,7.894156690199661,9.019622998146406,9.046852038528268,17.226224330635073,20.297296821596465,14.652295723034868,14.634454320825668,14.603900810428314,4.451408018216376,-1.4307887048045362,2.360681131203193,2.8184608181018818,4.830615220260357,15.576186949367877,18.70492887337424,10.328351178427342,7.707744731251678,8.764434585255612,4.1316657259302065,4.807781169762067,11.319680138823777,8.714888342581425,4.927128856667942,12.454925775132718,17.876322437132032,15.832633619853077,19.26302420081522,22.636813243398976,16.79126693089668,15.664139683206429,21.93381677592642,19.786285459698796,15.07975041120185,19.6549681088705,20.632862573983537,13.535683014538616,12.467707130695622,12.79341213168249,5.64273437801394,5.245963366615882,14.682891848458825,17.38742207192043,16.974886591258752,24.065667754418712,26.492743270193596,20.426296066862175,20.56890497204054,22.788147175821564,17.018327176236138,16.338459805342286,24.84967845157892,26.871735886291575,25.308498597889646,29.734707680039982,27.102076403903816,14.116869002439948,8.459865072829883,9.188765203001523,6.4986623149957605,10.021435553612106,19.30475864477858,17.106301744090523,9.35698827532125,10.871478357270217,12.052106261617588,8.49751422282832,12.472607449495847,17.256023271801666,11.73192177280512,9.190056990179915,13.843472543303626,10.931604520364132,6.142124816273777,12.196077098267406,17.43881877407648,16.549080806497315,21.467763023130825,25.455311065642277,18.267602171615252,14.884669429467209,20.84508088388605,21.119715172279484,18.417777829974533,21.169238183068273,16.74455000031405,3.532309513876502,-0.7778139077361939,1.1180581448004312,-2.7011401816433036,-2.8271065308082743,2.249866143346984,-2.9310543062871455,-11.23175024019076,-7.067217748464357,-0.6099904606978013,1.923607285506796,10.947543461309042,18.162211191207255,11.388955964060186,6.170676399043785,12.141864884247818,16.686375786846643,21.027519316411077,31.05438427191158,31.807163468167722,20.83423613803432,16.725297363732494,17.18485202125165,10.436131099001388,7.050604234849113,10.580064525141147,7.258410738411552,2.4708825599571065,6.675841446258774,6.649811683793059,-1.5902912340243107,-2.3353050983109553,0.41937301793746773,-4.905593591136501,-5.730465882447284,3.0826904686590453,5.943710471878919,4.714740107975704,8.113800586853822,3.710958525321445,-9.51965740311263,-12.813520713959623,-9.756718342356557,-13.648448969354607,-14.098815236916332,-7.395610715279763,-8.171725450866909,-11.916497445577864,-8.319540487702499,-10.586053263765352,-21.266187808604357,-21.82917071352855,-15.604871139152376,-16.44502510015358,-14.744045244230103,-7.464985533268014,-9.912735526788627,-16.902509699165503,-15.361440391403846,-16.70990725370145,-25.53226361554819,-25.747551046277206,-20.121288794704633,-21.44839024344821,-19.600191828318874,-10.240541613336086,-8.405104544380173,-10.385166600374802,-4.026800322206283,-1.0331882379543944,-7.286226129421758,-8.28724280363515,-6.306237039576976,-11.113090361186243,-9.69095028115878,2.138925064475747,6.520073998338644,4.044848826263782,5.475498135986392,1.5608954911058772,-9.095350062474855,-11.042544235255946,-9.377657309926686,-17.02263383001985,-22.700935150138704,-19.624946040987645,-19.476838249606487,-19.080981793366902,-10.689720579192308,-8.067646274412384,-15.651950315487431,-17.437156494919297,-14.637002149672792,-17.131691185415345,-14.965184315462821,-6.280892089940332,-6.5579308119082285,-10.965142150870289,-6.755584428169504,-4.987985739913525,-11.016658111477659,-11.288385955741276,-9.65371022155076,-16.54582002849432,-18.214093770945475,-8.891339217834586,-11.050532764198392,-38.5438610319461,-80.45594882066176,-118.19996707311488,-136.66345713284392,-126.61478511255487,-93.21506547671564,-64.68376191224036,-62.790871561065266,-69.14714557911962,-61.29066729882334,-50.76428496212462,-47.85487673171848,-43.11976098441873,-39.9369583455354,-44.52312591280406,-41.91320176469731,-29.181390582745102,-23.851865370907394,-22.413573052089603,-11.836607543572704,-4.368463949773684,-8.605109378676847,-10.921246174384843,-10.027456966242227,-12.493812396715718,-6.870438985819056,8.033236027310869,13.97724674914351,13.13807327708695,18.111531505344104,19.21391136319292,12.825922857270339,14.445101382286039,20.143244439868774,16.819061576416264,16.104137925775976,24.784638081244324,28.619863778503834,29.57068752128792,38.416803940081955,43.40362766236052,38.084209912886706,37.26151826109951,40.33800089646658,36.555456162488085,36.246750240631485,44.74836424850015,46.45103823920258,41.65858194281142,42.471065657309595,40.79081477741972,32.32947923383111,31.563037248380525,36.13109453133247,33.24965058250807,32.21333513688151,39.58289526279226,42.829729902432085,43.621625223889865,51.410683391242756,54.45931933036802,47.0381368234225,44.32293980125652,46.03409522980043,42.232253417283566,43.92205745802253,56.12871941920522,63.16597120603288,65.09296148180965,71.09934928718893,69.35297115969335,54.718998180073854,43.749001848871,37.27905710395709,25.547922796744707,22.76406955301249,43.28241208221901,75.40303264436403,109.90493377943007,143.78470661846052,156.0940570621868,138.8364649732382,118.30639247235831,107.85523470229928,98.26983686678986,93.05078113883094,94.11678615736193,88.69393579590061,81.34077075227532,84.12802881059426,83.53647819311257,70.1795101242551,59.00505758414156,51.48737532665248,38.67263988222601,31.91232402101734,35.09639994814726,30.917201269491002,20.92040499057601,18.004794151860544,12.239977990968713,-1.1644119576281344,-6.102762516937674,-5.001304368762984,-11.882524816080155,-17.235157871982352,-14.704348511860115,-18.064046472231013,-24.697724489586918,-22.45151769083158,-22.330573258586575,-31.06047970277617,-33.82336561169074,-31.48055223632558,-35.91317564538169,-37.38576974267987,-30.930372627233,-32.41728309515306,-39.46210397962219,-37.96124678512103,-38.270216976070365,-47.814966375959976,-51.99527804049262,-51.935867102328736,-59.37730335231766,-62.90079321881048,-55.7609223332725,-54.37129587015019,-58.88463865826691,-56.70105611408322,-57.38167505088066,-66.83287013336943,-69.13994342186281,-64.78993017191584,-66.53769940943346,-64.93762188507094,-53.94960827054211,-49.281249447003546,-51.18888992817685,-48.14561154101288,-49.79117059935499,-60.90050932959326,-64.38789389380617,-60.08892298795908,-60.91737479721754,-58.5287525016106,-47.9723672234218,-44.87429314751591,-48.53489241803111,-46.17758891170749,-46.60131906063661,-55.32013358745115,-56.47058914677454,-50.203183776520675,-49.973749645869354,-48.13355136952552,-39.03024104955591,-36.592359467628725,-38.91705811946014,-33.00446623230244,-28.238517154007056,-32.07295436425934,-31.885513178662443,-29.450651155815947,-36.33908419234135,-41.735534966552045,-37.727700957077076,-37.19298265857462,-38.78605550943403,-31.760674617915654,-27.747159184640942,-34.44033704891565,-37.26945869181181,-35.23045006366517,-38.174822225360955,-35.84343942892275,-23.107825572011535,-16.357394747677688,-16.18040396636999,-11.165062594705285,-10.332375084687081,-18.66401310730237,-20.743463054587643,-16.682141032331025,-18.406742374649646,-17.873677452206742,-10.738462188484473,-11.305587161741098,-16.378669902701077,-12.44904193692878,-10.18856247220985,-17.864058078405517,-21.91519999023628,-22.193214129872242,-27.906482930428485,-27.46976876563403,-16.310739932044992,-12.260698293724378,-15.157059478461074,-11.171495058461975,-8.517309086448016,-12.779020748175267,-9.00786145211061,0.45854554443525997,0.4383277786168125,-0.7289188825807188,4.550340811591497,3.1823077525006225,-2.149390227713781,2.8395604234811347,7.600964468801397,2.4101207657510066,0.844947093372471,3.53088329630749,-0.8564267298700061,-2.5421772143508368,5.046471956397774,7.252783725501681,5.368641120017383,12.791027832935695,19.606320026260224,16.750662785494605,16.495892389609594,18.180765926072073,11.58049061465199,9.140001746276337,19.426367608880284,26.1655982097971,25.737346139552248,28.663772463392327,26.399952307685254,13.918644142868096,9.155774561188286,14.06337594744361,14.209689179433216,15.81409179046939,24.116892265476505,23.812780617086602,16.866421608254466,19.31527822651337,23.70074148194909,22.463181817335638,28.286547712355663,37.59354333731902,34.64501818709137,29.19581436094488,31.770089324664905,30.183229909104437,25.613275058276663,30.99570726423809,34.256561855613654,24.444761469049396,16.936572109421242,14.206114088370152,4.588386119346308,0.1511717343533142,11.110473699943284,20.741716077233598,24.350402951172356,31.863823471350297,33.19526116859974,22.399317149931232,18.504823823739986,24.21561609714612,23.89333108399592,22.701199144067637,27.08714330940773,23.963058484002044,16.192596912498555,19.079923774829364,23.290592194984047,19.054348498427338,18.953928796106545,22.746079735119423,18.31401799448331,15.588736090141252,22.645058079573925,24.336776483345595,18.871871404345207,18.722220009836573,16.02743015118142,4.7138034341273585,1.2025765225268996,6.593007527564799,6.275280870041919,7.032113763784821,15.752267371115797,17.647667734846877,12.893793498887863,16.12991652896176,18.4460969418606,10.337856584706891,6.291030426089522,8.505755792751318,5.371181064550898,5.576756326540974,15.206006863775821,17.612834703409526,11.654436033175076,12.109813876623425,12.08609552811755,3.189989663925036,-1.532703454097456,-0.6148461968980303,-4.232181700441698,-2.14576441746813,11.835047349420314,19.09116903731418,15.708492135661663,16.057036693142415,16.55862802523228,13.739168530946795,23.9019182556103,47.28104394468229,68.13906933233676,92.87669783264028,129.8391494184475,163.42029535750572,187.1161976309928,208.0687937939536,215.41254981088227,202.00055791097935,187.25381603169035,178.9339208131845,165.10819962822166,149.72173183597025,137.7707405200328,115.06263411312497,82.29595709338655,55.34235959030954,28.78990823522883,-3.5786261415432215,-26.477880964213924,-39.352019180108556,-57.73294128211526,-75.72692545193495,-85.83063558344317,-101.8191432760826,-123.63923144572917,-136.79987150690647,-148.4625912927853,-166.15705593994028,-175.7275394184845,-177.5602190085624,-187.28674028713846,-197.69354929178195,-198.32911968173372,-200.66339463306772,-205.37752456534517,-199.48828592693604,-190.9507635009607,-189.34661200795333,-182.38887307614397,-169.70737452186054,-165.22949906650695,-161.16321218031493,-148.1874058887453,-139.94195771148406,-137.87921584642757,-127.52295273669091,-115.05404929850722,-109.19710401121104,-97.83737638243397,-81.77276286352799,-75.13388031762474,-68.66131786226022,-52.770224079764375,-42.919319576785995,-42.503618758137726,-38.08691070774038,-35.28646091702596,-40.335158752614426,-37.9195368352935,-26.743872515337067,-21.675758819845406,-15.75211462556306,-0.028043125653063328,10.303675189184423,11.158671031953274,14.969276941340937,15.323418843192853,5.8442319399170835,3.3853817101598547,12.126702990204393,18.412876944965873,26.874123636480576,43.35370697006981,51.4953680689163,48.05390915624018,48.22713496724224,48.81384682455142,44.184753250407645,48.033767618773304,59.02092162420152,59.91975048531492,56.376166219427915,58.972134429411796,57.43012633382528,51.72235835058166,54.945594049704404,58.6553250952404,52.743214986124556,50.98108376567558,56.366275899347656,55.20071775500027,53.8189061556942,61.1879488113904,63.154980728558186,57.43476254788032,59.080519661232074,62.06217895138776,56.91273591056594,56.72236122182867,62.08602572654239,57.675662838564676,51.631298333381636,56.14752480838257,59.02962739287082,56.824321791496565,60.38273529055577,60.78777155862945,49.76997783647198,44.236937783065244,49.15891205918336,50.3141315343932,51.46604160596744,59.32709752579779,59.31922777332607,49.42532503928841,45.872075398778904,45.14390936489892,39.133227209875606,40.64304714237989,49.67026243623449,48.1708804189856,40.29183453496579,37.625819350910504,30.775571726748158,21.17936600372692,25.75173167597486,36.617371598293616,38.679205583320794,40.6305861403272,43.64349201804211,35.36729878003075,26.4660402630654,30.208490800451536,31.956079319218492,25.338994963105897,24.034625774565015,24.505233915798417,19.027981604487806,21.052023345513334,34.56961108252311,50.6009154325405,79.14853984310824,124.96108222642967,161.2488343889384,169.1355493810635,155.7509240531254,126.52668161810408,91.54748119988177,73.19827875950435,69.20190674404296,56.7632830567691,38.5527577577584,27.571671758632014,15.635866079486506,0.40763713111308597,-7.650700544612939,-16.765354915798234,-35.07749295224252,-46.17599188835581,-46.15903098721628,-51.23145153066428,-57.489383642288416,-55.238947743503694,-57.61263457558529,-67.43715405239821,-68.8730715186949,-66.73221202538181,-71.62469858952866,-71.03046096022108,-63.29350114788779,-65.2180693967234,-71.54081581069096,-69.74743193462417,-70.43615979917386,-75.22672136892741,-68.43274786167463,-56.633939600373026,-53.51230684326431,-48.77664657483413,-40.52270836496096,-44.07395519936763,-53.442580473527514,-55.53190376315471,-59.437560122102596,-66.74974201518964,-64.4519979368317,-61.39151123106375,-70.79453748136423,-78.55973167158558,-76.75116531852804,-76.61601062559954,-73.5933897190549,-61.903311389665774,-58.89495671298441,-67.37367614336266,-67.77679155508986,-61.54477444239934,-59.929069408304045,-54.122362341242074,-44.02629317269778,-44.25658367081091,-47.20658044367442,-40.65437993259468,-38.18021359888772,-44.95219367756547,-45.32128470686023,-41.21912585519611,-41.89578747683828,-36.44308156032842,-24.147155929356522,-21.478607112891044,-23.3504109641086,-17.088914620958427,-13.232906429816943,-15.589639372653357,-10.461264794991962,-3.6722709046901514,-7.117634832482761,-7.964147506707435,-0.9400901473237435,0.5213145115265503,1.4456084544314023,10.524302455291187,12.067801396646502,1.6042621382128432,-3.2439392014704502,-3.746855556936576,-9.029195293588138,-6.4672981063772585,5.809053383493862,9.551925371341298,8.039017173110064,13.263992958963982,13.479478337444005,4.85883986921909,3.1700996224312266,5.25657999994818,0.8161016908226535,1.9016712786810557,11.993326603000867,15.054769730054264,12.931566555582323,15.651714275752644,13.484813168830453,4.885681123856456,5.6494918351040315,11.610279901783787,9.625834935090284,8.808462696182458,13.036311552584102,10.1920950443949,7.528210562344902,17.090709528493992,24.747285297129732,22.685945462528853,23.16930093644708,22.348935804314337,12.16113129027487,8.145718401984777,15.856999559172941,19.27908620598423,20.136233091506448,27.93061948233235,31.037635555897175,27.16008103928484,32.68871605701174,42.26434490088573,41.23781437235543,39.726686331550184,43.22905799099713,39.22194113486433,33.119368412250125,35.95937201652579,34.06492209453006,21.665669455376836,14.628037218921737,10.684884465069167,-1.091667520113873,-8.02631839978637,-3.7216476382037484,-2.0838236683588924,-0.8122468013230375,7.532240351482705,7.167683660101735,-6.233218529313218,-12.615906428461765,-11.105963123736725,-13.93683256176547,-13.629492153456496,-8.877067869277361,-14.234287537806454,-21.960067446282352,-16.910517132309746,-11.870680562843916,-15.601905843071766,-15.995386034103934,-16.520406000072214,-25.86781530244513,-29.22306486823634,-21.19562368593777,-17.779855403132085,-16.991053533705827,-9.869750678090629,-10.01278837763699,-20.55734492882512,-22.877778911035854,-17.833395900157306,-15.84423363412731,-6.561172196111211,10.273225294475829,15.410386107076798,12.062192680764397,14.527026681561873,13.943993652401286,8.064068218428067,14.859418450026318,31.204107117787963,39.91425914126691,45.526924777541254,50.094196580013495,40.54834976826325,25.885474634874555,23.748301510967792,22.54651497585667,12.40158626590286,7.894666755130395,10.485252039450316,9.60023032986021,12.902246001752443,20.55906026761234,14.230247088429245,-0.8209178909691888,-6.005917652606596,-9.19601536063509,-18.12424291578382,-20.821298650542197,-19.959749235619455,-26.459605442504458,-29.126667959516002,-22.425312569602287,-21.771145630995576,-25.409194840814283,-20.939850625930585,-19.017583522125356,-26.39192769177855,-29.279493439437637,-29.5979018658904,-37.44780998753453,-39.68007481844824,-29.678459822541804,-23.540971376550083,-21.810774876679883,-15.01831854727898,-13.76850050758176,-21.528240362396552,-21.42016685969412,-14.949535967899541,-15.556425551861729,-14.287884211796829,-5.022625600848871,-1.5187122824807568,-1.860000432876084,5.082123791214145,7.3463635780181775,-1.7117432140624094,-5.9279586825888275,-4.956392779549958,-9.419815969988049,-8.420009870651706,2.2807975496936663,4.9581064458255195,0.7811288068653448,3.129156118814272,2.245275038178378,-6.896071006002771,-8.687622270538062,-5.682782760579862,-10.297755334018182,-11.053448762613858,-1.9219468851578663,1.1790323728764862,-0.07375502098242226,7.51641392230717,13.892835964316918,11.747669098675084,13.664012657627657,16.231136150500312,7.788823926892697,2.3909288656662837,9.594433774667758,13.541543617442365,12.405028120895352,16.33924649933628,15.167509693331265,5.865449571782482,7.034893874669894,16.454493210863273,17.802007703006748,18.455355584074756,23.65310280040409,20.374053727558664,14.179954401559499,19.00595934358921,23.084420043530706,18.56433628827505,19.355857618127395,23.74248193311708,19.82654672907038,18.076217057472867,24.25842867454231,23.155673644539675,17.209943012457042,20.496989008243514,23.190753817329814,17.917741152599714,18.59444131681746,23.071221035087024,18.44512067805343,15.573899960916894,21.385718803622705,20.618939670539476,15.098155219422459,18.491036758336527,21.544496394337237,18.294638385941198,22.009667906598526,28.402669456591482,23.84854654468303,19.688966503267398,24.65944557801099,25.659454236709443,23.220593819363977,26.667222373294873,23.99520342538767,11.09655196399455,7.26587803082851,13.161525473468828,14.25943478121047,16.680725218534292,23.302402895660006,18.77229582499524,8.427659321034241,9.31426340759852,12.004587400141927,8.466078839178362,11.83158822327724,18.94185043441707,16.301450992809617,14.362145593248787,20.473987025951278,20.301199436467357,14.718009636386792,15.75601107426877,13.413652481840025,1.586549480333027,-3.460466123626697,-1.1086961439827985,-3.9599389575432102,-4.136375193096894,2.255292096432749,-0.3501969065394015,-7.981452364506632,-4.590019055444923,0.3861651151771228,-1.9532816575603533,-0.22679059280603653,2.400808842672686,-4.693967883037997,-7.116242851034318,3.650802695955968,10.478632007225276,10.543727208855465,14.000347756742322,11.32623790706553,-1.784692436875794,-7.502797744200553,-5.294800984489623,-9.47799091126752,-13.141580385891322,-11.200717964576242,-17.817026910578612,-29.27336593637844,-29.52320537887531,-26.525691173473604,-28.47192086639702,-23.942551413548102,-15.914780710119013,-17.23757628665604,-17.18492752470394,-7.807811010575591,-4.0746287552277565,-6.252247070100538,-2.1278239363191904,-1.3524369004414312,-10.080293798884359,-11.633138918368134,-5.499049255493261,-5.7877406799716775,-4.968589506741285,2.72344145771256,1.8432939961925716,-5.8227103903070985,-4.461979518737305,-2.3243284582308017,-7.9345636882228625,-8.014707332911762,-3.280986640941822,-6.939181222740347,-9.971477413085495,-4.140468084078458,-3.131938912952968,-7.7073432144081595,-5.398329490410305,-4.079281135075347,-10.728423548805491,-11.134846568623773,-5.639281316968757,-8.870615836392819,-13.71191531080554,-11.322074955495026,-12.089764416428974,-14.192110544953326,-6.534423312213866,-0.6591502814910506,-5.543534043584344,-5.636622143788994,1.9911653481288911,3.6851817686791977,3.680121794353018,6.7916992535172795,-0.05517338439107533,-12.952145522787438,-13.964657377750253,-10.226317875911008,-12.519340544500562,-10.424398227003053,-5.427048960594377,-10.659284596374352,-16.396511409515426,-13.530147837637726,-15.7691820943395,-22.681840161514828,-20.187908758468836,-17.847237665919305,-25.103262491334362,-27.05147850249754,-22.017840518107853,-23.3640982725885,-23.164041002830125,-15.064191186741855,-15.626058854280501,-23.79011905366339,-21.024700709671503,-13.407386091279143,-11.660984878693146,-6.122687982953389,0.7511678267649371,-3.479014360914952,-6.92962967291326,0.544202537868415,3.512361883052783,-1.5583308839437948,-2.8181114337204343,-7.2202498316697765,-20.649280966891656,-27.457188614140406,-25.59749324532011,-27.389544631555808,-24.84534458685066,-11.328900747893677,-4.208077284349251,-7.988996787235961,-9.434953241037805,-12.64915787627788,-21.09170192668128,-17.423749959764788,-1.8159368800377802,6.169346363524676,8.909628527715807,14.15954806482532,11.280945053983231,4.186705928451493,8.959738461220713,14.53224981128311,6.772643870350633,-2.0410267677251426,-7.126366097691085,-16.230127899032286,-17.908849951051472,-4.80692389336179,3.9451219233740384,1.928002203253615,1.5525066487385133,-1.495484240681245,-11.348155705253838,-12.164568813619262,-4.143944624971115,-4.115050238160392,-6.379450371376797,-0.9237650370727013,1.3991683382790983,0.3017888530542787,7.671591005895184,13.594977376668545,7.883769955170652,5.269630210327747,9.98604334032742,9.23349697382104,9.656076357674296,20.721704061745125,29.14107123440772,32.05650810182783,41.412332503829745,48.058412414915324,41.84051900642797,36.982627035934016,37.53660114986433,32.862970178845636,31.13355086713817,39.75290488827599,43.577894415524135,39.793445497511414,41.09188397535341,41.17382096199496,33.229708801829915,30.929172042955262,34.222350568284156,29.251040239179616,24.918738846543793,30.85092509312335,31.911898294108184,24.779890595472036,22.45363407738637,18.16129570156349,6.085027907648288,3.38682291717728,10.689282961567649,10.179065041608958,6.903611746693351,9.954898567012146,6.009466242871174,-5.862177350523721,-10.080870305056095,-12.36010092680663,-21.260515393457407,-23.101385688429318,-16.672637548270362,-16.480449001747402,-15.795742458778655,-6.354203772408476,-3.245416092074862,-9.75246894192899,-12.465728346963122,-16.467711949400528,-27.43602526558001,-30.348382802401296,-25.23541269477282,-28.81207809720033,-35.7139705467219,-36.76908673268355,-44.39995982055821,-58.5042199113057,-62.24808928371853,-60.50358558774953,-63.181751916699604,-58.505165157111556,-45.703537747940004,-39.42365031304982,-32.18732226268799,-13.616797644658206,0.98704083895564,5.4179615956689595,11.744015807700103,15.137449954424039,9.810660801220159,11.7732290234257,22.27914773852203,23.016796824173014,17.023203328281223,14.250273609774183,4.578399581334593,-10.664381645666065,-14.9652984852066,-14.848540555399909,-21.36376761670394,-22.46795566454148,-17.099933004956057,-19.338483957938884,-20.71406249703076,-10.860397633335868,-4.683097423669296,-6.90392268571978,-6.143294530931869,-9.842246006924247,-24.34219198056409,-31.592530718863863,-27.9476354539162,-29.10986947817485,-29.496218020319073,-20.152892549316057,-15.857343890387103,-18.942638253700494,-14.410726130149975,-10.074635320320118,-17.156589379316667,-21.62448004500483,-20.83022473041555,-29.31508354719026,-38.24071670992839,-34.54730940493228,-31.78123823840542,-35.59327072909115,-34.658267580440324,-36.500515462866744,-48.51012544173927,-51.32298708805741,-39.06694547705142,-29.960367541681997,-24.44625152411136,-16.504236856164695,-18.65292823689244,-28.67403872398395,-26.838685348339446,-18.05139945415283,-15.717759616513995,-10.781772862303828,-2.2770459048960237,-3.8446996440185157,-6.135348169972957,5.312759075345653,17.830888875998983,22.9311489874393,28.6989007526592,27.811968098211253,13.62937627738512,4.916650369212715,8.664153900332682,10.099317589475271,11.687046965099032,21.00605672530349,24.86473364699471,19.75938929410512,18.01846385436294,14.71565332389062,4.4952452355911054,3.816792140186954,15.451065542854947,21.77479191646775,23.138935854702396,26.621644184835468,22.023770842501577,11.375135458164078,11.71124188279057,17.048685253316243,14.628347459464656,14.30199519210912,18.63447524914899,14.698770977760912,9.463491021455651,15.205255679716476,20.718550730659576,21.39283274716428,28.631266625516155,34.52981895783643,26.950351982003436,19.939851393777396,22.19406693597527,23.708118422076552,29.369161544808012,45.438832211466156,54.42999089966381,51.22172024356768,52.69389380694892,56.596999120430496,53.05156118185811,52.82617548766231,56.33364502338491,48.73660452316193,39.302141616209326,43.17789331454867,49.73298376080452,55.04308033104981,71.90467927783905,92.92100661671108,107.38316320580577,131.7637161810792,171.35460975009434,207.05757307051257,236.7366788885363,262.8932966084852,267.4047567799056,249.10518315579992,230.2514009019448,212.724000492959,189.79837880697622,173.99006637814836,164.8807889308374,142.71462927390797,110.38424288815811,82.45013270286417,56.25985021488961,37.16470117875731,36.71510525313896,35.50807001047117,10.332722757536041,-27.84695422234799,-64.8621070950571,-99.22315151484018,-118.32120199501188,-118.08815724778397,-122.0988107859381,-139.0263865802603,-152.6200306874988,-164.1656768428592,-181.81898211828127,-192.2566844345874,-192.96639568885678,-200.8128214859757,-211.74984867220255,-213.93643554351945,-218.71404612730817,-229.069059088281,-229.38523574234387,-224.78466160097278,-227.68825157705334,-225.54195033004027,-213.0340440302354,-205.47470970513655,-200.0583404117912,-186.11002009873476,-174.9655026446083,-169.67220619642202,-155.5037070789815,-138.72893049990134,-132.82871712754985,-126.33538582840113,-113.460103406673,-106.9306482609404,-101.69923639186372,-86.87262408074207,-75.60644840579297,-73.15432046056043,-64.59202317372822,-53.817485074768086,-52.33854112775558,-48.00813924787428,-36.36340388345642,-33.15189669507535,-34.620270848790014,-28.15421388644407,-23.9197210042842,-24.12415137136258,-12.648936027242165,4.510443129925445,12.30652779918293,20.758378805103757,34.868297288557,40.76441065075869,42.55868907686567,51.448127801157234,55.487718661600546,50.69830714918426,53.23528391311588,59.882943078357144,57.907625929420334,57.49173442641752,63.856777176663115,63.868951338392236,61.45374324616105,67.38861683730393,69.52550377515452,63.0227266977046,63.54472896667731,68.79991535635872,68.07669079384243,73.73970916114176,89.91570468409405,98.5920068717738,100.44917263733511,106.39308079754261,105.82383112401011,96.72314277002415,96.25944113594599,99.29651485105313,90.93652754951594,83.16899121580565,85.5698088028561,87.94179146503768,93.45372217983866,108.17289926214438,114.06361870342977,103.20897944354829,93.76980739725101,89.43180513108722,82.14566605933985,81.66270814035241,89.3550959611144,87.45554724082955,78.82400190211368,76.76864497039064,71.0179962564186,57.710656194793046,53.5262882926993,55.625191828793355,50.683342203188595,47.74774194439588,49.86888608109564,42.3761135480427,31.804727280379492,33.631193013280715,37.534975715735314,37.00898490596164,43.4789048225296,49.265645356493394,40.39352087322846,29.961391051448512,27.37744159760443,22.517391659275066,20.549548248029847,30.287230857488918,34.96639732912157,26.833635286961666,22.3825219563945,21.746043724688853,16.173878505511315,18.27030112705967,30.57858768891961,33.296489741240784,26.83153711460292,24.260513906187516,17.712924610172003,5.880209241722093,5.90353587163739,12.979893797235212,10.954330303190027,8.676167226978329,11.917174730446877,6.953925442382319,-1.8142445777315581,-0.07677711397562437,2.3366580244591915,-0.7664602589890552,3.535335857566161,9.601831320623644,3.421608754733691,-2.870722722013415,-1.3743397768065875,-5.761000035416072,-13.358671798081174,-12.429495969263726,-13.478126269116359,-19.6715067834017,-12.792029658408048,5.382547855581443,18.714544821104198,31.601324854869272,45.22177688077925,44.44318932900792,35.335967889477956,35.648734215356995,37.12299447350639,30.359105117196606,24.656153273914505,15.53819804241697,-7.198209766791548,-27.78762750377041,-34.785063869179794,-40.99692894824991,-47.36142045719184,-46.35044835349349,-50.587581469064624,-64.52179008657421,-70.28260919129167,-67.46854774416822,-68.06149354025736,-64.15001864082438,-53.59810185543367,-53.72481059365088,-62.90937227785467,-66.91635426448926,-72.14697688345416,-80.51472246146433,-77.21263926410873,-68.54288633963267,-70.35058324836913,-72.66138843677484,-67.25655745307684,-64.51766828334215,-60.86444252475876,-47.97267252831807,-40.81273228353861,-46.48036870743354,-47.65412967824129,-41.150813101279546,-35.7171407684704,-22.282661766641667,0.2954226390661754,11.826847252057364,11.345320924870673,12.759626617929245,10.548010668855852,4.291733240583707,12.75648378014745,34.02934619149064,50.33048981354999,62.61373796187143,68.9163142374347,53.21256190529761,23.781866812316032,3.5700043242571793,-9.579415511232142,-21.153015058772,-22.361344703517087,-22.454167197778105,-37.26041100964673,-53.66975381695303,-59.82215912021906,-66.77753149708349,-72.78667666238546,-68.40275186626003,-67.82030004726695,-78.42584094013222,-82.98577958239655,-81.21208112336062,-85.2294285325197,-84.14708258585972,-72.24524894609601,-66.92201308566769,-68.25617949322383,-63.74969417144605,-63.454237942703294,-72.81393873881849,-75.59338643469175,-73.01598137640536,-77.43593493568675,-77.48931785661784,-66.0937414549385,-59.453659327741626,-58.94838973695692,-54.118952837833874,-54.41236815291447,-63.38593271037147,-64.10573375278753,-57.69374868255115,-56.98617123456904,-52.48972698257188,-39.40874950766188,-34.95981948856398,-38.969777558695746,-37.19400250683529,-36.54216911925023,-41.480671630995886,-37.7550442731738,-30.35713437942855,-35.532898778734484,-42.255658058863375,-39.65707785352908,-39.101209937942144,-38.22230041541564,-26.14611981856241,-17.14349478556492,-21.234066766808112,-23.167978111329788,-21.01481011275537,-24.219023849346076,-21.370031110858697,-7.889576519579543,-2.9172650397679534,-7.238231913317365,-6.273891240434271,-7.082762221887419,-14.324879025976951,-12.173555767102027,-2.2573045734499564,0.3162887981610397,3.242501536464325,12.7776953709255,13.407878234546857,5.971898890093071,6.0561449270907115,6.78663075799731,1.821934071823106,5.924025828462086,17.081329891962802,18.921014007268838,18.754097442552304,24.480741322381697,23.92112484836194,20.96087688858134,29.722851574233506,37.884918565105856,34.56381369120051,32.9675388626548,33.694882931726355,27.092347143650578,25.401454188446863,35.14367178667996,39.233156089746025,37.07476358944396,41.33331983206699,42.409785579690556,33.898332425047485,31.764823603166192,36.024161080461006,33.67990205430238,34.058035983022194,43.447545106924,45.403488901408544,40.25315744300963,43.07241880241556,45.37501438834308,39.18834855645913,39.54697025848425,45.676462076187114,42.50003899298383,39.83400468227624,47.37340460244342,50.39794452252657,48.08085854392334,52.810529066533455,53.92946399750397,43.54271797778272,38.22784583336437,39.603413271297526,34.3963602683266,31.026279000018135,37.39398308416797,39.89843458875009,38.32583436864542,44.00241495970971,46.37530312062612,37.885667398254114,34.72092849275708,38.8064999923653,37.070789641448656,36.51352332570668,43.11248615913574,43.23318370340161,38.86952751805862,43.54880766437439,47.27164886812804,41.32190041875032,39.66437277016247,43.140726657494454,40.20987026500089,39.953061949103436,47.997728154561145,47.96732556494909,39.67530980018289,37.004825230448134,32.50424727530043,20.960568482934697,18.371081167355783,24.269398521892033,24.153498112785535,25.523611575349342,34.319632147858066,35.065868288215974,28.907967084150464,30.93642816271312,32.27527312632991,24.18730916212362,21.053434450668025,23.706703367732526,19.923683098897946,19.63812550269898,30.031571202151095,33.83963040737694,29.490938889626896,32.22150474582199,35.274790815758905,30.13016733986486,28.949083533739238,30.188352763806435,20.940633529139326,13.016191048086652,16.75901318193426,16.921134450156696,10.994706644241045,11.059104301485386,9.441392601031207,0.36397402249869204,-1.3861206272637006,3.278471795361817,-0.17649000530125436,-3.201965535865336,3.105951533094504,4.224403932493835,-1.5786781998196706,-1.162761104632649,-2.1515932030918794,-10.982409513745356,-11.425687633252743,-3.258062501481499,-3.16838855756785,-5.712942825620011,-2.6809258483356833,-6.759962235154408,-17.55071636460031,-20.2315263520922,-21.540482078740418,-28.984565773222425,-27.879855047306044,-18.156858852241314,-15.812053167885077,-13.971302551391462,-3.5664462468176525,1.5832543598908295,2.1612186080341096,15.698441859153176,34.54567571202351,44.94516620028429,54.96741103277023,60.9781073827644,49.03634035053379,34.793344076559336,36.33817641602524,40.31689541004432,37.943325201691636,37.54206074153103,32.84517161883069,18.468717482799327,9.287727593594951,4.8282833937084115,-10.603266554047769,-28.001063521143475,-33.92761408637848,-37.94700632262095,-39.92120507985818,-25.114965563303368,4.021941329440626,44.487504446917434,105.4434877717333,169.63021896957804,200.31517532735975,191.76893481079478,158.77549220021007,108.79452113763915,60.917946272377975,35.401561335346,17.675298927292076,-10.632731936935496,-37.3112925631536,-55.25807914461197,-73.30520425896304,-84.66760696111726,-85.23993810808864,-92.81023625814547,-108.73404538321972,-116.25041195449009,-121.28450793916029,-133.88120911429925,-140.4315280221997,-137.9225295513454,-139.65156262373125,-139.47617987787075,-130.74751095787983,-129.74841151062301,-138.95146188245255,-140.29979471002267,-131.27833951020727,-114.34427895474792,-81.28116560385098,-45.446369586904794,-36.35395574116542,-52.6033507264015,-74.52511143655363,-96.99623259673203,-111.47026529250363,-108.29641390730973,-103.79814651950467,-110.12006357369975,-109.28321272461466,-94.49778631571039,-80.1662508815628,-65.09191998515492,-46.736632506859365,-41.571430904557964,-49.49168478478516,-53.11783752292914,-56.98183096490483,-67.84974503764519,-70.21619406213398,-62.965548234929145,-62.064679571944474,-60.83661239388797,-49.032757002068216,-39.78405401973843,-35.480268308905146,-24.12095771424516,-16.28520075719407,-23.148024103258095,-28.733615225279205,-27.548513879166542,-31.50391248364135,-30.999861253908147,-14.318584095241777,2.913084827794079,13.703316699711339,28.27060774042838,37.09244736387222,29.83755038801634,23.0032099499822,23.164209455992715,19.55166887469916,22.5254331640825,45.79061492797784,81.2466835793401,132.4980875873418,210.64087362984236,292.1399061074822,345.16219381650365,365.3173892259716,349.2390269693445,294.7999249288448,230.42409513580765,179.8082976322948,130.45392268845438,77.93379275605749,37.7091592856616,5.760606832041923,-26.12515305786575,-46.02860211114214,-56.434347938124304,-75.43512127038778,-95.1614868712195,-101.63517871372777,-106.69095904440955,-115.25942490418214,-116.44646173455037,-117.94363565012833,-128.28096870065124,-131.30869600524147,-122.26848256314724,-116.25275201438546,-111.18357898446598,-102.20708198821504,-104.84890355931535,-119.36174515393913,-125.60196044487222,-124.94436503654345,-127.54302865554172,-124.19032848448981,-115.7198240602484,-117.04743448250943,-119.99660053029692,-111.59723022456087,-103.42179440985095,-99.52088290703048,-88.42453559202309,-78.32002761902865,-80.0251445127681,-79.52727882970525,-71.16996463692115,-65.90037127634315,-57.10484748730016,-38.83433343760011,-29.370930273278077,-32.956350921521604,-32.145465179989095,-26.903128906436667,-23.38021617849899,-11.680709211982304,4.183212560954145,6.23300814368536,1.9162392618879214,6.3802661191886365,11.576587901224134,14.96588165370863,26.015058696259665,34.05498626547584,29.268763940715196,28.41327406615909,37.17079177192851,41.180349812353576,43.74037937978433,51.81989333224084,51.799885000010384,44.25792397751641,48.22034022371209,58.58867014685493,62.31989525637185,69.38761347788723,80.3760667366044,80.39152939422581,77.36275596780874,83.90272829893738,88.38188296543977,87.00187508604864,90.78680746891192,91.4256966359275,78.97854292919938,68.1113307866455,64.80792232490276,58.07403222682903,55.28380287406163,67.81836016360478,84.82279460738384,102.25148838400906,127.01721671661488,143.08742482560893,134.51656833307317,117.43474973426157,104.73538219188882,90.45743504544438,80.6722164037865,80.4523345872856,73.4849324004404,58.090907687866945,52.185677493682434,51.50598428890474,43.70842470436002,38.38717837387621,37.85411029846722,30.376742295716785,23.744029387591723,27.0670759391933,25.909858987847564,16.9765852152724,14.220690527824717,12.814808313479745,5.5293559374294174,6.394585144306261,16.68886914618691,19.891908263620035,19.697700676634486,25.417290275131982,25.494620366371436,18.915271430212798,21.614262569557564,28.85197365137122,29.60216773748795,34.5415084410605,44.62963778095586,43.79098022063826,37.927303213755216,40.10362472014297,39.386707278301444,32.184555820197204,31.979160466815436,32.78633910259889,25.42014517646127,25.471836800168166,37.82275977457804,47.16642582657401,55.88063469622502,69.5056293214055,70.92325194032179,56.23786704029464,44.18133273560752,35.036124729546906,21.12428356177555,14.651368260851278,16.20705296519698,8.543171303504852,-2.9605894114779585,-5.990488754201157,-11.824192928126886,-23.247699271903482,-26.08115034528778,-25.82751888681709,-32.52821036219623,-33.71096005996467,-26.465856800455605,-25.262144210687218,-26.01447568929708,-20.285092669612094,-21.03710763167936,-30.38670665409383,-32.142034365699104,-29.624289366828776,-32.409401684587564,-29.426516843697094,-20.70192050609165,-22.865275897592813,-29.10794246473964,-25.67983578564844,-23.578692130920608,-26.60059426165472,-22.403796706842115,-19.264961363292237,-28.244870655145228,-33.75158734406009,-29.381686587633986,-28.713495340870217,-27.024870105110438,-15.84774050914635,-11.211957420515454,-18.511789399617772,-21.772031718827826,-23.053721178654964,-30.436327849861623,-30.354477919794405,-20.41076717226599,-17.670896960400572,-18.731738983396365,-12.717930394495474,-11.529403404424825,-18.767155817337294,-18.890626953909283,-15.31539204956297,-19.213487716617237,-19.69102820782247,-13.969031630845455,-17.2960329516901,-24.381500045568078,-22.220106766129334,-21.244504954813006,-25.50058744496267,-22.298264483964957,-18.259261205321874,-24.834117823382925,-28.559533590697768,-23.16192260034379,-21.350777816769273,-18.71156546954699,-6.500575283914516,0.3326009437022641,-3.847617276137481,-3.9920897576660592,-2.782156319864597,-9.229374183038086,-10.01581540447545,-1.698312737246491,-0.9786766161905102,-5.853384431889884,-6.741300898575169,-14.050899227239784,-27.661086087439568,-29.874595004167908,-24.837322306525472,-25.786656726318782,-24.129819369245542,-17.503745712850908,-18.940101290681785,-21.645139874180625,-14.054151449289993,-9.53555806416575,-13.859912037112933,-13.353397163532133,-12.182450271816942,-20.062241329062427,-23.302822195642413,-16.84899106039392,-15.517274320306667,-16.364075533973946,-10.170634658565609,-9.74296242863129,-18.544394768221373,-19.91842937436249,-14.863635528090043,-12.358044717250277,-1.4626841066288288,20.412373980389795,39.433574867526765,61.658178709218234,98.3395324019299,135.7869502992347,165.3593932450969,194.68417498524502,214.28805611925,211.69180158690835,201.11863109068912,191.90449954563408,175.09510663828942,159.88541968048352,157.87406174648424,150.41537817679165,126.38946400193018,100.47247354284133,73.67399770469144,40.784513271416934,17.717493536763918,8.225088763011813,-7.130763673275384,-27.97638716065217,-42.55828896861409,-61.02807834555798,-87.52951694495628,-107.00330599685704,-122.29298662351017,-144.3492306687966,-161.56919795526784,-169.0803711127722,-180.90596999982574,-192.66017707018216,-192.15428894551906,-189.70442060701856,-189.34349720764772,-178.4310329795996,-165.55994070727354,-167.84101126701785,-176.2951994806884,-183.36075730564986,-197.03969788287742,-207.07035978353144,-200.05353937005157,-191.91882791718223,-192.51050071259445,-187.7132192659463,-179.01235832381576,-176.55987758964517,-169.09043153697604,-153.45553679261042,-145.48769726927756,-140.2645702065704,-124.31191360210437,-110.08214836660528,-105.60521061423049,-97.8148693980206,-88.66516268322681,-86.9821468603642,-79.69094278716013,-62.650630333934544,-53.160385642530265,-49.486587042323485,-38.6664547962438,-29.42782683089299,-25.868073855320763,-14.667470218571061,-1.2480653877456591,1.3194152652118791,4.397461994277324,14.353666261485003,18.24257722848132,19.896500764655002,30.227006424953142,37.602241209500825,37.2344201927363,43.52405242096259,52.65471172217569,52.84351290578236,56.468306197902095,69.65594714843014,76.11473246071638,76.91161731286789,84.0039612990598,86.44871800265499,79.67464397699148,80.75298678611333,86.46135350126734,81.99565300847495,78.74449428595548,84.64579939390676,85.00331828693487,81.4067605167936,85.65395396327119,86.68468438894077,79.46891372080678,80.39093559593074,86.75235063610461,84.46173047880512,83.5491861337654,90.4015481101423,91.77756667975146,91.43425345932458,100.41385364805681,105.14621179631,98.21398815548986,94.79980833068507,94.971102751725,89.53352711101957,89.430948631412,97.54005526859987,96.32409513644714,87.66241336616322,85.07182264948439,80.24883156635211,69.49834454315956,67.13522841056917,69.23929098572118,63.46037832055689,60.69558002770123,65.95969561489692,64.07987881975004,58.63357428777321,63.12890458666753,66.99114621196199,63.92879142268545,67.43555577327656,73.8528913449034,71.02012188636863,70.23681374337774,76.9691443722604,75.17503826942563,66.61868370928696,64.84805070195264,60.942413514224455,49.37580225582202,43.937951827992016,42.17268690808411,33.295801626107696,29.00202645897535,35.01425148818539,35.343683275764754,29.899167496062603,30.0533376389204,26.846636607101672,16.261847126194912,14.21495723284522,19.427552907751085,19.595871618508344,23.64410407957909,35.296788208370295,37.78560939258754,31.866249576710906,30.449500296002714,25.15236187835505,12.080785382360439,7.421640961687725,8.954687420743983,2.436760593819973,-3.329703280174939,-2.135594127572273,-7.4146288579564805,-15.81735553630079,-13.956911801996208,-12.720309584174737,-19.98404079424033,-21.45249477838151,-17.769003637357283,-20.31076105666291,-18.996263494989453,-9.133543303939701,-6.386435220900031,-7.9152172418774835,-0.32421041749183654,4.891102644027784,-0.7855239977068891,-4.691784143703228,-8.893218983197965,-21.896047008324125,-27.72568271850816,-19.423074717201487,-16.166243314179695,-19.02904128506565,-14.19267556920156,-10.039407557304589,-13.166642895079846,-11.503405942100349,-10.695711876744857,-24.86814009537029,-39.66887750940358,-41.74812121664134,-42.80223184071632,-44.416531870335994,-39.13662353158986,-39.5449378042058,-51.66948610280501,-58.90663920524898,-60.48793484943181,-68.28781804811604,-73.27432087802656,-69.38464786325711,-70.23815459362976,-73.5159321273494,-67.02117587011082,-61.941499363901684,-66.49940385925062,-66.9835560802535,-63.523897073473975,-66.9247518454287,-66.50526311066356,-55.8802636064806,-50.58486979427163,-49.61160670388618,-39.59767404524983,-30.54587920172598,-30.923399913982053,-29.128512911384888,-28.86892360416797,-41.149250720996235,-50.41362674976699,-46.27623288989798,-44.306911857755914,-45.66566351430369,-40.03196459716985,-38.588015660304094,-46.131307845882276,-45.48107444842729,-38.71665943168939,-40.83439899962288,-42.1253262933423,-34.361987918571614,-29.987614347002985,-25.734952198085054,-9.816996164251446,3.6807841634122758,3.9416597648217904,4.416656120939821,6.2664539645146995,0.21477668099797187,-3.2721116541808266,0.48084041820724277,-4.560003541857977,-15.829069511139796,-16.642651889280042,-14.160236461229193,-17.292273702751018,-15.31558267858825,-10.882063650515445,-16.261611286491622,-20.556700952318057,-15.649199033505651,-15.441945350791785,-18.766620566916625,-12.556917868304815,-7.472806615881824,-13.742977873564229,-18.926108695504247,-21.626374526074436,-29.63904640799268,-29.76574255582931,-16.31101072619135,-9.390836196629218,-12.697357972001207,-13.254098648914404,-16.717434463637364,-25.53690020298292,-23.274746006391005,-13.02227432840374,-12.022473875943597,-13.183331221045366,-8.869897705865498,-12.35046150376332,-21.23595329300976,-20.179471524930204,-17.693730265605396,-22.043382009958073,-19.812663147321025,-13.17860732730356,-16.682635502630944,-20.045594420256666,-13.970066015631811,-12.119167396263187,-13.78801158957889,-6.446435055474312,-0.8066041285600367,-4.79098212203711,-2.672791684636941,6.4598269325279585,10.231627621438413,17.52753339217787,32.37459774676999,35.34978014919696,25.738214401022972,20.43879120078827,15.042470118053181,5.418561352043171,6.741825311478323,15.622786269949922,14.944666372911904,13.186547872168921,19.91162356569742,22.119010274252688,19.87676993805916,25.280872836689387,27.883028112970045,19.479655497003165,15.975415098279793,19.600957162700492,18.12450546654469,19.500616606520857,29.17940853542316,31.096712227516534,25.347387913337393,26.11665704911288,25.69337627777474,17.309225375623335,15.42287698321094,19.80591447943934,17.177472921963364,15.60469083233232,21.09715485601234,18.218397129144453,7.7278786721751676,5.301842405230339,4.5986785298153094,