-5.703620503915504,-4.403660142320033,-4.092504305445731,-5.112033610093485,6.991058358980869,15.614600874786397,6.180444430334324,-0.18791820914588453,3.2185459544127575,1.495563967744204,4.655501792289398,20.151489610258633,24.193864534969656,14.632272243881093,13.686301104065802,14.109992357308512,6.719713480660129,11.573661751928265,26.714222393844913,29.205298569165986,27.839701419626394,32.393994311775465,23.941447937586275,6.39741603971849,3.8122215742418444,6.255216794235749,0.4798235599881444,3.3946675487667157,13.252690319030714,9.14318650351599,2.0863875706505977,5.383189689640477,1.2434334498165098,-9.955747101606352,-7.453380291572835,-1.9256613218297467,-6.510633495396808,-4.26017206363979,2.418447640019174,-8.06618062189652,-22.01983008889983,-18.74547761932955,-11.39310817242148,-5.42723367403595,8.207618873871748,10.791443636290126,-9.12395266012787,-22.151994359910322,-17.695791050993236,-16.046750649416104,-13.488133609138327,-2.8315051318405056,-3.5457431612675294,-13.410771809024242,-10.790672746952456,-8.365410760792392,-19.32514451621274,-22.25228425223945,-15.478987908420581,-20.349701586755295,-25.75860595002373,-17.723036687548742,-15.943445966000775,-21.789541126447684,-12.726857245910415,2.257726860435753,8.35584424916777,20.851222376569297,35.11752256492425,25.68579760293116,7.989949057074347,7.66693489481172,10.729382630719012,10.410796515304915,19.66239246745615,24.239756439499907,13.902299203186185,14.24506597185014,27.40145084309718,26.3465350658387,16.837180407513955,15.883621756717087,12.43880915377724,8.434571583720357,20.463109735786833,32.40316148286963,28.60453089464508,29.409303018557583,38.385486407966816,34.72633002159773,26.600125298175456,28.424766163910512,27.075936187146652,24.546354584188652,37.44047473372935,48.05165140546253,38.0702117003575,28.122033179586317,27.26459790189419,21.19887671171736,20.101550039412913,33.456421672974635,37.85171829093863,28.586257770013738,28.55886445371766,33.422701211769905,30.50669891535363,34.489562617628856,43.657287874381,36.16496335215302,25.401133363047457,33.191704868821894,43.585012776224524,46.43516543638417,52.640125126116345,50.58364593884827,32.486653809346834,26.06550991013745,37.83701628267568,41.90713727177608,38.60006016096294,37.8780668346084,25.662225819314635,7.818507895010966,10.073873151577272,21.336528754272518,19.912253581968233,18.491391084392728,22.20239405157655,16.096571478355337,13.107859489569385,27.72016413646205,35.308799277166216,25.405761009017112,19.961769398455793,17.356733859784704,7.070276109102864,6.729545301404119,17.19268612520019,14.33164448029527,5.061943854014639,5.8385865046128265,0.4720264586881844,-13.836379946907805,-13.462324462379442,-3.459387115119277,-0.8059088900982591,4.766786504534092,11.13610800999999,-0.3302433715837294,-13.442806942823987,-7.148914903130966,0.2946552882109641,-1.6475245936103544,0.32611387209522946,-1.5080645363495826,-15.087555211033294,-19.706610554511844,-13.451157630966662,-17.05850374215168,-22.006012910085225,-16.08624095634392,-19.93992551073045,-37.582504535198034,-43.96093588167306,-37.78658853095686,-27.82104990548107,-2.723208273850455,26.696239719683682,29.28797044961324,14.677579475974401,8.92886871937749,3.753613052885795,-4.792343601822487,-0.42685754024113676,6.927059508372061,2.7539356063059053,5.71946651031105,19.404686340731963,20.386538450003407,14.897579304529444,18.657557604861754,14.322693313016394,-2.0953797128406944,-8.063480353778813,-8.25759939149506,-14.926480037224996,-11.509067212059772,0.0077540947588401465,-6.495690107647341,-21.97677938459598,-24.8420796637442,-26.57689631630401,-30.004613044109384,-18.083535355294657,-4.219808608367468,-6.987816025565589,-7.372942201474393,2.4492779461754175,2.0137750768564926,-2.7398480110129992,4.065847634777327,5.917072435083307,-2.120404373944169,1.3649561790458185,8.805122593349253,2.8543959384813995,1.7013892087549491,12.20651973494233,13.073951044168762,10.051491435965758,16.455942428218062,13.022934371096122,-2.1342588541412963,-2.4876351823726996,6.419948628480389,6.161286073597244,9.691302958343108,18.83884580061909,12.968639885448624,1.4925021524150472,2.617338128266651,0.40797521099246126,-10.58268922262675,-8.72516659227888,1.042855732857019,1.4210600129864797,4.636718158716391,13.26472306367851,7.626955687398796,-3.3756519512936096,-1.6979497446065044,-2.026117655877067,-10.011456189690374,-7.849595046831767,-3.506729463131783,-12.611450325429631,-18.63074897141176,-14.243491856336753,-16.187092130213777,-17.069122587584353,-3.9391711126725744,1.5601150748527308,-10.759355208582111,-18.81312509501784,-21.19813094092248,-28.430474191919995,-25.483091136824132,-11.736301364534164,-11.04675772878264,-16.381858288706724,-8.949712474701853,-5.363234800408025,-15.397751819956731,-20.220670571547682,-21.708875569569177,-31.039592450167437,-32.35320466753329,-23.81674692666484,-27.253013058619246,-33.064322244552194,-20.26407373708639,-4.472814931431165,2.8554414451401877,15.577616273006559,26.562229348179123,22.826089335389206,22.501611350012734,30.62628216943374,25.182488935942843,12.654503692644404,12.493096316898244,12.096742910689029,5.788091906055723,10.89929441763488,18.85512214873728,11.998819500293216,5.996515062714918,9.23576830222492,3.3086496218355523,-7.382160462662055,-7.0359111208406055,-8.866390796227641,-16.786274068144156,-10.195580087550338,3.6109560323586707,4.119369841335609,3.298782654748274,7.411794257888665,0.14688757684845877,-7.86858904330129,0.3210445120147556,3.9935246209550823,-6.645927047212167,-9.149531580851159,-4.98116366659233,-8.000925583654103,-2.4991785300977467,13.303970385219255,12.300961982710483,-0.6858004969280023,-2.254267153588206,-2.662543180640041,-8.675456375749688,-2.5251465688904737,7.849259033945291,4.55953108241459,3.8517122824641548,13.957803068995947,15.392219343070783,11.78225372545399,18.093235652298834,19.134216753631264,8.128661693201167,5.975019015501018,11.14142099520495,9.26747620950417,13.192804156244513,23.96266228165284,17.44111490626667,0.8017501649769843,-2.657989197598204,-2.045609447573161,-4.263560405638894,3.9550409433843146,12.808803678562885,6.4205247453214795,1.62474042888144,5.369493159189256,-3.3173902865513174,-19.04339890532838,-21.54639982914295,-22.050929204020687,-27.165943429485594,-21.06582684325032,-12.509427882187007,-17.726712412787037,-20.29841190348357,-13.786291618902897,-19.281864526816335,-32.10449725253006,-32.74657498850045,-32.853653812567146,-40.05037796382328,-37.925712698222426,-33.84598937972033,-43.77256735630205,-47.907494591623475,-35.110606485472914,-27.77628376204688,-27.13314566265489,-20.247897925176716,-23.29150055747162,-41.1759148783369,-48.79284190164622,-47.01251216589808,-51.7140004406713,-48.410712824852894,-31.61304486766297,-23.93172631554909,-23.652388782618008,-16.233009377262903,-17.057754026557063,-32.034783334460975,-37.43772063408106,-32.89830940261545,-34.583731677888906,-30.119524265859248,-14.460994782390813,-11.822377163580484,-21.146449781026792,-23.373407841168913,-29.96028331514853,-46.96648966345316,-52.8505415163019,-49.527032564297336,-49.41506643868074,-31.690412653480813,11.195052777945412,49.91149505002124,75.21752149720305,94.67981676070491,95.40711322500245,81.06842724571597,80.93305440251717,89.86005724818062,84.01512324800348,76.36597316292438,79.54125988635388,77.55424462819724,73.01457912417533,78.41391675557044,74.51454266429265,52.91369189414687,40.807452878668855,42.16863717198079,39.55255102020354,43.611914916634106,58.536448503454885,58.95940137258903,45.65976924797353,39.442043380028636,32.66340692647479,21.620870852019227,26.226132869169724,39.430070833875476,38.82451080163303,36.26076450867162,42.6221272748128,41.30529891876135,35.119345871901835,38.55568135173824,35.807051202254144,20.117445592105355,15.296896229135449,20.143949783364803,15.491455997087707,12.334090322117355,17.490305011220773,11.501002030939524,-0.4754644545272515,1.5626078572832163,3.670689417502072,-3.6089915509120223,2.4421914711792985,21.209637325929908,31.068815146307934,39.44397810106352,51.324036571892286,46.5207760403971,31.41651767098032,28.237269742686728,24.098035668263908,9.608271442859776,6.274767860255852,12.302634533490046,7.639561644641151,2.097606106445844,2.4953839864338607,-7.150328207048512,-16.670705775385972,-6.075948064176384,4.749613669596516,-1.4995770558311943,-7.646500194315677,-12.229273251444003,-26.566180940079043,-32.27303055383313,-20.8975007232874,-17.48550717820641,-23.261614564627124,-20.311747881617606,-20.3554996217956,-29.718674507989796,-26.427496482617116,-14.990568871762491,-19.029613608894454,-27.698714981415186,-28.26453579581362,-35.3242188285245,-44.0003005677147,-38.310547237224725,-36.682318319817625,-50.453547428280295,-56.13988703657199,-50.74787319427656,-50.63435119727498,-45.55766824919002,-30.96216506603534,-30.514828354303212,-43.6520476610957,-49.254921392661544,-54.38296432885674,-65.28418551368127,-63.027515409374494,-51.63288646748997,-52.480642589270566,-54.81228853427106,-46.69377770325312,-45.40453412443093,-52.906093258062846,-53.97766827663916,-55.568445805005055,-60.8022631101671,-50.40447465317758,-30.033533654442525,-25.26954333752309,-30.74085738594824,-33.81504411439293,-43.126867172511915,-50.82706322087593,-40.64069640822383,-30.698241146445994,-35.80644586158137,-37.26699954079737,-32.805780759009046,-36.99202234715032,-36.39408906266048,-23.101992805724986,-20.319167664086628,-27.962648395467248,-25.623925346694172,-23.535463546944737,-28.833107631188412,-17.941254403507138,9.099786901073212,30.168278665896068,50.285369752429915,71.48611450872916,71.0212211074129,54.0865447390831,47.75210972395812,47.28372026341678,42.8628483075771,48.72423957674774,59.86334317778003,56.52080630059086,51.57746204824427,57.7238472445048,55.59140567251062,43.059918381575166,38.98986457944862,36.15313844935783,27.86309899676418,33.22897533770548,47.586456332352384,46.94635298942332,40.34559008453158,40.13385270031946,31.30728287565074,17.804601744494956,20.35464724788177,27.135450840400388,23.628103232705406,24.999594521753004,29.485651647561873,19.321362408755043,10.757219534261113,18.988327862287925,22.416119645316652,15.780410522438935,15.850544358549545,13.532419407062026,2.3460524261885367,4.302925489720486,18.602102124384537,22.999289722371714,25.635722574692362,36.681621300421014,36.189364031101945,23.638047042173174,21.571131813902618,23.443830756671108,18.527145459962902,23.36684928966752,35.57244874106396,33.91971889469883,28.718713866052042,32.90888944076108,28.799154167440463,14.979931993701962,10.214691597851155,7.318870184988343,-3.3514466130798484,-6.993624428199059,-3.3396928811585673,-7.156181869954775,-9.3931330581676,-2.0641018973583094,-3.8687011507674027,-16.485381219448723,-19.33106501229643,-15.090712218634348,-12.058896996845524,1.6320827663420658,18.907387637449354,18.391999106666972,13.774911899904286,24.593312095126308,40.81273528019439,62.95098180265595,101.94506972644008,138.578213581629,156.7173178175769,172.99017339376957,188.08074728527097,181.5210368511021,159.95391828293214,136.40808794637513,104.78749542087554,81.36213522284957,90.56794630284939,107.83339126202523,100.65292811031708,79.28417865841276,54.402601360161725,24.906286920184478,7.596074884849841,1.8733775731630675,-23.213053874796383,-65.7148178863518,-93.27310134406626,-106.3651869480787,-124.10535424914032,-144.4867219362271,-169.13180217574381,-205.93806531119165,-235.26171034699465,-241.53795802588223,-245.83610801063426,-255.02482817492904,-249.67703837882033,-239.20473128562816,-242.7504470299584,-246.59181199195564,-245.4770670830701,-252.88386315836723,-254.2486612830553,-235.94134348663687,-222.11322380348463,-220.70367039877627,-212.49068399175812,-206.89167171933065,-216.40459693685196,-215.83482660101987,-195.99294250682058,-178.58613890914933,-161.63111316920794,-140.30789912359035,-137.7767346137265,-150.87570318719577,-146.53297887978633,-123.98646845804117,-97.58692021317809,-58.15960101307344,-12.861575153087902,8.943224912309159,11.759498169031755,15.25631786436271,11.802741296063715,5.276714275612552,17.003430312680596,35.69438619675861,43.658488843647035,55.56187292197937,73.11372055716257,75.79989687181941,71.97802306943431,76.4695243979425,73.84028450677208,65.4892122929088,74.00423824972182,86.16860678904591,82.24179135743253,79.36619922716784,82.49141779631239,75.12246836983506,71.75681477130541,89.95537782667977,108.64274801543334,116.83428844470805,128.02702905008877,131.55824713983557,115.98251016397884,104.36210735967968,104.66818523824136,98.19718599154814,92.05921341827263,100.55263941265241,107.21919303916908,106.196261159902,112.21832913621904,115.10189175168799,105.4632059811028,106.12748230750972,118.90642160609727,118.18322836832375,109.50767028898947,109.85563357538254,108.61767103802964,107.28871333621416,121.22934761783189,130.57150607497277,116.01529225215631,101.69608870044362,100.28539778727534,95.00703594029932,90.43479265984837,94.9915335643344,89.18795589549086,72.21914534753407,69.12025278702612,74.79284307577666,70.95208536779339,67.7352656541156,67.15170933859136,54.270077875813165,43.53515275054505,51.89130766980422,59.35839413764626,56.882107126207316,60.16846289304664,60.95224578842589,48.21671061590902,42.59833571575285,48.2590527278166,43.623381009584854,35.42908580733015,37.40360926860282,31.30659226905196,13.99647920699479,8.847074374111218,10.19929508891985,2.623703803867899,1.6044932223788444,9.3906408107589,5.049243336268889,-3.1551434123899638,-0.8387777288273486,-5.444286926032455,-18.284118890722034,-16.3857797909075,-7.429595581452292,-7.552417108143332,-3.2008952623917954,5.291922472152155,-1.8600891732931952,-13.164100190843065,-12.602037718469166,-18.166280480722033,-32.927970373982326,-32.82954574893226,-21.745232968390134,-16.35216214808305,-7.322279723619246,1.5848116763331253,-12.645634355155046,-36.4723135877168,-43.322424094380686,-43.91628075686097,-45.881800734274506,-34.919679670476434,-21.938162555836584,-23.501029714575285,-21.59484892660388,-10.401088976481645,-11.322834122970486,-17.46831765796043,-12.214701380553286,-12.263287745831601,-24.049744684721137,-28.378663028611967,-29.35895300397719,-36.72121565911124,-30.72573077958497,-9.588465279936743,-1.1125070580591863,-2.757778676321936,4.239938406796204,8.426924391141569,3.851974330477469,4.606567673893121,1.6701804443698915,-13.842528519959673,-15.167401066639032,6.3564383722902,20.707580141442325,19.006191628487556,11.394294581218944,-8.430427473692209,-29.48902656237023,-24.774049016732807,-8.519959033373965,-8.762710289612306,-15.51733226609242,-19.347191148387694,-29.8467947957076,-34.51865637945432,-21.176034404774963,-13.715860372362737,-22.61811371496617,-27.553514739394064,-30.45651406072954,-41.20587794057833,-39.3350447657816,-20.183060396737634,-10.58189750799076,-12.095970436891186,-12.413544870631556,-24.74498905935034,-46.67483523454467,-50.4399042755854,-41.68060145601204,-41.688168619979216,-38.3957580926309,-26.302342897916873,-25.000446052758104,-28.75474543658158,-21.97685208512706,-21.308712319992562,-33.105749388105245,-35.05200941188253,-30.099875563157987,-34.08460371663183,-32.4160800456023,-20.79283284124203,-20.575703085003138,-24.99916575738512,-16.541802695604595,-11.383705307574285,-18.133102986870714,-21.057390535260033,-26.75532575723648,-45.18725890766265,-54.3530269033195,-46.947744486555905,-44.89599433905477,-45.86080582070595,-35.42320565525034,-28.99012107046175,-33.798107141194734,-31.676005035950965,-29.599921455909126,-42.34672779845843,-48.43948998818329,-37.35055597155893,-30.736682817137677,-27.613093176786148,-16.661677285317296,-15.865603426137625,-28.83276155051372,-31.412746022620844,-26.97362075259401,-31.591471989257148,-32.233659202268555,-25.30180273481151,-29.996364698067218,-39.099766174856484,-36.62146706160686,-38.38299236220938,-48.986703965873026,-45.661903705681055,-32.8147009761973,-29.116661055256767,-23.869732484039886,-14.431607494287412,-19.112264797713483,-26.121931349561745,-14.958327284342452,-3.360899237680947,-3.748155196616067,-1.0138879655885327,-1.6010381590088103,-17.611496087423408,-25.9817871414592,-16.47939284657572,-11.878618628210095,-12.295459267267344,-6.484458627121564,-10.63909582282752,-24.172933930939298,-18.198843694690268,1.049072189238589,6.702869259134477,6.821245661970744,8.630131595246716,-2.4697056309353638,-13.074333542713095,-1.9014206820356856,11.378503701309334,12.11388771598142,16.82896899766513,21.38502931461423,12.592138707309001,10.853793219242814,25.17022355079821,31.86658634023979,30.136541185685683,32.99334493470077,27.074907361466913,12.098682810717161,12.879125124264998,23.75482563060071,25.314758310258178,32.3709163898401,51.345531631004846,57.516260067517166,50.87008976251175,48.310575454478624,39.89163415490513,25.83519088848051,30.910591610684126,47.457972874217496,48.272878431360766,41.941562370415255,41.10899035958025,33.33234434808165,24.70898455413538,31.235807984513222,35.43387268853841,26.334692777695835,24.05717638936247,27.306595313444397,20.918554990495757,19.39162882461212,29.451005255002105,30.18105655135754,23.851838660275398,26.550700430986588,25.27410836765567,15.042005397743567,18.224167089921067,30.132313864349847,28.36751122411539,23.522997617270843,24.724847297774524,15.44828882984404,3.5590375788721635,8.31677289597449,10.848453835019184,-1.5994749516743507,-5.76388773024409,1.3824642543388421,4.928231084355453,14.552415286794082,28.22099830103517,19.61676782570966,-2.0534338048822898,-7.027382524303636,-2.634923163466551,-0.48783544224845965,9.639082015405585,16.393155800890572,4.432596317126663,-2.2899880712792604,8.742571100028215,12.673863880785596,7.107457368404104,7.52887384230359,2.706106347217877,-10.012778800923517,-8.542387096766618,0.05217205538562597,-6.7584031923825645,-14.989087900280717,-11.616129335348402,-12.555825819854057,-13.820336339342637,0.04933178944582739,11.441640107137152,8.532884524749969,9.325711303403462,10.829474813608822,-2.4091040206387966,-13.680380006560691,-12.710062885861626,-17.723997693423108,-22.088650531160944,-6.559792011613403,9.834772179972536,10.909559286786351,12.456828868894243,11.285042961434101,-5.764548648376674,-16.927377647504066,-10.336425583935334,-11.017814527933124,-20.210927114461622,-16.88195102965073,-11.245769715481854,-13.226625398785753,-5.647733894267741,4.4571259428756465,-4.075891848276683,-13.478128604644553,-8.143527865774269,-7.999221331552089,-14.354148809975971,-11.053645849821827,-10.30541777873952,-17.287301391504382,-10.31240529664254,3.017029825819871,-1.9261223686494136,-11.223694124716532,-9.394789889962315,-11.543673245653531,-15.260808093797516,-5.707294157750148,-0.1840781792397369,-8.373279025511229,-6.253133775559776,6.175289019586845,7.581605611544018,7.9173432402600055,16.176442389482062,12.48990225828902,0.36500389961986723,1.856568581593196,5.585337154144363,0.9148573020460771,6.4795267442478055,18.719416548640538,18.037490658818218,17.793452734230833,27.89476834718665,27.473551136299236,18.132561498686005,20.999309758498438,25.56237805510476,20.656287596298842,23.332289330736305,30.682569205545416,25.62005339083523,24.493764308297536,38.25268978420947,42.25337273355207,32.18975433897818,27.049758706324287,20.318544485291618,7.169458237608077,6.6145742465947635,12.669692744007046,5.443323159361091,0.5189736240710514,10.11963757114448,13.819500796134843,9.644197555369978,11.889843995750777,7.447494721495596,-9.264833394978869,-14.57373603329276,-9.68202097440286,-13.100873238104892,-11.266561032466244,3.7769351313734703,7.5639496719693255,-1.3826522536242103,-3.8800075901304925,-9.566390917599561,-24.297614995567926,-24.817510612983796,-13.386260568592988,-13.786453257432001,-17.750046787859507,-15.933006387388676,-26.49506049730581,-44.90028414741316,-46.567149626450274,-38.996750969165745,-34.194047886294115,-18.469139085958524,0.7523679586439869,-0.45655203733290195,-9.223342528113642,-8.459937663775108,-12.3838300678056,-20.418287064282218,-16.87852369158913,-16.019282680170285,-27.068092023169896,-25.871734664752715,-12.297853019807143,-10.813985363750115,-13.92678354680417,-10.38948510920515,-16.28987319584922,-26.291293833360832,-19.13371619997666,-10.765308385945449,-17.270419984355154,-17.976019815958825,-9.791468353362513,-12.576007062703848,-17.103090645076033,-12.83389681898449,-16.79395661187157,-23.367398250528964,-9.549002499782972,9.62418433962502,12.893377990487519,11.610721775767168,8.437555424849162,-5.373841458058843,-11.436350513605477,0.8945387487483947,6.7702779978715455,-0.32995367397527575,-2.004116951709726,-4.2986866179903656,-15.171536237657852,-16.651957295949778,-10.297837627648738,-13.86317443106732,-13.492648722260034,1.5067571845369345,8.562112850990925,4.760308503025152,8.637821740437417,11.329319871834196,4.935782388124416,8.131624977016331,16.532951077347235,9.055048586932834,0.20830771977027585,4.754058940691957,4.0195350159608365,-1.9238571855675937,5.968115990696456,14.62250408948115,11.47446573617675,14.977591359259565,23.63090606906128,17.85990981215715,10.744880669771383,16.222563559649082,17.00569266487924,13.577434216243997,23.678992453997378,32.382600353978475,24.784264594644043,20.26831775118565,23.466817886307368,19.1797016491308,17.543103478313576,24.947982096401244,18.579076118474383,1.8835924355591747,3.2896184141963207,15.35998112013461,19.83681005457663,26.91240506541635,37.060397296945055,34.14432726219817,18.390500376599576,-0.4357628639265103,-17.795692920241745,-32.33803379405342,-36.085437382495286,-20.6646344741484,-5.069734681583558,-10.829332831713923,-19.497976129152846,-15.585000077513865,-18.150039419405086,-27.580542784560894,-19.547305892998963,2.7903167769664163,18.87792536447869,28.266727906787708,31.961173589392235,16.32947071546009,-7.762422456631485,-6.369954394269777,13.511305610706493,17.588055461779856,10.464434753518072,9.152993640999126,2.7950995353750256,-7.042966717377492,-3.5486022389228253,0.06923810983967504,-8.548574417747973,-8.016452873237657,4.580500481043373,6.011832451259991,1.4767437440922402,4.897230752194307,2.7274805017114923,-5.435282887702412,-3.489425444603932,-5.203427684612768,-21.780268634694384,-27.792205018858194,-16.41983745764924,-9.08677328776994,-2.919276667431547,7.973012847768878,2.4061484476286674,-17.891121308517267,-24.251575205663038,-19.537104180859238,-17.65344896407707,-5.993298216794366,9.637508497795416,3.3474008219138445,-11.711639963756761,-11.47354039485414,-8.707320970407881,-9.937245659382963,-3.3073315972155726,-2.150930531325945,-15.8575384279915,-17.976420977922977,-3.0645314298374826,2.1644574863839106,-1.7262943279398386,-2.400734350211997,-13.019495082266532,-30.512525965318794,-31.045828744386476,-23.86816700681411,-25.500867877895466,-17.936970853075202,2.5511053926119107,12.59445105936507,15.397349618469136,20.963678818924585,12.996924938869334,-3.379520683791358,-0.664524300057598,11.733284009361782,13.010830288501282,15.09826169687401,20.956592041321166,15.722764182736071,12.261657916224337,22.686457074852175,23.94557566647493,10.339213935424029,4.987267769565444,5.448946377592158,0.6939957768896896,6.266882701926477,21.748178031031237,24.32695136669902,20.359320771843166,23.520015248543377,17.43521861637504,0.2029561901555592,-5.340411589058565,-3.069865862414197,-5.108530007097123,3.9080659055927747,22.591182744406456,25.0407751215413,16.658020396010553,15.52744196292109,10.773679799360753,2.1190911033020132,8.632453281723492,19.389943558612405,18.233234473881794,21.663460667625632,31.577649055040435,26.602594737395304,15.079662907736337,13.757449187980852,10.297193752871088,4.222089611477562,11.799477516452669,17.367941613943582,3.0696523055312843,-8.948713774654335,-7.366887810856184,-9.794717684994419,-10.780330913584809,-0.8806637042015142,-2.7296476219582155,-18.626213158537187,-19.85888915668079,-10.132326892575445,-9.248123112883999,-6.691717110792888,-0.9654708529492608,-10.479542797094552,-21.49969136958999,-13.505141746389086,-5.264868062570308,-8.292794107409156,-8.076231117401962,-12.182541790481967,-30.99570977680383,-41.254857912145916,-33.51509163590215,-27.933212424989765,-22.250156905912974,-6.9569520393284225,-2.503207664710041,-13.602531900156752,-16.677712309003077,-15.445090038959595,-23.13206078214012,-21.590352568806306,-6.736209050264065,-2.4760978552594874,-5.477922984829511,-1.9040291388038035,-7.940158428438124,-24.33761640893069,-25.270283088664073,-17.282652802427087,-19.67408658160643,-18.17388111829824,-8.66067035092507,-10.83006103166641,-15.077640678096357,-5.0796157163206885,-0.5800697771624519,-9.44695674026956,-10.525817330928655,-7.216095272411202,-12.414286260881804,-9.647497164736777,3.037889334822652,1.437249834477095,-8.167670123854041,-6.7759925424136895,-7.482546270529136,-15.01825192013691,-12.156747728242271,-8.806069053449237,-20.737102177007927,-28.3086656302491,-21.273703412863536,-17.616256309568502,-12.521446271957277,7.112871828337552,20.504864256302444,16.56173946703569,13.715823618365633,9.671808655622753,-4.944700712287108,-8.065878061837882,9.470589183333544,23.299916782176858,28.8146631546766,34.79844336642577,25.2409725333075,-0.5902914393867089,-14.005402633749515,-14.233636880149302,-17.46201985176364,-12.929664945409957,-0.6932308883911764,-4.340289362574024,-16.27189262667157,-15.741875667706957,-15.453575278354892,-19.826627193257366,-8.456869840491542,9.08991171013838,11.643359577259124,14.2561777353868,23.630176285386526,19.320733113089574,8.632339576213214,10.314347352773135,10.519807884650351,4.237243192877438,10.956952681170714,22.815170730071145,20.604702827314277,17.985731822096206,22.197976631826997,16.38180016977951,7.626047681110786,10.863282799418885,11.374050003850801,5.079489556155863,8.74859474515978,14.116618388973716,10.078397577122558,14.946220199001882,29.325665008580586,29.255713590369183,20.463859580350913,19.92549317081852,17.511180943410757,14.599783320454758,30.586623262668613,52.16777814104516,60.541280204113676,78.75775846942832,119.2323801564976,157.5143216404081,190.89929193432636,228.02537952390452,245.56167074387514,237.001852107766,231.49145789523715,230.33588047481084,215.71936983721972,200.81035080526394,194.74717826573632,179.33126558348908,158.52572424130489,149.78250206432716,136.2006887535448,106.20301043691012,82.89619763738875,67.12435019938,40.35212305021288,13.007054599196666,-10.343589662626213,-48.145645049641224,-90.46049819416126,-117.79850272454861,-146.20337897530067,-179.5514717531275,-191.07270372856965,-187.36278128218964,-195.84072355269376,-209.88080175047224,-223.59775894526007,-248.55768906653364,-266.5238325202269,-258.0947148917299,-250.15687184390862,-259.6938725162763,-263.4510113403929,-258.34113517806946,-261.14044015120385,-261.158632774112,-251.68879194120518,-250.51509054931722,-250.22578225174328,-232.92018661099345,-218.20071177015222,-217.5406435348951,-207.38281778422572,-188.6511481640439,-180.74578403182318,-171.05450444325672,-152.84118447624058,-146.71942018314553,-146.08475597829386,-132.58443476395058,-122.59936304163682,-121.64621757344985,-105.86101936583324,-80.33524943148778,-66.83241172718569,-55.41526291777603,-39.23906130576254,-34.62842434173257,-34.23444506719448,-19.91256903605151,-6.212582282617154,-2.0029025451586056,9.8552409216331,22.29036960196196,18.839211311406494,19.334630166646683,35.933136777207764,47.499868189119155,52.87056003089607,65.16914110415198,68.49522263335786,56.675357059453404,55.37091095386511,64.0842898848337,63.82241189740387,70.36198100783257,93.1897371744609,104.95540325007319,100.76155205914657,98.0471334196194,88.94292517402165,74.77562461329144,83.3372812551698,108.51876470898137,121.17393951910998,126.23806642571442,130.80660893019913,119.6279201059011,102.94752164823313,103.5262292563165,108.23940201883276,105.67893398404668,110.92252833392094,117.4077612160686,108.87758664510491,104.01459969794324,114.74339014146483,119.77313127405975,116.4496525312288,117.1749129259077,108.08905710763818,86.7800059498237,81.89612396698998,94.09035813891002,100.29330133961467,106.0597640091243,115.89511733434414,109.27080279903494,92.26415763136802,91.15393207557106,97.23594211589298,96.2434478491815,100.97236918130339,106.76389145150253,95.68356506653004,82.1431766593777,78.67261064505624,71.19706115468087,65.62369619364628,77.69469415708708,89.69419276823416,87.24497195536223,83.27414255154243,74.26970836611659,52.96745861165707,45.074780288040884,59.675771107976274,67.72928158834983,63.99015227779853,63.381627883730474,53.739137281477724,31.681439268336824,24.32655297061638,31.62099329840882,32.0907012701594,35.81019186887053,49.939096788711595,49.35408627097447,32.27564500861041,23.98848127290867,22.256808228369543,18.11107985060149,24.806159575528532,34.66175019508708,25.71952392947341,12.456706023075242,11.339715252000618,7.355260954488827,0.12513260617786992,3.209671216021162,2.2162874267275905,-10.600738752182815,-13.033194988505727,-7.23095918640815,-13.027657911862955,-16.739711934323033,-9.121121600935904,-12.168190684835823,-24.174886497153548,-26.43361953114274,-30.74253628716466,-41.35093920727279,-33.86239037505825,-14.283681732674246,-11.115090170983462,-17.2592729989792,-19.455742036840423,-29.087439242687903,-40.166050376654766,-37.11340385381137,-35.84631757505939,-44.01113699709035,-37.5250742515224,-19.307403596177345,-17.496842393203966,-27.90870304180384,-37.82137879932604,-55.99224437891209,-71.57512566360006,-64.13533958180551,-52.016170579446865,-52.96128939655959,-49.71594362863722,-40.98223698915343,-44.43212275533054,-48.91349645756004,-43.734062054579326,-48.48681736554193,-62.81505543147617,-64.39361218982918,-58.968425567912476,-55.70242218768337,-41.97571175253705,-27.41345916901973,-33.928334349335316,-44.94565726770038,-41.970753056220005,-41.94701431907752,-49.36391457256451,-49.33481074843502,-50.76097914921126,-59.437406308727326,-53.36414449582551,-34.65889446746504,-30.020007588445672,-33.409711410257664,-29.39434722855713,-31.13115075894865,-37.968870352306624,-32.603756708263276,-29.925140413210578,-44.73573717234202,-54.07713247460924,-49.05404609997162,-44.9239508587086,-34.18909459127565,-14.099054250692275,-12.3529585580783,-30.092982466800617,-40.548375435275126,-47.15878526041092,-59.68651075176441,-61.35576004382979,-53.11647442118351,-53.09848495797389,-49.82732984152331,-32.636504852228555,-22.27526983757561,-22.262732344701753,-14.965210002977376,-9.188027626789916,-15.411283994851573,-17.457179343794934,-16.142017252460683,-26.86756059473635,-33.32191304733292,-20.940476916594825,-10.721083339103686,-9.158457700646014,-1.8103864688192566,-0.39255648631199247,-14.235014552498152,-20.959323862944082,-18.535177002067556,-25.53308892098823,-28.554153188685177,-13.76027515398335,-1.8222042269373286,0.8781246880540496,8.01855201623654,8.80226941418667,-3.726313790123612,-5.961813482756936,3.8586607118136005,4.195778657341473,3.4473405433806406,11.078568227345055,5.6727898516958986,-11.13541669517222,-14.165977322389033,-12.502693847390141,-19.718754082766182,-17.71871954988753,-8.049076956746228,-13.302148083274167,-20.739388996871927,-13.105685818530013,-9.079688874995576,-13.138588933104907,-6.3703796593403705,2.038313924301928,-1.133967702730633,2.5151584139399183,16.223570046203765,19.235150668135287,16.992217924501883,20.213706684067276,12.69902578325981,-3.2798632356666113,-4.3460503149601895,0.9741322702926958,-1.9577475403586746,2.423817976755705,13.513761134277706,10.985851139097715,6.722993457131887,15.25158899717257,17.34570395024386,11.073916256594368,16.980627401631534,24.16648520684297,18.027297494073835,18.05298219209262,27.79509739182697,26.062630548966098,20.929228054853333,26.529346961042254,25.498311351129217,15.518564966645611,16.00169771311794,16.725599400574445,5.197387750980241,3.283493626419606,16.014359040220473,21.360017994810413,22.4389463945084,26.577076921749992,15.275216075175159,-6.442260013110415,-10.211107478576594,-2.673426478873135,0.025895746299145372,10.504752195334103,25.604769581914407,22.427500233748255,11.084752839398977,9.175952785883375,2.166098010282099,-11.285402106977893,-11.906699114820896,-10.347366738806812,-19.561727056257922,-19.551879710512463,-7.954631633049431,-7.800908295453902,-14.551592371028965,-15.356432777111488,-22.101684607647563,-29.47371835757849,-15.035028188568354,6.0629837516971135,9.467139086160806,6.603031484601177,3.165959922491768,-11.975036116368402,-22.06522612850501,-10.268100771444768,0.7462017835308985,-0.5127204553359426,3.11272239558929,4.847838080309811,-7.625756522972127,-13.741588389468742,-7.100423621679353,-7.059200197175677,-5.954095177486604,8.413359091219617,14.329976124254047,4.853692213135824,0.846097953507672,-0.6612001557291525,-7.789216260544143,-2.315771527124365,12.963499219940255,12.760098506480562,6.904160303571105,13.88068158037973,18.53749086328827,17.105953370037067,25.31518628840147,29.268372783234284,14.706738434762205,5.283141311718428,11.278015687619252,16.239797804828832,27.146661363689617,52.01861113478189,64.08567968045145,53.52226640119038,44.04172330657892,37.529424868913665,25.025169116486943,23.25262119781514,34.52644262457434,37.79510677460773,40.90689167201329,58.493694697799015,68.95512480377272,61.74887016321941,55.89035195222785,47.76117883235321,27.86091471489798,18.298950440539397,25.23655268327092,26.987896988398475,29.07189962418364,42.928561286266216,45.599066262626216,30.674789212587967,24.165764378565026,25.940791298520168,22.58061009835233,27.103666310730137,37.31809901238327,28.009965031627658,8.02392858905959,-0.2882519330983788,-6.4843567757611105,-12.43716954830315,-0.7997102464691785,15.236553275371058,14.52762589166597,10.216603174916026,7.50425488514601,-8.679427169163361,-25.781028628005643,-26.343907820941883,-26.062185241349578,-28.934263090420195,-16.565018743966004,0.028108224065983123,0.8496348290442808,-0.9600309602171352,0.8874545530800944,-8.405147118912458,-17.574216447698866,-9.960718925866228,-4.790862216139608,-10.491479910192492,-7.146569161113083,-1.6537086719806062,-10.840151054228011,-17.525116873322176,-14.557175981111584,-21.302999682140715,-30.874352300122936,-27.599572713513247,-28.95095285919969,-39.496335168512815,-35.322838958587035,-22.268542119837235,-20.466329755003013,-17.699828224691732,-8.684042312551128,-10.653309149341894,-14.315963705408102,-4.607203485036969,-2.1976087739431884,-14.945806318609739,-19.11927977667711,-16.584778420137596,-22.575546446977963,-22.39642586329208,-12.504951023975895,-14.172735937046035,-18.677878410891232,-8.017776253631608,-2.3234111173840715,-13.200504331994821,-20.867943921701425,-25.68031997401822,-36.19948951059604,-32.792999215879405,-12.581899950362283,-3.4034789834089016,-5.19260675856826,-0.9171436624008442,-2.108383511798313,-11.519897298207201,-7.99163912958887,0.7491118580046181,-3.401429484516867,-4.42985465869175,2.9071138292042455,-2.8348878466943743,-13.771257721476106,-9.709515289541725,-4.398566498506106,-5.324430053715614,3.5852243976946543,12.614410592622484,4.181645921088385,-3.853802309257741,-2.0728396146464796,-8.933172941657483,-17.026645108246278,-8.004544659490236,1.513999738961838,1.8562371029527287,9.754865833159291,17.068084906286575,7.737857396048747,1.3966724351973476,7.308085742815404,3.3512797496909474,-7.092209538477821,-5.285654944218521,-3.8247465783147723,-8.398155705330147,-0.33921663199042706,9.238489730045037,-1.6394295595819344,-14.18904130128466,-13.3405083990902,-14.51573392286813,-13.495748493175883,0.621707671670479,5.873169959588581,-5.711841261431411,-9.573315497831636,-5.9485399881985455,-9.692001389920636,-6.324742004861088,8.798150564214652,12.800843183934806,8.688705027624298,13.142091613477316,12.334200242718765,1.3056110513062702,1.9927571238080477,9.003910217458685,2.8160260878757946,-2.5749448465693785,0.38928370129158374,-7.642017609888914,-18.615256672577885,-11.80526224047137,-3.3438006016654653,-4.000587194998247,3.660703289248021,11.779693675706147,3.317887853441213,-0.3910412655471971,13.514705759358224,22.686582231836702,23.916536647441045,28.188631691889892,21.30279505140239,3.429607411020382,3.434711438201438,18.843551852393734,25.739166148156517,29.93611486021924,35.08385000758508,23.999749376806385,7.504540699063545,7.517241140263448,9.127556482609052,3.1528401817029312,9.21770196883699,20.944903926300942,17.72518405535731,11.977074635827043,10.292269188478897,-4.551492121701488,-21.41729521959383,-18.136347025011275,-10.257387128704643,-10.917392653528385,-6.164872191296684,-2.3510121905532646,-14.2620103093249,-22.238021460084823,-13.225940923993676,-5.875412896925582,-0.8184221130990761,12.464302388557929,14.699038752948027,-2.452834225954037,-13.655774889549582,-16.02028707502575,-24.7790232199635,-25.568789402630745,-9.982520585456225,-0.5110286500702774,2.053139494654146,11.128154641333325,8.81516296679276,-11.557080798713551,-22.18632111646028,-21.227271372544077,-26.514569913661333,-25.155080742200603,-9.951604288300908,-2.6640233324190383,-2.1667260700005886,6.370325081255278,6.705679743187575,-7.917570596322892,-11.233861867782554,-2.6821731061346,-4.32142129015742,-8.022198580581641,-5.256415514112986,-12.28963682406515,-21.908656336521194,-14.012076083577629,-4.58122657953919,-6.597293519510269,-2.576085080781768,3.378530587166594,-6.423722221817994,-15.467950757971794,-11.054352295835454,-10.201146064678799,-10.808544227831586,-0.26078591562701714,3.0186631416844265,-9.058761411248044,-12.307195061728484,-6.3753423664558655,-8.083929330704999,-4.356654219880985,10.817887681480649,13.83444981992519,6.135731972864023,8.005444531364661,9.53849483226479,3.406771778875278,7.421419794107945,14.472990188761472,5.273754723898388,-1.5062326000086121,7.911040619047473,10.790211919709687,4.457984365013841,7.327858058950793,10.484662344232838,9.141112468709,22.970150528624664,40.146761300920495,32.20848722321425,15.779016901370596,11.732577001832592,4.978128787678038,-3.6720484628846792,2.3473142984975035,7.273780473074939,0.2668840380070243,3.3393811917253977,14.859907927338629,12.398804748775767,6.922151383350608,11.107348449278051,6.908116632634588,-5.219376823057322,-5.397081028715556,-2.522807529491394,-5.36402864014233,3.6338449003371296,18.413662634819527,15.065066180136114,5.807437265217177,6.908894774352168,4.502734261708656,-0.5319050479689189,4.477902120072736,2.9933491134364916,-10.467060203854292,-7.860668376894414,10.848254072745746,18.947554396073144,18.079215713454808,13.947080431285059,-6.776500781040643,-31.638350634888084,-35.954139613485324,-33.74699510357428,-38.667876433157616,-31.40839220122791,-13.334515241439028,-6.7864933113569155,-3.0399814161619876,6.827458604264576,3.6161944221383586,-7.308488443017536,-2.5947441265716398,5.26420989359093,4.147031191090182,11.38556894782157,21.463254762905486,13.757368778762064,4.298827179883803,8.801284518471984,9.755475863422717,5.084678993105732,7.44858634132374,2.090859458144103,-16.685538594059814,-22.59781715184034,-14.446406187852896,-13.813612167908047,-12.734965468172575,-3.0129948314885002,-3.6038453693320083,-11.430732961217556,-6.449524436899385,-1.1328188858496504,-6.693350105981599,-4.696700492515727,2.987130057580934,-1.7847853770024473,-4.9522011243701805,4.706983241812111,5.546467956805252,-4.285391815637068,-5.873871358949761,-8.20562562222065,-18.294810958371187,-15.257429123079543,-2.229964726131575,-2.5893242596101516,-6.05492726579706,0.1067717271589097,-1.839071531152406,-9.502643898951,-1.6973186884918343,7.672295624186213,3.2448459998062846,3.752348006631683,10.319476003283585,5.065467199347964,1.239716294248645,9.666902999441277,8.599068180238747,-1.288858657648282,2.625289475784529,10.484232524608645,9.710265660239441,16.445482688124137,27.533996848278058,23.016739939795215,15.172131873658127,16.410727295805167,8.848960788023552,-4.880830965694409,-1.9582135228937436,6.247192529792213,3.08799350618712,2.9587118247685678,5.771466640733253,-4.101311351892075,-11.107925845906488,-2.7408585438940665,-1.6506279917619906,-11.434490302813314,-10.527408349442865,-4.2247164433926585,-2.261057637041349,9.68486540462393,24.52599098241063,18.125071999121367,3.831959712917673,2.2104958085003776,0.30630952828070845,-4.697951908451726,1.317270291855471,4.286083542525591,-7.520098360490342,-10.648716161059529,-0.09142204209799143,2.4423719010536304,1.8392558516449309,7.786602723653743,2.9878163031337395,-10.006084479806738,-7.771176657662743,0.5387990315119215,-0.05907515728634927,5.331564653183246,16.01922284573491,12.74969473180953,7.791098630327135,15.778638161694102,17.897441104207505,10.859546871671451,12.920848688092297,14.473991207997317,5.156041735767151,4.646562226296039,13.725411853716075,12.181678548102507,9.044711290674728,16.52128927883703,17.11096973974599,7.799110595258692,4.819899216648178,-1.0695450818807255,-17.09788341413396,-19.368996849623777,-5.831967385068317,-1.5427144389003506,-2.4935456063121144,2.021887733118058,-4.448257641212351,-19.09857243388957,-19.721789459190855,-16.96757186080486,-22.836387684962162,-16.121034998893567,3.2223490442213922,9.239610262465641,8.36571250539074,16.573606869023155,23.440578917208704,34.627504423295214,69.30690031673473,111.00296664182133,142.30990837735538,179.12055998071912,218.9782304735244,236.03375684313363,232.981161902847,221.20893767504788,193.55295479565302,165.01372533915523,162.54415666922418,167.86334059673442,150.99818914858685,123.77102748426033,101.7152870363773,81.20609899651168,72.41199851249867,74.26545961174429,51.486313274128506,1.0481083086298248,-37.40983367827296,-56.309570627019234,-74.51494389168303,-90.26270750887976,-105.56875943466046,-131.35307614057987,-151.2337816535972,-154.4676764798274,-169.02158065957144,-204.06937909317557,-232.1015464961941,-246.4113256315865,-255.48231247119122,-250.40381693614873,-238.23846392190606,-240.97941488416836,-246.44032977831418,-237.94376770619184,-232.1064014574867,-231.94088161746367,-221.20193531950878,-212.23379928025105,-216.76623952938976,-212.78623321089285,-195.8715083377865,-186.2683892698324,-177.75822834653837,-162.61407982777442,-161.21311305993163,-169.41391388081794,-158.29518759844032,-135.08845269373205,-119.18978679577764,-100.35467185121307,-80.56448849704984,-79.95778012530717,-85.1896215210427,-76.14946773429168,-69.09092810940297,-69.23853553052747,-55.305272264885275,-33.9869229236603,-22.58056254552202,-7.687165734562787,11.215557235136513,12.215014524296558,6.3589784860884695,13.997205958942386,19.334449811264918,16.143911515799275,24.530868960875004,38.552628010212224,44.321363611855546,58.88747939836679,81.91499772010287,85.66774494890771,75.75843921070953,71.4906854843581,62.91698952285201,54.76141833266223,71.2963615044394,97.40610418479963,105.42232733130567,105.81393694997188,105.1510184075502,91.60858867814156,82.29086745319452,94.15584478952879,102.84735902620508,97.66420409731305,99.16374904178544,102.74121419434826,95.01223667566461,93.54094308973558,101.79465521648191,96.93897049639892,86.23376860419728,89.53853389881301,94.07416086411811,94.78002134974153,108.12573472624166,120.21790009858945,110.16829375318943,97.23866725305717,94.07042898163377,86.12568632075147,82.30947229469892,96.54862886413493,107.54812721302564,104.97179535792017,105.88738065348448,104.6068522819273,90.0318570578108,82.53656164846181,88.99678468382675,88.59528000668901,85.42503811003365,93.5477957405496,94.77739298625198,79.19481449233027,65.48106347321365,53.985469756147396,39.555050697854796,44.16301246329084,67.61864661360639,76.24519773213835,67.82990405050758,60.941256902527,48.01145424162092,30.646182718827433,30.345993889472314,36.827025308480515,31.585687793477582,32.294095622413856,45.76454268714743,50.544138027237736,49.17908333432923,53.44756923128463,47.31333948881131,29.012353423693163,22.238084901610893,23.430524583781473,18.345656468861225,20.640892656432996,30.759608756574465,26.458275790819993,15.69463070162286,17.571807514246107,18.01528182726867,10.078874649577722,10.122923861013335,7.251059263533534,-14.573794263349736,-30.776660787531586,-27.508926198196917,-25.08850219599013,-21.280857790135638,-4.143804167131741,5.76874813221145,0.8423626357504648,2.514232065696191,5.343342819538206,-5.7222337449651315,-11.025341795156411,-2.5828878870422067,-4.0930488549192265,-13.368924956519443,-12.138345072479012,-12.681378162697015,-20.724857090113062,-18.08136145869142,-15.176717005052145,-30.85840241715929,-42.091581492030016,-33.89521329045588,-29.527762065732123,-33.322586678298386,-34.489452914666174,-45.78938259437049,-62.131661625578104,-53.62024822186926,-29.91140761971917,-19.862222919574197,-15.687169065718942,-11.163088065887132,-21.21109866531967,-33.53598665566933,-29.00780822616988,-24.97104307466321,-29.955961497830394,-26.733989293953815,-25.067855264742143,-41.02375350045406,-51.438449391798805,-42.894595454875855,-36.09118637590134,-33.02466523340715,-25.526540086120878,-30.751747214080098,-48.31736570624066,-49.368681431763235,-37.19586075901846,-33.307897492275,-27.85558359023426,-18.281168869542494,-25.99877246410583,-39.76797961470679,-33.38387866057002,-19.8544064963627,-13.40508302163248,-5.592501764893864,-9.004929381689488,-35.05020551042233,-52.233277239995566,-42.331077294802114,-30.468807449226865,-25.23098351749142,-17.47368502434459,-21.76201472738582,-39.755067343904955,-43.96547435397528,-37.1339560907259,-40.16795531012711,-39.21232232648534,-26.943229987519082,-27.12998072622002,-35.9388898520386,-32.28574962140827,-29.96936833978707,-37.97366974806622,-36.10605564211528,-29.48145981576328,-36.82016199592926,-40.68732850253697,-29.752733653307857,-25.76371492092187,-28.843578880584662,-23.745247063506973,-24.225277472625432,-35.436097663996364,-34.43529613017014,-24.32644428081262,-25.23387379624909,-26.24897897517165,-20.552704885793815,-26.41332281923735,-35.607038329337165,-27.738972599210825,-19.342804017503106,-22.34673714191996,-18.83401267237101,-13.151340590875435,-20.370363233059134,-21.14287613641227,-7.1679302092613435,-4.521334350827119,-13.059771485996754,-13.494618745528113,-17.539900686973287,-30.23393237018064,-28.010782609259124,-14.574326471034489,-10.869707943873097,-5.681899710199489,7.2861499190283645,7.447229842093934,-0.27704223517580884,4.193008075081568,7.465940442562016,-0.8624919958639068,-1.4036859602400176,4.407616431869485,-1.5139568313617464,-6.587465283546159,-1.202984604762782,-3.5750422545463234,-9.323156996581462,-0.920470598170676,4.6636670003449305,-4.1500845225393945,-6.833545102234549,-3.666883389439569,-11.307116128616158,-17.414767125511993,-13.891367084162594,-18.149128499119332,-24.38880450954678,-14.294167976866527,-3.464530516637229,-3.451697791829917,4.200141027313816,16.004699040484102,11.633883988894944,3.0836960742360784,1.9161432911214664,-7.574697043810559,-19.238268159588277,-13.203246439139939,-5.448230042915831,-9.267054599706595,-5.061891793301347,6.564825187186925,6.07988955350792,3.537186987303095,8.281110907607168,4.233723284546059,-1.3460884341745132,13.198380519086237,31.236687184544692,32.79248171705133,31.054797629588297,28.872560574367544,17.73651722955269,15.659301866486947,28.683151264932093,27.49658524760703,9.185305602968059,-0.030168677190833992,-1.3568910647964,-1.6141534764256782,12.78929756537973,30.906185265557994,28.355449056673667,20.30050462469375,23.818318828067678,22.659032695043457,16.780272961236015,22.670831227021424,27.490943658586545,22.110709825455494,26.928665289444922,39.46395433446585,37.67665777405195,31.294074981429887,31.501067493257207,22.426354153173946,9.023980613734537,11.346150694537894,15.215843195571273,8.183065413761389,10.661094518397002,23.741628527666432,27.83871396186011,30.8503100294083,39.07992087215812,31.956428863523136,14.076413071119237,10.588498196954388,12.118279485015025,7.046747109626024,14.032673804241124,30.334408276138927,33.701282054623206,33.50164864137545,37.884922258262094,26.90151679686464,6.660394433389634,2.8853735582130957,4.432204025370984,-3.3382026118427484,-4.325843455338251,0.8414287030101164,-3.19346966141952,-1.2779197147725387,15.61159015342507,22.102498264474377,14.222662055447277,11.584237899110914,7.370773327968693,-4.014664755555075,-1.8547412917115298,10.925232028767041,11.819887078947165,9.560789347819501,14.919571805597077,11.613229939595538,2.547226911909427,6.667255298258278,10.481680828001423,0.9257014682353031,-2.2941836639748736,2.991641661950085,-1.9442649972047574,-8.05910343050779,-5.790081577888691,-11.943974563438307,-20.365060273691302,-8.27600185857888,8.658088670005679,10.493744833438381,11.261087848796155,12.984780400220362,2.4453303434103657,-5.039667814050423,1.735096397789103,0.4523462322837237,-10.799244316838951,-10.166017233274449,-6.7878628807070305,-13.77894226924325,-11.801226753053996,0.9742851850886876,2.4611315734445034,-0.40714272219244907,2.470158287003854,-6.905544215101724,-22.822167603031584,-17.902903799972776,-3.1319300647929462,1.4984503432779392,7.706733265289718,13.876699002980232,3.579701429337537,-6.79178416170437,-3.1275612692840022,-5.531112206654438,-13.9389394189086,-7.3054316984167365,1.9009815272477812,-2.0704637627732754,-3.1209909009827297,-1.1041862172833083,-11.974138257638208,-18.89885361436907,-7.495351976794189,0.2123544375388836,-0.509989770486448,7.676942758230603,13.48755529970217,5.697040116787434,4.439622995331048,10.034692096804417,2.1312198376940095,-6.2231035145343645,0.6829717120897572,4.798826707129932,3.978949478556265,14.395233719419926,20.07595077440014,5.885380572136574,-6.803658751334936,-11.194825312361717,-21.67522357168225,-25.222440236204275,-10.488331215801583,-1.1604524765110038,-3.5636771139910124,1.1448155541019287,4.872372142672744,-2.768192300072799,-1.4349749589471594,9.601388570179004,7.156891326118656,0.10942389461860236,3.935065669595197,2.2615352243526066,-5.427098673629275,0.9543894711523446,7.707451696322935,-1.5578639012065345,-5.65093396674009,0.7158939237482547,-1.8030649889982793,-3.9850064044638693,4.21132425267275,0.6896360173591449,-14.954321081948388,-17.00500034889653,-11.342596457877159,-12.686922521546258,-7.327575918166783,2.493834540107574,-4.491072866293445,-14.524040245892774,-7.136199839397343,0.8398429364808842,0.9353981313569548,7.186426889335868,9.660557889311987,-1.5524032517399204,-3.4280858624937354,8.140134180825726,8.717300163269474,1.4821250646481938,0.2681879908686815,-7.104885327568375,-18.104803235253996,-11.238293490617046,1.4186387300661627,0.8973803950461896,2.7071157298204724,10.333824584125287,5.884801358379118,0.11451337395480765,6.319526170165442,5.791596267519764,-3.0538921207801852,1.5653726458006383,11.44493739090715,10.35269789206786,11.20245157574121,14.447139334862193,3.6918145374373044,-5.610469015346429,3.279760878125785,9.603254547749907,5.207781943642342,6.16066325516601,4.138395241885959,-10.701098218160144,-17.31549095499008,-11.804249248680605,-14.565327846951725,-17.81963854464023,-8.699701177408325,-6.593614829604575,-15.645540361379071,-14.841224937155413,-12.038729227386487,-21.59283351448609,-23.81368663136249,-12.838653857989835,-9.139099098205469,-6.413679499217736,5.92716295142321,5.968160543563183,-8.879673766639742,-11.816425327976697,-6.14840490134711,-6.9824262975377716,-0.8775378827943894,10.825172579802507,5.227196728302017,-6.851845859576618,-5.362385106364525,-5.809342448452742,-14.481059469812012,-13.443993590313411,-10.291172974028614,-16.831992605448892,-12.282525630470676,5.861203980561735,9.878146425917052,1.5871903753797367,-2.4736225649471897,-11.201556252918568,-19.880220642033734,-6.190699654967849,15.774411255049229,21.659554460585564,23.423063884882744,27.49645099036638,19.084674404459076,9.07955145984104,13.397001300783709,14.035073625829849,4.748849922564496,6.146227257212615,12.03467867308669,5.427752030348859,1.4149944301349233,5.908332594444421,0.05610346670525512,-8.302898167197135,-2.642665065685199,-0.5815643747731981,-9.64703322863708,-9.828677738262995,-6.499974205469072,-13.865827648444805,-13.796058515193465,-1.147390427382832,0.9448127894443714,-4.323316510906762,-2.0686152685110955,-6.183596017352267,-18.223533623841973,-14.983187685068014,-3.008960951442318,-1.8307762608939888,0.8931234388149393,9.424560714015946,4.5355366416333815,-5.13933274940671,-1.334796481394533,-0.3520970103730682,-10.273102004333904,-11.994481758170007,-10.473760439127938,-19.591526937551556,-20.40100148348885,-5.871659883424093,0.1154847104761203,-2.0389502176630874,2.1065125846674584,0.25529220705433686,-7.889288346131072,0.7600357964829279,17.184685469915635,17.26966783185953,11.467619857483612,9.226785826388541,-1.1566929257914178,-8.770640545899594,0.29816032358150224,3.3963911221743244,-8.28829087110878,-9.774880220358126,-1.437828517541611,0.8119967626125418,8.155089112526461,20.262473402477447,15.038273061534586,3.5890621209136255,8.394217524110289,13.46889962143656,7.600064486021518,7.624340906179625,8.994589418633165,-0.4931335540295869,-1.7759655881085197,10.177891042579663,10.622212906461971,2.359068821216336,3.1329025558266337,0.2861337945209508,-11.53053871673532,-13.650922958020178,-12.488656494211506,-21.80829809423634,-21.30722829745909,-3.3548775811232128,6.358454391170572,5.22232543773476,7.4670487349295085,2.760882483433478,-8.623599355397056,-3.1413791307962153,11.0649908552729,10.993991131987412,10.550550177185531,19.3032888710233,16.331140556206687,4.267852375062807,2.199035895175699,-0.6074792549360196,-8.885524625602402,-2.579250628847504,9.31675765919265,3.2924430815895738,-5.693065223948258,-4.26463265708222,-9.1869475721784,-16.246116300100375,-8.67969721846038,-1.0747398517236264,-1.551419156697268,6.531048243617832,15.054608575369564,6.689670645528893,-0.5143361079590989,5.5140271484244785,7.144843994439871,6.9268083978172585,17.834809616856198,21.82490934627012,11.686717344890901,10.091820302219185,13.41009106136523,3.5184883023638256,-4.684378404788698,-2.9114062854759766,-10.272238755163926,-20.01605420356596,-12.565377604074232,-3.4478813389511602,-4.1219270506601635,1.1850542725573825,5.705619503629181,-6.6757410311638115,-16.005753573880934,-9.45617416060174,-7.014017564897722,-8.417442966840012,-0.5213424840447356,0.023681972549120966,-12.155329624313362,-11.995139221433154,-1.9493008327575065,-1.6026870677163694,1.9147688536749108,15.277891954509306,16.4722479180773,9.854623115879559,15.4749700562909,18.655448960554434,9.362468653091899,8.547386564596689,14.379876018476846,9.034714687208819,5.698265994341281,11.15313632937107,4.119946884014424,-9.45629224492642,-6.048315652310359,2.652772933443103,2.807021397832534,6.267093707298937,6.934706062865023,-8.027049779092788,-15.668572249432442,-1.9522519334635717,9.927149971466308,14.70488117743293,23.840867900621493,22.270455684066143,4.856106068683104,-2.137612167256992,3.6853611762887826,5.0661912018183255,11.41534061072703,25.961786528318605,24.78285869111177,10.189719621713415,4.761706240599894,1.1787524032146026,-7.399280576493748,-3.078453331745291,8.514898455131949,6.063167977048343,0.8436987097259276,2.592340801091241,-5.853251080687251,-18.342412941257923,-14.597760556065484,-9.6759920031357,-15.583460855084978,-13.853471660561627,-7.119615754321874,-11.391993833415544,-11.520450887579367,-0.867946409646803,-2.569907351275128,-14.616875684680318,-17.06730647910273,-19.09409561950664,-25.74558803917826,-16.97507623696037,0.6880936759140024,3.288682090930009,1.511780349441892,7.15601558674075,3.8221129752339564,-4.025846197362625,3.0852490515784745,9.875151145227848,3.455297361723138,3.7193256868326485,9.142323034516771,-0.11934594495211837,-9.19405949341186,-3.892435152548951,-3.645592812588905,-8.933457464389182,-2.1078152224805575,3.7948828912930535,-0.41738215947911206,6.301151776991072,19.938000273741263,15.927424520263333,4.849686097737352,1.7081852610473442,-6.402566022113857,-14.781294325018415,-6.0682121128136135,3.6354173827900667,0.462871351287514,1.732059603932918,6.964067030836069,0.045852489386208894,-4.440493985009087,6.324052660993903,14.132249388545262,17.582757373653266,32.953850617659185,51.182990489498465,67.06001499996512,101.59827366826059,150.99450948522707,188.1496376204258,213.80832515029272,231.5271437858749,223.2084783306284,198.33760303129642,185.55136082744713,178.0285066379708,164.91370489528896,160.02376079447555,155.643959017279,131.2295357407301,100.99995365499251,77.09893209125916,43.32034684233005,7.656270838203719,-6.75656090393201,-16.4158261586676,-40.42349070556716,-63.14756030481365,-82.37097494772414,-111.67626108050013,-135.39109956764838,-143.69765616293554,-160.16599797453736,-182.35331813411216,-184.24473559830273,-177.36153502885412,-181.10041046731834,-186.55839320600057,-198.56764019685718,-227.4027715303974,-244.92368056960797,-231.6120348189638,-212.01302489339355,-199.84585218017574,-191.24298193306828,-201.35390747465433,-227.2539401728292,-230.99530243690725,-207.6066982400785,-187.51813071099136,-173.3659587950659,-159.3953586844461,-161.67530470141978,-171.1221798655236,-159.47939449694638,-137.37882147021503,-122.859521077973,-102.94194962184571,-80.77067045418295,-76.56144405306316,-76.25942160231597,-62.42193640290804,-50.97568194842764,-45.45857200894519,-31.55855572930898,-20.584171859368745,-21.8260141900578,-16.50744534630374,-4.952682844870747,-4.509723087595707,-2.77301758219751,11.041755356219172,16.377435400585426,10.6774231200772,13.631950902364206,20.257305021276032,23.21427823636303,37.31406777936897,54.88151511431562,52.583387784054466,45.11968957684513,52.16890522833052,58.40427174240689,60.136415213818694,71.97977160461095,80.34384700148138,73.71751954356479,74.92309614100157,86.2520696751891,84.29535955242616,78.08585938940126,83.0174654921933,81.66971734195116,72.61872841819981,76.0192974313831,79.91917083959842,70.44130527358816,70.66664011573877,85.70958151689993,91.38622292019181,90.28026764672754,91.79881584130219,81.50629851617853,68.60477617627676,79.97913812134827,100.47809871059883,106.26174366585732,109.82453118463727,114.4748151593292,105.65239728550037,95.38891813832929,94.38714104827926,84.39057445435266,68.66786337834326,71.21878246423765,81.70133098484334,81.65163768671077,81.73595112567597,80.95444489640205,65.17077483414938,51.70865403845252,56.58813023312349,61.55048103855217,63.448504561007276,77.3378674351028,87.63681030676602,79.77055206485639,74.80206253166371,77.20328044612859,68.44975429492777,59.90353803930089,65.22071443788846,62.65610392864571,47.336569718806544,43.149929504673544,45.9834031964744,41.94852486601437,45.36633589263836,54.12944404559211,44.556389330564926,27.530029188602988,23.778832784803544,21.84668513548512,19.768483778054485,30.637833477571583,37.525364614396246,26.18996344267262,18.79026531075046,21.233045129632806,16.592700021890266,14.371707102580942,22.666928287818934,18.91606143810142,3.297643511791192,0.6404387614173004,2.626449818576357,-5.94998827100097,-6.674049627081104,3.528500166186001,0.8441778743068356,-9.346409499267494,-10.62822994170076,-16.53775876450406,-27.098951363120754,-18.840908795100017,-2.7214498732333854,-2.666098295373847,-6.557961603759244,-7.823897323880534,-20.775268934081026,-33.48136241619075,-30.63125669468299,-29.44054459112721,-32.87027223978646,-21.652787412853662,-7.920692290201403,-10.795053669626196,-13.909965075277267,-10.250837436423392,-15.334707971120551,-19.565645832682968,-11.315474761013235,-11.521785201032742,-23.67896608281545,-24.97393260802056,-22.94581707459488,-33.4742482484644,-38.959260468189875,-33.48518206907766,-35.452862653618524,-38.35799925386546,-31.864920318180797,-34.80608189966975,-47.308355910164266,-45.11271739663094,-35.35569453870677,-34.95167487425486,-30.577100203331426,-20.63501011193528,-23.995155246596752,-30.575972028921946,-25.511853390505195,-27.027511887168423,-37.28861039208758,-32.03743920069835,-18.4849754745347,-15.539756227448184,-11.549817517647693,-7.496415054773193,-25.24842340043944,-50.00436973082981,-52.72611703648022,-43.56262789103024,-34.13154161645963,-16.146859482726466,-6.211822109045834,-22.69867863682551,-40.474068548150086,-41.18745774094587,-40.67166586371985,-38.608115482509476,-26.903994534452654,-23.879296848778495,-32.48934683717917,-29.775317170340916,-21.39892077678481,-25.030579902559932,-27.188681944960756,-22.03108373574864,-26.25061066029406,-31.629189751536572,-22.87477661199975,-18.01128542207386,-26.12146820403318,-28.066778088046334,-26.34108441946179,-33.8149573988823,-33.82565427060119,-20.915849932037386,-18.965758051405647,-26.165290430589657,-24.690296333410014,-26.5511325729472,-36.15553088826179,-31.819062388123267,-19.25475293375915,-18.60958564259369,-18.157911412238157,-12.339284909023721,-19.62772025910713,-31.013836576916646,-26.284219697290062,-20.921379580719908,-25.226213802336073,-22.372043720674935,-17.41680302598367,-24.12970670728718,-25.391726508692987,-16.166166498288156,-18.6201058218169,-26.43477551838397,-21.114141341710734,-17.16662561243292,-19.96408323366844,-10.880495696195727,-0.3583121383244885,-7.898846051674922,-16.10941001189438,-13.738688315119314,-16.561724248225314,-17.382299010405944,-1.2037888578416291,10.554573859224375,5.268648685876006,3.9238692997412388,6.0073437318609315,-3.474628848449963,-9.479186635047991,-5.008010177319325,-9.783677639846612,-17.38236964599007,-10.226639905919637,-5.535389609808569,-12.715801388796448,-11.92804920730698,-6.104244831657673,-9.42951613638459,-5.917612618135479,9.36288716977175,13.40919130955442,9.771724837155794,14.51661878438926,12.045208705195641,-1.8681247905196274,-1.8659993888548851,10.273249610621441,15.456045655146195,22.039856536711664,31.009607914249006,21.23901573081778,2.8275788969270033,1.2577970439937942,4.683661074773316,1.7019709966901893,7.240565380224286,14.138274929558875,5.944376197402231,0.8820313315119576,9.554718572553927,11.605563119871064,8.733277897652698,17.15624171969138,22.4273471038077,16.18755529018421,18.792862828572915,27.89588099070092,26.505622031789237,28.501751718692166,41.05460844378192,41.06612928483594,28.929787944621793,23.36178055754045,15.00571730259838,-0.09292813455554061,-0.6473958443334991,8.420953586477598,6.656088830774065,6.035649016034332,15.495952021240624,16.341881288071562,11.30166901596741,17.598135361692936,21.99170492704891,16.31784766165479,19.7636147292219,27.636370776756372,22.01290526534075,18.852260423616002,28.05277077207252,28.64869419642561,21.770921195649244,23.638767488933958,20.756279420301865,7.312804243518245,5.536571230292975,11.069411356322401,3.8902459154546465,-1.269296705818013,5.859883928412593,4.460185546047654,-3.687592093526609,-0.8619170604647204,-0.2720567374339796,-8.329743376724007,-2.9086703442425508,10.996701566676975,10.98088380636998,8.75091785323725,14.630138021343436,11.912548218775235,5.464851433189209,12.451673483639844,17.1671308556342,9.026878780567175,7.620409055139024,11.763598034162579,5.25025090289273,2.45422129517733,12.70418094459836,14.633345866972908,7.668983319193805,8.521564096081,5.158306556280317,-8.398800745242552,-9.006437343554635,1.1910106257289823,1.0583465661479052,0.4165783142249827,7.670328130930059,5.387056203492355,-1.6320030107129226,5.62694192024925,12.956351276376525,7.5214253902069945,6.312096232295425,8.714198406921918,0.49138569023160983,-2.582216489653381,8.397984020697058,10.901862258397305,5.350249791507652,10.268771059976064,13.237520611153386,4.591108540626858,2.1897492355531623,2.818691308271311,-8.84155854520289,-15.867011833090395,-7.942556644027592,-6.089279689947971,-10.446540766734076,-4.6258746151777,-1.805895096693295,-10.59148863246666,-9.321759502399232,1.5740636964586354,1.884175902271001,1.2370598813698048,8.466295182196587,5.346097260395913,-3.291922658618847,3.1635943257083925,8.8691373678525,-1.498255746827514,-8.080172644237416,-7.078799877408258,-13.27344627655162,-14.573569220732454,-4.337215704439733,-5.319377350122457,-15.639523883314334,-13.07596309993886,-7.483467008313431,-10.216186506456008,-5.0988548937099445,3.9530033649100247,-2.0073435496513916,-7.82756660468886,0.24407715087630688,2.4086517430034093,-3.2498257697646125,0.6736849024218268,2.7957070909482695,-5.323036992661242,-1.7720576632542628,11.180787400599426,8.940410075982165,0.5668333968996042,0.15584805489766418,-5.929621073079712,-13.370259219483199,-4.074188671794503,5.520062045066552,0.7747977723398951,2.005101007404824,12.319834166469324,13.319436355816752,13.736820976730343,22.546999853554446,21.408385242810454,12.835171049463657,16.6057989133358,18.79355476342169,5.724132132529272,-0.9776608840670409,4.176322682610962,3.1869637304172365,2.310799413914789,8.884683339750577,5.561313330634167,-3.248255613046104,3.6961659945262757,11.250510396272196,1.7309162854320275,-6.120284241441857,-6.2603600471750624,-11.330479075870022,-7.666031601289507,11.77342006153062,20.229619831460568,13.243523797317014,10.547674327228512,5.537953235418576,-6.182792560900197,-1.9183178978866797,14.537148623520672,16.17779886433095,8.42842767893625,3.275197061009509,-10.877976078664604,-26.08971709206353,-21.066271830542206,-10.381617444306166,-11.028223785898541,-8.18831765028073,-0.7684051523558701,-3.3766787351702865,-2.7519768394260637,10.670805236847645,13.699839138687677,2.1185040136545243,-3.063762412951651,-4.475593636516974,-8.093591002378224,1.852715604610736,18.352276342687702,15.60684741766731,2.546792779729618,-2.9331219050203914,-10.739044126336806,-18.905388821642752,-11.512322133471459,-3.0729950411653237,-7.851721234181651,-7.730031923064747,-1.261239987148119,-7.579725632446371,-16.152116436621398,-12.968800507127696,-14.332799108269322,-21.075883009499794,-14.283370536581273,-4.994673583558714,-7.052541924211204,-1.8930170085206095,11.509529625431979,9.946503187651771,1.0569394687463949,0.2106208972078245,-6.620727774022373,-18.94387141786325,-17.455956250266055,-13.450841218131476,-21.39766174635712,-23.18855677917961,-15.91676996593301,-18.97553104344198,-23.03127184202639,-14.864495856446158,-12.39348065956274,-18.061139234758194,-13.354681473096115,-7.994626470203386,-13.349770544187745,-10.494680825399154,-0.3410513560093431,-5.668675197524685,-14.821240177021542,-9.225559408223814,-3.744267520043344,-2.702518897602274,5.892055026069162,5.8832042301630185,-13.424943605558905,-23.154456249725712,-12.906583937180589,-4.324774331548962,4.254503558390375,19.104928822537843,18.245233953363126,1.3007857023258245,-4.448462319678452,-2.5722728473629806,-7.589882771964161,-5.667607843919275,2.717322801988676,-2.574054705891289,-9.155241954623772,0.5040778426691093,7.20668126690859,2.029830421452046,2.006238592496365,2.0642599621227156,-7.167325560097902,-7.032755056914947,3.0176754813735656,-0.3713333353307027,-8.66896936459633,-4.880107639057093,-5.606245423747576,-14.558851012223965,-10.288382244525671,0.26529681274265515,1.9651904402223463,9.23099226834105,21.440440258051293,16.391558281277646,3.830392058096768,2.601955352511369,-0.22183266885450315,-7.374615356129624,-0.35590007762010156,11.353847920088338,10.640032663609865,11.36678613820797,16.813016509765866,9.759147293042394,0.8271467898889413,5.6703777516813165,7.429312749922456,1.376806088106704,5.1908032884493025,9.39705421004318,0.19027023830908973,-4.092640482993541,0.3717074528074864,-5.742827637330667,-12.245570374448143,-2.6216360475606018,5.1807503976375955,3.54151359414829,8.155623248008887,9.151096541377687,-5.000128436090097,-10.131016085612675,0.939066675576786,4.229348072652212,1.6002298948603872,5.134236044665288,1.1453437625489498,-7.648246012997192,0.711864149466404,13.483007172844587,9.171756577627534,1.6139402863872487,-0.61751457205173,-8.191781194734471,-9.081314516582358,7.199492724353273,15.388812724567526,6.156309077189997,2.267706369993245,2.8229776139264597,-3.4281730683110143,0.12179209618048858,14.043378494378358,13.195265662401368,4.39837516348539,6.966178521173102,7.417206426440071,2.129024637111228,11.074324284773805,24.041660952781626,20.741256408753713,16.389992018573736,19.039940908560855,11.699612382449452,2.4060835267929495,7.424366471453278,10.008540998942937,3.170073463722109,5.346567919677457,8.734638783683403,-1.7627270411222948,-6.0045882553399155,4.838161324856899,9.388065773240855,9.260680301270854,15.893771142954995,12.188247602374325,-3.7217213208022493,-5.750962729329608,2.188226214770819,1.3318692589651249,3.9723191475480464,13.245033946926918,8.314612205496143,-2.208186100407994,0.8312663814248475,0.960902245296174,-9.922499851707547,-11.21306448720389,-6.494060193422078,-9.730745998812075,-5.223021101818864,7.960090450936794,3.898873498016221,-11.499610047269599,-15.888149794897002,-17.7543484059512,-21.2576034602909,-11.344036055004944,-0.6319096120668104,-8.103788276072189,-15.055383009775912,-10.295180986415449,-11.316404106179242,-14.069197870310582,-6.272749321739835,-5.176101459441418,-14.69775766712389,-11.554818614544146,-0.14469507762581557,0.9475353948636323,3.6638063932019356,12.679865904223657,8.312799196613934,-1.2523607187225334,4.464123583254059,10.286706387122203,5.676509797351375,7.028296377944138,8.754719083029508,-2.037604399695912,-5.235162235181869,6.107482706204626,7.315146408319276,0.3395829598865383,3.69554403781697,6.341413265950611,3.072352759165862,10.007500574881902,16.558784717853722,5.388860845690263,-4.07956053665408,-0.761015097943273,-3.7214194994986753,-9.192561657100445,-1.1928195703476248,5.2191832721970925,3.1619075623244703,9.801790718914992,14.961373868178946,1.460381990486547,-10.592884751884256,-9.742315353307957,-13.07176525235548,-15.463162083510468,-4.503715748605723,-0.3203635967276126,-10.029300904283389,-9.619824535408364,-2.134736753013328,-5.960417226986894,-7.042113829575942,0.6082580556290913,-3.865140255414905,-12.602014421074937,-6.277789386954588,-2.94829318262306,-11.94964588894699,-11.442398106391607,-4.880924642865992,-8.961724086949893,-9.071265951716208,-0.2715656645862796,-3.295675812634168,-10.509720032109007,-3.6226058310148757,0.03587312117469221,-8.452386361515682,-8.931927819573325,-3.9612508730390723,-5.430928842619302,3.8257921386450997,25.632774719660258,31.906308840647814,22.849777194204023,16.783522431028018,4.643522069393675,-14.947472425599148,-19.701296086834184,-14.734203617074943,-17.385257205666655,-12.04956654283957,7.384992452518279,15.182321185834365,9.920900030218885,8.791959003365102,2.0676746163261592,-12.271799682131423,-11.17298829545668,-1.1774577617899507,-4.497718670703321,-7.023074154830514,1.5569992660033676,1.3882304702696557,-3.979057159187622,3.381735891962436,8.500349570978535,2.8742836247911625,6.209347751348304,12.307913066663522,1.9030748801303785,-7.9698109926386325,-4.09563537719963,-4.172068581835831,-6.760493413420038,2.4325033268113607,6.44002911769818,-4.527196794916813,-7.613195396430918,-2.226089155435974,-5.930887198607078,-6.054590920191199,4.595819145873836,3.9004223114984047,-6.7676630442580255,-10.13007789542451,-17.174383033188825,-29.88784984735355,-24.79002119556786,-8.860274674314404,-6.5001024892232095,-7.46264146344523,-1.3014958525139284,-1.5668844988797774,-0.6421099479853738,14.809708420687835,21.485567173487684,8.975531052889727,5.52611425742862,15.869357196497264,23.20161054216938,38.28434080483709,67.43867012126275,92.55070747718287,120.64510958246372,168.62823434000572,213.02539273847006,233.3774117622048,245.55152407909122,249.72640242253,232.84972490715415,214.1526860704601,206.53045849760173,190.05115047982886,167.96819042923144,159.72245909224927,149.03993327984622,126.21722893177355,114.99174762020279,111.12245203437111,90.46314780207051,63.6837410203944,42.084589775875955,13.297714538246275,-14.11219007142111,-26.57946930820401,-47.150193971652996,-88.04036840204935,-122.94557216353206,-143.50872910567603,-163.0195778213891,-175.45005574626992,-183.11031927202015,-208.3446525229054,-240.21558013922484,-251.17847978771232,-253.57067454569255,-262.29101067073645,-261.23817447100737,-253.5635674575615,-258.02577168789816,-258.5511127044332,-243.62116627084276,-238.14117486637292,-243.92651140093227,-240.18306160899886,-238.23309916057565,-246.5048128679922,-240.09668892839963,-218.336897576522,-205.40869009508287,-196.04796435962598,-182.8852205316552,-182.41168253754276,-186.1458010645923,-169.6477671502509,-145.64435405716927,-130.4750385733406,-111.5047141230828,-91.90210169240757,-87.42941836306152,-82.5916737830886,-65.94421498728053,-57.79809380764068,-57.78560048827015,-46.2019350143656,-34.22012391779926,-31.640573423222857,-18.06802980967847,3.8080272058119533,10.833245803001493,14.326548766635652,27.947930917859722,33.46253763397668,31.942083538378625,43.78718301254966,56.14916804145568,56.00236175714226,62.90256057693018,75.90222735188031,74.31849616181796,70.58676796000286,78.00815056820635,78.66128415870418,73.50860580504796,81.22677616907579,89.65572054463252,89.53856623040839,100.58285332788314,118.52888909321415,121.37676126593739,119.67930324369989,122.9116110426563,113.59861925732912,99.09314525096207,103.78339897548057,115.0832971078923,118.48525495805538,128.53610369703225,138.35835738997514,127.99759211787733,116.34391670985234,118.9579256461263,114.85171191113423,104.34630575285364,106.94415800705966,108.26188122038596,97.60504623316291,98.40436961615092,110.5450374137363,111.69376481730518,110.9641293727568,116.85373949971738,110.04002508561618,96.90466756378667,102.90936623722172,115.3419000491246,114.74921634179626,112.57207334434844,108.36556454917803,90.21451674180912,77.98725152064375,85.32469149515002,88.67025766689846,82.44012162962407,83.05261346991496,80.7253651699758,68.0174678665076,66.30369535105837,74.8212111442099,71.0521247967427,62.41147700651315,60.406489275997984,50.88995554420482,39.08015268285334,46.425132081605895,58.97777317552011,58.155861146355065,57.783236330651185,58.76877441797662,46.73363260554775,37.57854566171423,42.78504663775196,39.00971739170149,23.3915719575918,17.407874525720743,16.307075988200133,13.55684876296557,24.743018452845124,40.86919964181937,35.34440163673387,18.618879768818765,11.328554407485992,4.389207309942678,-3.740127018372803,-0.03566649748914452,2.4578595595223787,-7.33369967852195,-8.414029350283554,1.088501762221565,-0.9425670500750134,-7.043440542420152,-3.9766348040954393,-6.984616030073947,-16.70059830967093,-16.564979925033168,-17.1802919857182,-26.074365612973065,-20.46395668848414,-2.5921637517406584,-1.023656529148012,-9.764226365844992,-12.12260271053102,-19.948097166477254,-30.541472829483688,-25.74608359869059,-21.483408136609064,-33.70797537406138,-41.492259973578406,-40.83084895146291,-51.51105354865742,-60.967036705345045,-52.558556409869546,-46.15717716134405,-48.10686051792997,-43.40027956421237,-44.52440636421847,-60.11032282298582,-63.71114354701166,-50.13591468426637,-42.38390690215086,-37.32711156796771,-26.06113792724713,-25.662746609715384,-35.19988669257529,-33.08275544743821,-28.397574561367968,-35.971946025262625,-39.31219733300563,-35.334433048893,-41.98240160240133,-49.54329949762085,-45.477288877081705,-47.156654539987464,-54.43899109296515,-47.7922588707571,-40.67105022069646,-49.44301629031111,-54.54071642460206,-48.62629784085233,-47.001751416217836,-40.91095945629719,-22.88232487591596,-18.614014078564537,-33.31895702218849,-40.31161799817837,-39.10876217136223,-41.348972384755555,-33.97391639047825,-20.050484590065448,-23.3983931562445,-34.874049210740665,-36.18188863683942,-40.39696806106436,-48.62400527578731,-41.78963122060958,-30.564299580939355,-31.483998029021382,-31.054256328125295,-29.28589984195135,-42.65767281228759,-54.76236629658636,-47.57362423388658,-41.48219143330482,-45.45686841682551,-43.33298122577098,-42.48985179596317,-51.41230102217023,-48.072959171475375,-31.266182648305694,-26.641250632197185,-29.824007736915153,-27.770781938405253,-35.63461635488336,-51.326163208326136,-50.02762515732904,-38.964051164867826,-34.906104571830376,-25.753397192992633,-13.51326856700714,-18.88764378608945,-29.41888740176227,-25.84327465876067,-23.470535432742928,-28.2219974163805,-24.281244020006746,-22.32136406501863,-35.35480687353441,-39.6139691479318,-26.071663982958768,-16.1018113849541,-6.99025599895687,9.146886972746152,10.534536746792119,-4.28537202556759,-8.68641480546152,-5.330719822406397,-6.953408735784447,1.0978210406968834,16.73551877464606,14.444719916950689,1.577639384533827,-1.9211378530582475,-7.047777590620647,-15.101587385584637,-7.389995749602559,3.9198575505561193,-0.4073530719808578,-5.0370244083495415,-3.6698126940037756,-10.455431835421821,-12.798855331138917,3.2986621174654243,15.539306263020938,13.317008703033327,13.357921337496691,11.489498121891135,-0.5390813621548292,-2.0024795612413744,9.591363995738314,9.413016732197274,3.442109362277837,7.738716001070968,5.207167933432562,-7.2956531147442405,-6.942801753465613,-0.4107783766841484,-2.5816127889501015,2.966412701286811,17.476694295617186,17.318229557694302,9.016626569269274,10.563046068116943,10.003270085710394,5.174673793724731,15.135013940176837,29.843582426376496,30.360754330608568,30.906074199624342,35.584494001339124,24.860581803075398,8.76418940749867,6.930246820006746,5.307432333019656,-0.35024530830182865,9.034988277608916,22.760311724782593,21.418664857532,21.462941893461426,29.77666504611226,26.14128265216496,17.090143172891263,19.366299140578796,16.25596680995251,2.609142364240981,2.1557262828859693,10.066775087915744,8.02377907749078,9.947968934112678,20.154176745238942,18.408624209620164,12.838436603870601,19.83291103526488,20.831466184338705,10.100529635910132,11.876874528994254,21.579115027561755,20.55230666781071,21.768842718219855,28.24682958813609,19.923003402801093,8.231395664432457,13.716644195496052,17.842903025865436,9.614086147394268,8.669226785338543,12.203001704778993,6.878324397756494,9.510531278187504,24.214072844450747,27.100738723299656,21.89894095909582,25.803865098604614,25.399957393093345,16.028488842555323,17.91783781057982,25.69842645405098,23.381900307154183,25.01115644607034,33.093688229303496,24.31844823958343,5.36138446472389,-2.487396266713904,-9.347786411171178,-17.501337400800974,-7.292550499403775,10.03528524172381,11.891472752640542,11.39832761684962,16.256820663396713,9.200297571999048,-0.9492799178632763,5.620405022472573,13.59376579746134,12.845674674309869,19.92563571589352,27.624309864580535,18.685073138482572,11.251784995168322,17.376376159599165,18.39384194687835,15.906535824300136,23.216121667399413,22.99912430017478,7.514778388340608,-1.0020291471849958,-4.047211633926642,-16.138150889401295,-19.222782455433645,-3.893200766540751,7.036352264323777,11.757699417228503,21.034032992573685,17.465647742830164,-1.0142325877141483,-5.680690262462084,1.035719010182997,-1.6203282436598503,-1.728131405701303,6.0659972240176145,1.38541254163213,-8.252925239601488,-4.020256282705315,-2.75274143221999,-13.425008374557772,-15.372266869580614,-11.844850774483263,-18.219303130201208,-17.529085773996506,-2.1111963857347904,4.225838219040736,0.8604986905536514,4.048615252323297,2.3488647081141996,-7.9440315981719465,-4.280730125983001,7.8515414397908385,6.391599634588535,2.708835477648863,5.183758442555521,-2.749386106683734,-12.972963737366456,-6.665465085288435,0.3030220155350152,-2.9885710749939243,-0.32834425921295085,3.4226405102915365,-6.149739872914456,-12.275007619506688,-6.60012275360601,-8.21242435414079,-13.08551656873857,-5.477906348139684,-0.24228631826836833,-4.511201317039374,0.2517716153814211,7.866695820349269,1.3408642584334869,-3.7545154916918184,1.1265929055628607,-1.6696358208356774,-6.483184185903943,2.162514432209289,7.304614622335503,0.7597670686711946,2.9213466745732086,9.613946217019885,3.795591100353356,0.05733693144946078,4.9311844126416045,-0.9376639993244935,-9.709873508898017,-1.7794419795094982,6.2345994631287285,2.0065232427986848,3.042349167137407,7.191229584158273,0.4617750189159895,-1.0298474665396107,9.264509738714919,7.676528194723664,-3.724793688548653,-5.180631276335718,-6.87768710477335,-13.716551063889293,-6.23229314235654,7.660888880192375,6.447941675214516,2.876316246927976,5.712309585215094,-1.0409360797276412,-8.085558487665468,2.5018390707158256,10.77766524218421,4.023649291953306,2.271192835940468,3.852454183941365,-6.630002455308864,-12.549823778779693,-4.861805719848734,-4.83691876279948,-9.566213563889018,-1.1398337444625555,4.856444278546329,-2.649027372536409,-4.58230927470829,-2.2487623515640474,-9.749832197370385,-10.815200884305803,2.0466304836388316,5.442530288890028,-1.0846675260310734,-0.3826118059877126,-2.368467990605007,-10.535536753276354,-3.6990662165486183,10.705735164872682,8.576005021022343,0.954870639986072,-1.4018225146310703,-12.90522662739217,-24.349265831378162,-15.28236076581495,-2.721054257188811,-2.315498947821383,0.9830532241287078,4.83441805740742,-4.812792464579884,-10.120833454687745,-0.3605420659140286,2.454310330380852,-2.595878722037871,1.3345935885338984,2.512570191619014,-7.019897830499655,-8.279902056939504,-3.9537525987701168,-11.15381102530082,-15.333207265279844,-5.992440362020466,-3.7900246156910677,-9.545135307404257,-6.536020728070307,-6.554561163507753,-16.49708668342764,-14.737752240059242,-4.77880057100765,-8.156674574875058,-12.236517861183916,-5.339488026427189,-5.036359992420046,-8.366438495821813,0.566920142051722,4.489535605508247,-6.99260201461159,-11.187624341930704,-8.322483561305578,-16.16885340759041,-19.474495854057537,-7.577858945737411,-1.8154221602388767,-2.651207874516075,3.851019494560219,1.2436871212347222,-16.877232342725783,-23.58299664739113,-17.16381420740971,-17.12230743372207,-12.40226604907501,4.953693193489162,12.355181091689555,9.140288736815531,11.613276852624164,4.623909640716995,-17.6992576303772,-24.260036272349275,-10.235381090850641,1.7443520584888466,15.692771045563598,33.13095463086978,30.197437163038522,12.657078811702995,8.178396687807469,8.232874478325003,0.011178577782966492,0.6758616861230518,8.10085640509841,3.0636199116843854,0.5197047107163331,13.827597046556594,20.972081511006422,18.00698425196498,20.518103736698677,15.00004400079224,-5.4187575669697745,-11.517612941169133,2.000487403804108,11.107812745499189,17.932865255517317,27.360099150695618,20.028141239308212,2.319337765284436,-0.05226133706681568,1.756284675764241,-6.2992736765347495,-5.800849946243941,3.274390552206649,1.6081778859468097,-0.8314572722010112,4.711648666424557,-0.08653231483566248,-10.84322997134416,-7.033733918919797,-2.868595078858511,-11.480012430556036,-12.784606032113123,-5.912496810283326,-9.451898807590597,-11.162894711926729,-0.2760650356498209,2.0051644932063177,-5.703205405879093,-4.290968761815793,-5.049639014343597,-17.86121086661111,-18.12695025424946,-2.590102933964511,4.874709216996376,9.052303318998902,17.90549997503822,11.83016459985339,-5.052280441187003,-7.576065430706903,-5.863708899381429,-13.475843587692749,-11.651398354574297,0.1266073994330963,1.6597191009239092,1.7774053098878042,8.793258041723734,2.89109727076138,-11.04305666476353,-6.526191586656587,6.934683382336379,12.145330405491631,20.048878047305,25.96204415551575,13.03526646481387,0.6834809161629183,6.142968528124838,7.832452345395948,0.3274798499677445,2.0297151243367124,2.707320477894573,-8.869596396572762,-10.179773525073673,1.796546820588273,3.892229772094054,2.5286329026766863,8.829590534228405,3.884262947362623,-10.699718740025753,-9.705170884437514,-1.5943499113000834,-2.5975212197145714,1.1302878006676942,8.830405295787664,2.3640186831281254,-5.293434597184938,0.5909218419714919,2.023612996390331,-3.3765970623258896,2.962578525342528,9.618259873080001,3.071579382915227,3.540608899499297,13.742698642761482,11.243893892157253,2.936773637553373,2.94204856196679,-2.2842435092055977,-10.008971097367484,-0.13941172722856887,12.88509346719725,10.286061614557468,8.329850883525218,11.796614236075547,5.831839820254034,1.209990684724724,6.998483085357589,2.7261145588580478,-9.83713989994353,-7.057323725104141,1.4092313330371051,0.7206539023529341,5.102571637001857,11.841190165880784,2.2310936219050843,-8.245850018537938,-2.3708751191638235,1.6417637569912142,-0.8242452069956396,6.738707488440049,12.410853077812527,2.6465416894993843,-2.2806154673723262,2.692214478428482,-1.5422290694180498,-7.779476793478412,-4.452693910727543,-7.9630509533689375,-16.957809639201393,-10.067513989580506,0.9187991535145081,-1.6669913699724002,-2.451322325396553,1.8004303344663801,-4.174339975629335,-7.703133270285985,2.229180487635885,3.6926431378720914,-5.338823701836283,-2.8135154675188687,2.1451910714255593,-4.851406901132226,-6.185664214666353,0.636893897161118,-3.228990408059775,-6.788324393423273,3.211311032234639,4.65504828876005,-8.285434546240673,-14.120228320322521,-18.202352353085566,-30.16536520491913,-27.91559452400724,-8.802746742563738,0.6346848584073002,2.285304580160181,8.654945452555308,4.945547979711713,-7.5580079496951384,-5.585942412329672,1.4497685405466787,-2.7625564949492643,0.2612908036849959,13.573784954029389,12.752958081963907,2.51641245558774,-1.8488574229497825,-11.130043502060897,-20.373496471673704,-8.890334150011622,6.763686707866705,4.7077445931058595,1.505086722452141,4.3951044016184815,-2.325985451302141,-8.238169827461322,0.3342668402317752,3.4624315116095037,-3.8011386263489433,-0.7522687682118949,4.786057816931734,-0.5356731443114091,2.946492176808712,17.4563083238371,17.952396942238103,9.637711331649351,7.954422581458202,-0.1672183438408461,-12.685677910665644,-7.507954984603444,4.022745910544286,3.026039733010405,3.353328281674011,7.220549795562721,-1.4992840237663643,-8.094743461255396,3.604080420496042,12.48637915831892,9.99677495838195,12.191788030282856,11.0028886414608,-2.418247001642916,-5.613044123713505,4.846510076327524,5.989385701813487,3.000274564898856,8.736945085618672,7.7186413770192015,-0.779796414020459,2.8777892702918715,8.611742236785723,1.08942646506731,-3.129029858986611,-0.26516453239561755,-8.371191178504594,-17.89583736539212,-13.54663215486503,-11.238869388146197,-14.900000066940851,-6.591174933417914,3.7140086507608747,0.11442225276175089,-0.19138634535062493,6.932965352848893,1.133317694304261,-8.367878585602886,-4.088313254593119,-1.7657964793953653,-6.23648551350617,0.4028186208124196,8.501654870730421,2.778561783557732,1.5398388998135182,10.399182461229243,7.637605004958196,-2.2234276222941456,-2.7588601356007887,-6.230743549387475,-14.661560585655542,-7.968275575351708,4.592247187000872,3.8620709885848084,3.654829942778587,8.850430053172277,1.2957069913969121,-10.028940325231098,-7.674432887046451,-5.842169402504038,-9.67079304874191,-3.283133795188772,2.3254457192226,-6.904535021393012,-8.203248636293896,7.372379536856668,15.660365715861872,14.36796273068753,13.881707423107876,1.8500032904428219,-17.375932315906038,-17.032136436433998,-5.601881037074287,-6.2322187898416175,-7.04156238561252,-0.3773212216138573,-1.622035439790447,-3.4144291144304297,5.2772870777055765,2.9933410253268278,-15.728935202926841,-25.14343973310047,-23.19368931857361,-20.47814429414635,-6.41900712286538,11.607453428179353,7.849813356099675,-3.672299927535804,4.681348306314076,20.57513949666687,30.050717167746953,39.34239812211484,36.92522684002362,19.089145072857136,20.09305044014445,50.596507529113886,82.45242286478684,111.78665019267473,147.7446379641132,173.6783222785066,186.90956270733568,206.82653454464236,222.04360399539198,213.69294683714404,200.07100591225594,189.85762743257047,166.9766927575379,145.05331655209713,142.44192649166777,135.88928576860465,112.17366429365308,90.08598359392732,67.72629410516525,36.07853325988304,14.520892948134536,4.0944041108816105,-22.570695134635038,-58.717160803512336,-81.12835377824874,-103.15693656927922,-135.28224772476068,-160.1237348665595,-176.65137023171647,-190.92316871568548,-185.9372411679783,-165.79954368875298,-166.79182666355152,-190.048042192333,-205.8938564710849,-213.2329991218082,-217.48858893829117,-209.77038566513414,-206.84913261182106,-226.16503003294463,-240.60792324207878,-231.0317309275095,-216.65664321345702,-202.90307836370712,-183.5033677215863,-175.6155924871114,-182.94697767849078,-181.2143504260244,-170.95694543086685,-167.77919993147154,-158.26579892880287,-135.88149711001606,-121.2642508014641,-113.26186144523642,-98.36618958834151,-90.7387763005957,-94.49249580568858,-86.53920858704822,-69.6635408346446,-62.62906297205099,-53.95584977713536,-37.753352220981235,-33.216526983910356,-33.41370390330215,-19.493098124063344,-6.684460692327654,-3.850077290439763,6.548420426064476,16.79854823600795,10.109102370115716,8.228882708784255,25.429942697086737,40.58700403759238,52.22225601799401,70.5840306931071,75.8960441926872,64.39604909972735,64.23179985263806,73.37070267236128,72.98496675647809,76.4691720173933,91.63457628316937,100.08493338057235,104.09707767704396,115.44276263728729,117.67664417445246,105.58420283269018,102.34091650811928,106.88020188315086,103.17322252480355,103.95310903732921,115.13327766967781,117.81501304726937,116.94359978135711,125.43108612738493,123.47580666722861,105.58267459013675,98.32234815040587,101.09581331453509,97.22476294893775,97.798163794456,102.77947509111459,91.32467461039889,77.89541327517139,86.92994444371485,99.36426885595105,98.09639076775626,95.37297486709835,86.02756377767032,62.25149030766803,50.90311184960038,62.6320156368601,71.1280207076581,72.33071622175262,77.48555145813536,72.18835483733254,55.17119560605623,51.935827163133055,58.4165124987602,53.63268220042272,49.33099949687318,54.111488385406666,51.0506418727503,47.09365767650946,57.3842751503117,59.13187120711921,41.50280398431161,32.216921278737466,33.54333971645963,27.072839794066503,26.28233404588601,38.37434242501487,39.67407459274544,31.587742648234027,31.775516215350223,25.95392577222958,8.13700330143006,4.715536865313214,16.23976429421593,19.591236545880346,18.73789806685417,19.784127228375954,10.850924308757266,2.811872301976331,12.208729410842913,18.90058304737895,10.664313805728405,9.261580414911936,16.234238238851653,15.029249730622347,13.559552662276364,13.688123521481616,-0.995709913679149,-14.998327224654123,-2.6443213726468544,17.111500393769717,21.607189217611406,20.730612882512197,13.530603184932714,-8.212957790592823,-21.86364747800906,-15.485784207003089,-12.610172351478909,-17.123169853554167,-15.321778345041484,-19.876629179817776,-34.52300452938177,-33.77164957363799,-19.128727620038752,-13.079074009020605,-9.25065442973968,-2.9980975369659393,-11.402317068569177,-24.370918499897314,-19.022677589739224,-10.823833240513224,-15.246775821788164,-16.69940010202219,-15.879291988590818,-25.390418870785552,-27.67008676212361,-14.12412367024864,-10.570999831332609,-20.44890382264439,-24.671871637429184,-31.03558213974074,-45.06500026559344,-47.58522135049253,-44.45791313717181,-55.20699653673626,-63.18543377274044,-54.96328657420979,-50.52402759197639,-51.55389753384327,-42.53920306544744,-36.0670050960272,-40.11975906992152,-34.29714618024202,-21.816491192029297,-23.92512819165068,-28.50460589846759,-23.110348922816513,-24.77696102471659,-30.289720601085882,-20.85677570516621,-11.368753451733394,-15.622611659119142,-17.779894412731807,-19.602285568086845,-33.52917997529245,-40.070313556745,-28.42361329167326,-23.32173808433386,-29.994518570538226,-32.18111606362843,-37.21248274142287,-47.67099210423354,-42.20773672491802,-27.58523770475166,-28.2904061818291,-32.129883354597496,-25.23669553148314,-23.7407646489402,-24.88748663590859,-12.028926882133309,-3.1259218960067785,-12.815087165285147,-20.33419086100333,-22.614451619381207,-33.75021450327422,-36.65336804568008,-20.9922285628156,-13.845838950572556,-21.470757793993062,-24.377088683957595,-28.381243732457545,-38.65830788128404,-33.01259644042227,-14.405412050058127,-10.624491934854664,-16.06621029138762,-16.320579848501172,-23.616145226382,-33.61366282323608,-27.061702804373862,-19.234636011590162,-27.033344321229443,-32.01524780515172,-28.685023240749352,-31.290966598866603,-28.507768001339322,-13.102504723345852,-10.211780192828725,-23.273593420680175,-29.098429062658774,-29.89029920302733,-31.111359540787614,-16.782524275531884,1.7634722315210478,-4.22480343133242,-21.725617217315087,-29.05689864752117,-35.031285929771975,-36.59502353696651,-21.15321001669539,-8.868073614518591,-13.791710628959283,-14.55772338265389,-8.276912344069958,-11.216251593819893,-11.122368362847107,0.16891631902586646,-0.19594951864799315,-11.920446590671062,-11.84395409893672,-7.711511340087116,-10.382033286864846,-3.384660506260362,8.031631446457052,2.291338862142074,-5.134882620487219,1.6088743562666399,3.525808264720799,-1.174270015266662,4.7111763464221745,7.751418436828632,-3.9595080247702112,-8.557137142403999,-1.236675707869268,1.3371070413870596,8.13866559870658,25.115490953639593,27.627361719761602,15.361340160699854,13.760910206227125,16.908234926004642,13.720738205860641,20.349080474566176,32.15718918864799,26.682361070230897,17.33305305857316,21.0291832543044,20.599274838924,13.934519694582256,19.22094978711029,24.305968167599822,16.091064243583375,15.467470888455665,24.847544379127473,22.151949865485392,15.269896419513596,17.157275738172316,12.5227759741072,3.129232047779869,8.31590797128568,17.121467131282582,15.26693464031031,17.41400189039194,24.050747309299553,17.49955043027194,9.723162331097345,15.742723814896905,17.39895227169987,10.558398586805826,12.483880729571997,13.182540923137415,3.1079932474805467,3.8120331375427843,15.772532728801417,15.924381071408959,11.874695512437398,16.90235834644294,16.4374189562865,12.252189181009566,22.549400414466206,32.180714498967134,23.80555768201149,16.106290103600678,16.68716607467818,12.26699584926917,13.635992986937765,29.415814396093957,34.75206143133064,23.551899688549586,18.77751651835895,17.600933747942598,9.317196770784877,11.175609833721142,23.094296562788593,21.12896722422409,13.037990188152524,15.540437908383227,13.609255370050406,4.243802908389393,5.243319996322792,6.764301642795759,-2.397032101667422,-0.38090889832688646,15.719054875497868,20.281247058099567,14.908372989641748,12.752366780957315,5.495526358766468,-0.8712355751732801,11.033454724497187,23.25001196693824,14.825579509607163,3.5833625034908674,0.5619463038111123,-6.85078252198925,-10.613919081834942,-0.9405218873527872,2.234881534581455,-4.9366719501554694,-3.0523052873671563,0.5692726921218831,-4.462577561309736,0.8858357110162856,16.425984234625076,18.098744518350596,11.560314699139928,10.24959446767848,2.1333521167277016,-8.649460114597504,-2.3537037257479927,7.1934982300278,2.8064923084599034,0.4364266676317695,2.7501590428432707,-5.6832864200434905,-10.447213776932514,1.515571713639022,6.5423154601690685,-1.0368655701999878,0.4973763318680131,3.8842143773358075,-4.644053201269616,-8.710432219310007,-7.273516776142518,-17.6169554523454,-24.780662287784306,-13.634569468307106,-7.825882531257543,-16.260715473901932,-17.580978175091964,-12.92537676680074,-12.322612622699028,-2.236191607865991,13.54081369279778,11.102592569923988,1.7814673389498243,6.936333455336875,11.561916081843822,8.753011967081784,15.439657455874693,21.61263254074429,11.25451201270426,2.3045702108856068,0.6372335249056736,-10.48707329055954,-18.238456524205294,-7.1380087153524965,-0.11011985549611558,-7.034918726825671,-9.044772459097917,-9.852150595355226,-18.253164401347696,-16.285210799340287,-4.812286367521368,-7.32674384546035,-15.084615638230213,-10.75465996661858,-9.267688904480105,-14.050066664675471,-6.485962028946101,3.154714514095365,-1.2707087119003462,-2.1966978111092823,5.076634185188016,1.8407173379350612,-2.1294079025558994,6.383485466003567,5.782898577813821,-8.22992923539755,-10.530018016237513,-4.9954606968389035,-6.862849981390948,-1.8613022804286672,10.58253855908601,8.256523313597675,0.7327468166167912,6.445278820337142,8.683386492892016,1.4772442286702043,4.535474303210778,9.958918866735875,3.0975396038121934,3.822669415391295,17.42077102658778,19.807752312902075,14.211465225573246,15.961075724091776,12.858518146603672,5.978437088795288,17.10063309393502,33.3745832538344,31.181824537367756,24.96637210342526,24.46746675826119,15.909836403531205,8.720108211558808,16.17908053175145,18.71402897645963,9.637222747389055,9.174230166556528,12.356276776709656,5.4218461343009885,5.577797458345552,16.54529017694734,13.917806487700584,1.4426383336310868,-3.4243428386461696,-11.388662032734157,-20.900030052889647,-9.808039107999752,8.459545930138836,8.698362008407283,4.315542218741191,4.572121856982088,-4.9658176705586845,-13.702885215701789,-6.562828714764533,-4.353180412983341,-15.10380792722134,-17.066676415655287,-13.496242026382594,-18.632826861027446,-17.42303100485751,-6.566081104641382,-7.64574304150151,-14.629296859283203,-11.265888103026443,-13.711621255994185,-27.565805007847178,-30.718765620525925,-25.454184913659454,-24.605162696951282,-14.531494690402447,1.900020559693492,-2.631691628451768,-20.5617804347221,-26.662823193103286,-28.128128135307758,-29.50798693864379,-15.719632755195049,-0.20559574418608229,-3.9633451818344017,-9.318120452533336,-6.8219438389226355,-16.134394813683183,-30.126855155724364,-29.452722712615646,-28.533716034324204,-34.52880440352434,-29.54731968797805,-21.547776940384416,-26.14431292478982,-24.57758344888136,-10.979048129013787,-9.565351749450135,-16.40796037835977,-12.623132605819418,-10.071590631887599,-12.695311059592123,-2.4045349955964515,9.019275805533116,1.4475575094879973,-7.008706455325178,-5.02790256255018,-9.503807427005361,-14.517194565352785,-4.77298674900671,1.957621552493364,-3.8450791338410593,-2.8871530688424394,1.7525719957230075,-3.8601619224810673,-3.1739530692584568,8.566864484475644,7.434916909725403,-1.5513160841109408,3.345945240297686,10.984778970737532,12.89273557622018,22.921888988197463,29.97300975847015,17.257224497865096,6.943394296320438,12.198593465230479,11.69802529509085,4.786251163390782,5.722492898964773,2.1951177184202675,-7.971818031680142,-2.7237655067402824,9.710374296084428,6.77314470081693,2.5536117168004013,9.23640340983901,10.45650642027816,8.979062961811689,17.71686644940358,18.911021990999615,5.821797351654979,3.090115093469505,10.568910190089786,10.978491738778526,15.812664125707736,29.957398143591657,31.566688775334974,22.88183616731782,21.19415493867671,14.72731249782627,-0.9025299475963076,-3.299356556981187,3.0722523054559456,-2.0445688677209413,-5.463345195080029,2.3127982828542186,3.2654784026013495,1.2310531575758974,10.266994232506052,12.288063133312141,0.7902032411820858,0.679439608860879,9.916753650594321,8.997684437096119,8.634415762090896,13.763597769721517,6.601595853974339,-2.357654304397525,7.078219230398907,16.959625807238737,14.702850704452711,17.08801744182494,18.480977538942682,3.6416384702518108,-7.264515741917069,-2.856855655063063,-3.957164973661586,-8.013853839178378,0.8266015809411842,5.374538306061324,-2.939174782521411,-1.6667008635442597,6.104079791672431,1.309517520701081,-1.0867553691252345,8.739243965311797,9.428196720004523,2.0934667829816043,3.5881174362301413,0.3014641338794941,-13.845157665864843,-15.08156367058342,-5.848912791458015,-8.407672331593957,-13.359479769836888,-10.882322207073969,-16.098032240996787,-22.98721625062264,-14.212931391816813,-6.721304168146132,-13.329219963713335,-15.399052254981209,-12.118975122783663,-16.299317035534052,-13.723332571816918,0.7510531187878273,3.47910497477966,-5.3340847567097995,-7.1169223957421615,-10.391186411809928,-20.00214973901881,-17.05941960161653,-7.727688963119356,-11.97855355320015,-14.87169265464797,-4.755685858539358,-1.5454884430111746,-5.021337688743612,0.5576970437133473,0.25824336614482524,-13.409792633182754,-15.610566866736846,-6.434924467466956,-6.128363943321914,-3.494587360039419,8.506028276638041,6.744113575538197,-5.41836759946451,-4.119894824625076,0.27050312526108167,-2.8343165510743917,3.266371729101679,11.266945262909067,0.4942544577200021,-11.12016396779258,-7.290532893476571,-5.702765542333781,-6.980306845256425,2.979084570385244,8.691836169112518,0.7549561664050657,0.24242979462371017,6.007242302681889,-0.14669836615018284,-3.7216764500752904,7.522347506211573,13.178532337480524,10.837320653336612,15.322978535295974,12.62243368841726,-4.682529706414788,-10.849685606880719,-3.9284761318179306,-4.076127335614028,-1.3526780453833605,11.095233765033923,10.282090258118266,-1.3104744950257867,-0.13854756377775423,3.9412773146115034,-0.23264961959522346,4.94457146042053,15.604174280318272,11.663745492873213,7.7810188252540495,16.52611786599301,17.021065753741482,9.250455302187437,13.058080864039585,16.53949222343505,8.785704198907293,8.833964059835186,13.79286134696315,4.45355323917446,-2.1573104131212224,8.783302754350695,15.239186298123595,12.720389458781671,16.170553696883264,12.684315655222402,-3.630242731340993,-7.06705026977429,1.8720893869703183,0.5834437587708763,-0.17182717153938037,10.970472491354286,13.793427835528666,7.678173679730516,10.60709944836063,10.44392530352669,-1.0622216045056518,-1.7528506910464539,6.8573760507251045,4.0675814903538825,1.1670115978137425,8.339757834783024,5.887777715688218,-6.004742248792315,-7.654858883344136,-6.777483769193708,-11.053311486622876,-3.1532632785919397,11.525118652755427,9.682213551187967,2.079863481353087,2.538089764487346,-5.020057639536823,-17.672865852292947,-13.731796081647564,-4.985036714020888,-6.445336414039652,-3.203827694682573,1.8135606630862315,-10.065165236863677,-22.947475340955762,-19.688201434523506,-16.687091616107434,-16.090895449240943,-2.833994804383787,7.77705499954919,-0.8711884448830318,-12.33101272001012,-19.705936192245094,-30.55365838875333,-29.142603799410338,-8.330564749516792,4.93289881598898,2.538600194743392,2.1541420474803843,0.6893925825409368,-5.459497304606137,2.4894887876836425,22.01268404230622,35.03852265840572,55.742552897449194,96.72695191153834,135.89499589278313,166.27245887757041,200.66466823343566,225.3392816852711,228.8427253197278,228.94582470502945,224.02341563219971,199.2201774014848,176.6616233786485,176.42777146748787,177.94792386904646,168.48478457528452,153.0122536058229,120.91694545255768,78.41806732064646,60.1684415829273,64.5361031470147,57.04468284857307,31.546013720323046,-5.005366072579202,-56.212977360950084,-102.94881496708562,-120.9315846394605,-128.56250194466125,-146.42820986367786,-161.65068630411938,-175.3826840407839,-201.0626106024178,-220.9175375403109,-223.44434373502762,-230.00987013777205,-242.60961567199055,-244.85595577997566,-247.4083102019486,-256.8721358019755,-250.43996042368826,-229.7424449545303,-221.22355522489286,-218.89530303693857,-209.1891917563603,-207.5851010620167,-213.40730290345056,-205.78234094738164,-194.04986683400486,-191.16811425672637,-179.0630703116226,-157.3515823860209,-149.44483923147146,-148.95143783585098,-140.73492767844206,-135.0572380022433,-128.75913373950485,-106.05883140799227,-84.131497872781,-82.02934731390525,-82.26511713782918,-74.62536125797881,-68.01170017227328,-49.99649533111673,-15.276544220700625,5.690016076980298,4.280228855517481,3.635860738545192,3.289927637019895,-1.8007879356766305,9.374685475321302,35.85882344407013,51.356828244127215,58.786244197808315,67.61916596681745,60.74993804526922,42.324643562163914,40.22680754683168,48.98982795141655,52.17829217749396,61.84937487287897,77.86203553981306,81.92648240019585,84.94598047376408,98.84505077999303,101.81436336926527,90.35554156965576,87.49240815559365,88.53017497427238,82.51010118399022,86.0809100194814,99.07129951165942,101.96710332901871,105.50542828822836,120.93218909631742,125.55039028611463,115.38432197593895,111.90908801660579,108.26277434258549,95.12628516250263,93.73797466607758,104.3963506164973,104.07022160482876,101.72640753787147,109.5026253428001,105.3536326978434,85.35347400663589,74.36542995313228,71.03972911305004,65.36645900253674,72.43015646447512,88.22831621480108,86.3513421807292,74.32549000394275,71.82823914822086,68.73363410227765,63.25511985333432,70.26767347008166,77.61800564779124,70.40570595372958,64.04286050230884,62.02153614414754,50.56421699709672,44.22325166949968,57.57534247857025,67.7580049071019,63.77095307937504,60.96036508569746,52.64475768270808,31.843092244257097,23.178098730747923,30.24987126466417,28.940146370004406,26.96284358101359,39.67671115879949,46.84774903464651,41.29529899641093,42.43571098627964,43.12740394363803,31.12065265958281,27.19166488838592,36.11960762829282,35.505342870742695,31.64851397588697,38.91800171452349,39.01667156887675,27.497515253266233,26.04559912753505,28.584496679429872,21.420541325581716,21.852855166301765,31.79083519390076,28.60793043325715,18.73384974888156,16.081722304531937,5.733445342124891,-10.567958737729322,-8.221756463454803,5.177667770522566,10.066040350420952,15.824624425917749,21.319024548427493,7.501995382081381,-11.372958500692919,-13.464130838153062,-13.77239010708491,-19.142398317353667,-13.75482039903018,-7.761456799581724,-14.440938858339115,-13.992765580763521,-2.2799427495118634,-2.4437640255998967,-10.526059172817272,-11.874093149316131,-19.837840076056178,-35.380839438397125,-37.903107075475646,-35.84865245765688,-44.076312313839026,-44.178463165695035,-31.54965391624044,-29.19689102330827,-33.78392567878344,-30.842499596661874,-33.40591297571527,-42.62919988449524,-38.73794171948696,-31.574206841499546,-38.58525294972674,-42.44170543343141,-35.42921877326135,-36.47119612968777,-40.244499095022064,-33.38025671994609,-33.41883297542409,-44.86780973586204,-46.35071989995643,-43.317486661715,-48.72387799530611,-44.30770710264649,-28.204656469999545,-26.723863498386876,-36.01746577329385,-38.35794364538661,-44.3287627303445,-52.27691069046471,-40.60737121070403,-22.43894090035989,-20.819338826002916,-21.980482732644568,-18.705056061155435,-26.655715446576064,-35.21917419737358,-27.13290440250613,-20.86741312765655,-26.050863088317303,-24.009128398337722,-19.29260479457478,-25.31261169960345,-25.38849323664172,-16.28344681940449,-20.686447571744612,-33.38713012422697,-37.69170351335097,-45.00595453730947,-54.36836702318291,-43.31737859168814,-21.702709550268715,-12.558399926639456,-8.17076154218742,-7.6942392041842,-27.216295789786848,-49.84549760577903,-49.71302543407405,-40.3582615479758,-34.20937378103882,-20.66556749737618,-11.955974460762643,-25.0959913791533,-37.798873513997236,-35.241239761697514,-35.9346841108841,-38.18949588172199,-28.839384051890427,-25.029783776701123,-32.59183881994464,-30.30722226527236,-26.083471839651395,-38.99292450086577,-49.34355600415309,-42.811796903643355,-35.76746103872918,-26.128872492484,-7.043436801173167,-2.8881845260790535,-18.920753406433725,-25.941196249705452,-23.02956455871047,-26.64489759636851,-23.83782046189372,-11.210285348166908,-10.379120901010909,-14.907474431798683,-8.395587014197373,-6.937925062131991,-15.050810410635453,-11.575940296082585,-3.836678921477809,-9.609466821641789,-12.556523456689215,-4.470835993130029,-2.9522283413828116,-2.20791367939662,9.184293693014684,10.31395906654337,-5.00869877948211,-11.562695621250668,-8.261287044340644,-8.418148760720543,0.9615850250035138,20.51575855381498,24.122912045528423,15.982976986211156,17.30444832259263,15.710247921108314,4.1836723445458155,3.4651889060572643,9.625371546627088,6.493436974709514,8.54900757929745,19.247632875532894,15.768894939743289,5.237851602881952,9.23864487788161,14.871480439140898,12.80576140306576,18.33707265529043,23.856888289081194,13.965551922924835,7.954538652290731,16.62355477641098,19.932171422283528,19.157297536072296,26.92092317304001,25.57349118551734,9.7532487748586,6.256718034810602,16.124613837276577,20.366057502201187,26.639689769789403,36.957975795910265,30.221740570330514,13.866134314340087,10.710200239960772,9.657208527627219,2.6135391289342653,7.0759337641177975,15.73856990808313,9.073956376339193,2.208485692920016,6.238195517881194,4.553660096764294,1.381558337780476,10.848854298464305,15.247851915008972,7.150898771886205,9.889453368988438,20.142593735476535,16.296261556268046,9.970476607747798,11.94014553811006,6.261763312290011,-1.0781805031782818,7.407941160865625,12.923441745505658,2.25618231066665,-2.187436355422001,2.643831004011746,0.8999391206299481,3.45979088167073,14.598317058736868,12.25855809432915,1.7938967563392634,4.396183333970995,7.5155912495885815,2.7610350847878777,8.533281410787598,18.272324012764887,13.157608902647329,9.190040451798145,15.622808465018483,12.17636093139042,4.182286575903149,11.05028097359965,16.508892087770125,9.966406931900341,12.84048172261829,22.167323786748792,18.14437936170676,14.506383410800222,19.51677670031274,11.882433322657263,-3.270634479840692,-4.030958652470514,-2.1990719871768265,-7.034958931923633,-1.3395638494505722,8.399714923534173,2.3938344764261124,-4.469806514012871,-0.13839503966398237,-1.8630256460320893,-5.902013886293564,4.498771958809526,12.032024369315055,4.240717820108763,0.9577363910193314,2.33849026078254,-5.08097785238043,-3.8780814314050684,13.143697214742952,19.502996937293176,13.582640479946953,15.246580460510758,17.00655999764294,14.195760993924793,24.40316331435816,37.23422210849026,27.70322451580355,10.036520441604393,1.771350258328698,-8.078708372060095,-12.800272245333678,3.6634084773159934,19.711917055707744,18.136412121110865,17.777938176346606,19.79082152969576,9.18989878328327,0.012100571818346006,-0.12849020572560343,-10.232392896467202,-21.25364639199483,-7.536538917737126,16.60262993257224,29.54840562429635,38.77820439985613,40.6933788306984,24.234115951306478,10.51288893148986,12.144357574245907,8.099237099743231,-0.024628540655775577,7.268756327122842,16.500497619741125,14.058737096364123,14.374073214372485,14.152228446861937,-1.6044814412670325,-15.87515274579557,-15.967852512138705,-19.546641271236425,-23.345457484874295,-8.55406507553311,7.808496791890043,7.234667064936002,5.135168971489967,4.274762743429611,-7.641029386269047,-14.557521320838717,-5.156160813019771,-0.8447855957355482,-3.7548103731440188,3.7784451504294045,10.283914062515018,4.283459288289628,2.4561954605520633,3.865579689105945,-7.232903893589814,-16.7321773808646,-12.213633355982358,-11.21473922141279,-14.923807436207992,-8.994583281911863,-6.989697127240683,-16.65824348341433,-14.329064742918563,0.18102381618955032,4.6814881980284415,6.775959566331247,14.745823847697519,10.468640827306556,-1.3563279874244847,1.0400195929242062,6.284516273788363,3.773080827802528,11.752237946255066,24.50875393572686,17.607284598601318,3.6246822359104467,-0.30555101085811054,-8.019946198631535,-17.863836182523322,-13.981758352916188,-12.938894650284603,-26.384864931428886,-29.613249806107376,-19.575747779391804,-18.41480551315262,-18.276782401604457,-9.76583833690901,-13.086395593367788,-26.058959042417737,-25.210421797263756,-19.646269032683236,-21.496823778301277,-15.245811001996287,-5.704465984643351,-13.283803673606172,-23.942122640792352,-23.36408906320835,-28.678368459626874,-38.6144987422983,-33.40292242725863,-24.45131317286846,-24.95895838148595,-20.313236019731544,-14.319225374212362,-23.925483780492115,-30.806748575214648,-18.44042202390412,-7.953384455086846,-7.4131789841789,-3.1305395584872624,-3.186498051267852,-11.203644663544878,-4.015798746926521,15.041304850716468,18.88145713429581,13.303439097188829,11.742877220257142,1.663137688129091,-12.69730656300628,-11.58550707959525,-7.320452190767342,-12.108063219817563,-6.131027861312285,9.868406989319514,12.165879824986924,9.584638747126888,15.961888950070385,13.773499196625568,3.327601752546566,6.561251420133697,13.384845253197877,9.673293076280679,12.59900587734679,20.85385515847228,12.406790319054021,-0.4191742980306068,0.5818549506058481,0.9872227167791829,-1.27699047504393,8.28408612963267,15.336575600808143,7.282720369175208,3.8106166831989223,7.434742512567336,1.0433166095201583,-3.6246965084656866,4.710518252816335,6.499756785449803,1.518551784524309,9.0631758105872,16.80745551366176,11.219296917503426,9.417050326092257,11.057823459353324,-0.49782474670317356,-9.271071498498191,-0.403295852520003,4.90099892495279,0.10268132491608739,0.9809237125180714,-1.1947432973130214,-13.410438162258105,-13.50410807019192,-2.311191576804381,-4.762807283035378,-12.92298183410805,-10.526265655739353,-10.482019437424393,-11.982713313955792,0.960085677938733,10.257109105613695,-1.9911043734845615,-13.382077606216244,-13.430657870432292,-15.641309884444546,-8.879366459619568,14.757080275749587,27.320748905522937,20.500533993741087,14.077349618178609,3.3226579058307033,-16.301641998420713,-19.24757212814793,-2.5465287691521885,8.951043807505975,16.976536905559428,28.547736312221787,23.79021369498127,4.375633810811983,-1.9345159216166725,1.1360292940251744,0.04846383515933117,9.073568446079628,24.11977225843528,20.36554389440791,9.594600672237329,11.86117601227542,12.447077326566115,7.561578329635603,13.199620625375877,16.51945791127807,3.298789513462022,-5.094412385435446,-2.124458702294566,-7.608828544446054,-14.56075430304184,-9.436445154614864,-7.9740096895295265,-10.934568053745998,-0.49049742708499533,8.218709704421718,-2.6355565752069836,-12.159067092499408,-9.601793949210968,-8.107993446369433,0.9450701899046416,22.006797030860362,26.714680197841272,10.823352203612782,1.1325319967754723,-2.2249456788053807,-6.4278068535309,5.646568381837069,29.04036974017071,34.793721221774035,25.88672084881376,18.167451865134048,4.043230562127901,-11.20019463246361,-8.726223705617196,-3.08444838154876,-11.630046268478452,-15.529617011196136,-6.981378044671994,-2.4360437850337524,2.3425061199437716,12.557519697428608,7.257732998936814,-12.407418348339032,-19.014111079946794,-16.19159064584423,-18.225259583361872,-10.200302109231735,7.249676786458271,10.607023247513027,7.950738589721582,13.88285154999069,10.266077033744814,-4.997918142880066,-9.202309527956267,-9.080128824961621,-17.573893110064606,-16.846437172251235,-5.608453394065076,-6.7536916977322425,-14.299854526091163,-13.694099350028285,-18.375079859548762,-27.976380540853583,-21.363683170171207,-8.392681819557154,-8.213125759621871,-8.13345801815515,-3.6405687436665404,-8.896449209669528,-11.54939715039978,2.4099547395843315,12.05947441774465,9.007240146527685,10.737200973821693,11.537887195737234,2.4600991906541356,4.245299665860399,18.812115650155018,21.45039638976663,16.64908820709671,18.435933906806447,12.026955763045173,-2.709333051086369,-3.465474489042399,1.1777626127144931,-5.507741433137777,-6.3646443203634036,3.776028763496089,3.8418276010156096,-0.5939500233260413,3.5359626956697725,-1.202981156121341,-15.603582247417943,-14.593280443788712,-4.506746372014832,-3.0491923839127684,2.12620918194186,11.038050463229972,4.08016783102057,-6.474859702169194,-2.425404662250285,-0.3744160163886594,-5.228526640834356,2.6380891889127938,14.530282747118333,12.69761105316568,11.517031544254632,14.002217530000076,1.8538782297403946,-10.808718461454939,-3.7809088884808233,3.6827334792263082,1.3731414525974142,5.561948061233702,6.957045206442892,-9.128177149466655,-20.773953423181023,-16.806233491761365,-15.674501482202633,-13.066034461654052,1.9028741180392128,7.014596806986127,-4.276319212615356,-5.708993690653257,1.3055981184814183,-1.243768511297744,-2.059734383177804,2.2444491401646793,-6.058895493944769,-16.350987216426493,-11.658931260743211,-9.805730505526116,-17.6913279583075,-14.652485801612464,-5.353605292273364,-6.636527333261066,-5.261274302596155,3.597081699046126,1.0432219509171667,-5.130654763222248,0.7376470917391251,0.1778649784835482,-12.208642047330308,-11.734261656077631,-2.002437095061263,-1.7792432611418927,0.5574784690498729,7.66403394287561,-0.3677532579879381,-11.85938953873773,-5.072399572535991,2.8494981273134785,1.2881094680800638,7.45214415131784,13.056950168225402,1.9242382742646988,-4.582696205347732,4.58880289989198,8.789495657041499,10.897965686077123,21.951386172566803,20.446189657885135,2.8986559620152477,-1.5941604696963705,4.353954397639889,1.4910242351030505,2.7390636904315406,10.681216183116506,2.5259868072702876,-11.339570887449838,-7.876611499327817,-4.232155422324242,-10.67095311799571,-5.939465606224186,4.856122974643905,4.065564789205266,9.851237166972211,29.024673420202568,34.5658473248502,27.287468409348136,26.768042195870446,22.356863821727796,11.950583518063098,19.249764117514207,37.00939830353141,43.544729591050015,54.110117971889196,80.31190584678909,106.22180159567944,136.85202889727583,183.20632978093371,219.53624257238508,229.69724783946168,232.33710359700936,228.17682536948638,208.97484133104908,196.89129790587464,199.32002254308065,190.64409616717663,169.8996375940067,152.40835117741705,128.6394008445752,100.77088320309316,92.10045560288874,90.68984791222232,69.36337823410561,41.34604270356784,21.451582448062602,-4.875893748103671,-34.06123310229019,-52.01923894756115,-77.94097982579173,-119.19849338829655,-145.41608254548674,-153.7664546629123,-168.54326018348013,-183.67780358476512,-190.90705542598405,-208.095382911383,-231.0803694174861,-239.83244248529257,-247.20669533215627,-264.14356516311074,-271.97112871482346,-271.110427272093,-275.07895640414074,-268.9781086306096,-248.69289169342807,-240.0081828797087,-243.80780297934047,-243.84017216331415,-248.08120646436265,-253.2232554331842,-235.423188031802,-206.44094591494536,-193.77768895924453,-188.0569142926039,-181.02326745325533,-186.55171049441782,-191.49914893552787,-174.35176229350978,-153.41111335372136,-142.53174277130134,-125.80001934465992,-108.57128853260835,-104.87702577305019,-94.71660376112358,-69.74113472920799,-54.12235381349916,-46.988933810326444,-32.39748516621152,-24.116699860107605,-26.673487942435898,-17.805364740304846,-2.412754572586364,0.23218193628245798,4.230890015923554,17.78995481873054,20.552189460804787,16.861256479007466,25.78189632013658,33.64542976224936,31.938814086255633,40.89089425984393,56.281509344766164,57.33129762493405,56.83723998240914,66.0584328162695,69.04077708272096,73.17514923178584,96.41267386983338,116.89576256749682,118.80372427469264,123.47133526736454,131.54745510238328,126.08219242470452,120.56457466458653,123.85371875331997,117.63783467718932,107.83677567388668,114.45720066402119,120.64372936766962,111.24748550516946,106.7344695666714,110.7268181755102,106.94351664434342,104.98973808705232,110.86466391372716,106.53278370902507,99.50274624706229,110.62595057699978,123.56417258622729,121.6287802198685,119.7638958165208,119.33049192136647,109.51027488100831,107.41106549799524,121.98897996952708,128.6053956654424,123.30057356945224,123.24854992134485,119.23573092151355,106.62066269496111,107.40095082992426,116.04300840231453,108.69732325541872,98.21922176699876,99.12269318177113,94.77217951684327,85.53386518643329,86.81162535836295,84.08716542214208,70.2537688516112,71.35415151551481,85.11533770953852,83.27108685712759,72.93962097776611,68.9245746497963,60.311280811279445,53.76156339829042,65.63125670840346,75.61563154916985,67.17229469086772,59.895216665549704,57.085096837364716,45.23625484350781,39.84586434311272,49.875322519453924,52.00623870418461,44.9481406544378,44.38083049958443,35.78483952549046,14.15623710196706,7.7580262532333135,16.857375783008653,18.295113555918334,20.17056256175693,28.172373173566715,19.84798280467178,0.3634755066508708,-4.046677323505355,-2.2532537015565737,-5.296574218449486,4.241650061036319,19.93490349943574,16.498206475454115,4.978249384310315,0.8799213761106903,-7.549345715973997,-14.95780495487195,-7.023717514593937,-3.1875224089129075,-15.489320643852073,-22.188125900292395,-21.210045912497087,-28.806673479968573,-34.49905992360957,-31.144197457225715,-35.87520230382238,-41.934896038760684,-30.38256164581038,-20.139162833094264,-28.28644360108316,-36.26200976524578,-41.091362865437695,-55.87826244776279,-62.28955471236513,-46.94329262668143,-34.127776226511386,-30.221557453259297,-20.15147138486175,-18.138986749411032,-33.82203391103021,-41.374191605409194,-36.38674865173008,-38.166619094738145,-38.387563090319006,-30.31847948992191,-34.434435028967464,-46.976618817040084,-45.35558607743066,-40.7832958990857,-46.01240227147575,-44.81087571259751,-39.34156056779962,-45.85297000150236,-49.95534593156783,-42.48157513196635,-44.977290580738604,-56.05685119578002,