-110.17254041880976,-115.23260860235092,-126.785654097282,-123.95249661509473,-110.3825899012724,-106.16999314161362,-104.0631802900696,-95.63743769114248,-93.70068225155218,-94.17157289344402,-83.52427339847583,-74.75525076849593,-77.00374343322196,-76.60625543021854,-75.12939016099541,-82.98170513605679,-85.35117551822268,-71.53255031054682,-57.050600038489435,-45.27183632574077,-29.137220064224785,-23.429583068387686,-33.94654855525787,-38.97155826795473,-34.535048344288306,-34.010089828072736,-31.1593689141406,-23.20552714670024,-25.645562245597596,-32.683256527246186,-26.014903111449964,-14.241460320940934,-7.649381556753941,2.627516844755041,11.162801706949498,5.006427647568625,-1.578024935033027,4.105033732703024,9.712353526122818,15.237006043189037,28.952543633345666,33.7169815287155,20.918786222152,11.396535449145624,10.622398612540552,8.911963928744786,15.858988949284697,33.93425590937168,41.48849839061897,36.36885187648343,33.55161914499089,27.03375231328897,15.298986938787657,16.662528089266928,27.31096376348171,29.598712491580564,30.30822664940783,35.40879444971631,33.637621566585,31.961542755982485,44.587649959347935,56.542608349130575,54.930030333013846,52.007410909895455,48.97476170101821,39.88634932650333,40.52096325786636,56.60237669300107,66.71735790203869,65.45098759050188,64.5060130681129,59.17894501518468,48.2268819167748,47.23494687056972,52.61166176334214,50.44561551364729,51.602745914983316,62.33151517449625,66.5606928265368,65.55808863409919,71.19869607789566,73.55449145767471,69.75624533743907,74.7112000114543,80.78639878096011,72.94752338442002,66.01352757556432,71.32985011614389,76.00687323855509,79.90350801436094,89.54600331414494,89.30137504740317,74.29133746974982,65.42987473513709,66.05418672368923,64.96735352477626,68.61953578261996,77.20412074407014,73.90404411545371,63.52668258179319,63.60401142283743,67.84420235802862,69.50328807572636,77.1209390722215,82.24793873709963,71.97490540828537,61.55206743256623,62.52018662257235,63.41437706989257,65.54565211046238,76.78341806114982,82.05959014614064,73.92746491409265,68.56701482912325,65.71004204473886,55.475890019530596,51.109225104835375,57.321626031412436,56.29094335600105,50.70257650030457,55.114496050514845,60.565986601349984,61.00715555239532,66.93055668012552,70.36601750108889,58.63219707106066,48.789575761390005,53.88825238274008,60.55801037522905,65.82312647287112,74.82205363431505,74.02997510983352,61.450143210617014,58.284219338447976,63.812894566403195,61.69614806689317,58.013451044823135,57.495798108800535,49.66260949662131,43.03532533800389,51.09618453765208,57.596107438368534,49.59239874604904,41.294510768912325,37.202081804066005,30.902312137407822,32.44842094671056,43.4249033501944,46.2610574958823,43.35158636975824,47.39646654920278,46.51052236139409,33.38564588110502,23.875256398371818,20.085041915908608,14.288681669395608,15.666582521488,22.84347565000312,18.134058978566696,9.06354310645217,12.253834398400532,15.097202237112068,8.677391573483058,6.611460798847854,6.629619137747038,0.027609905329287976,0.18805508779396274,9.179138293400099,9.58291940419022,5.79475667940925,10.792935566552421,13.65402795883394,9.017099913773556,9.648049716112055,9.62096578832043,-2.878330758375985,-12.909417221788209,-11.622383208926568,-11.665095238401074,-9.51208473313909,3.0260523333777805,9.099087129829922,1.9388836224309154,-1.3137566265183072,-2.0562179924117654,-11.371128212531241,-16.59174326664056,-10.91138249979332,-8.324823809799163,-7.4467919047730105,-1.0186510819993253,-3.1388148998475156,-15.35183727467083,-16.861608927167577,-9.335858581600833,-7.28068344664055,-4.791351249199101,-2.2496132755937985,-12.187666894897982,-22.14455866496185,-15.785487699152771,-7.9064730353222235,-8.68317398482571,-7.001978573485928,-7.930705080040255,-21.437546365112333,-31.923409664758477,-30.90787455732645,-30.714244819143016,-27.020101066794524,-11.088773015674477,-0.28114245741420607,-4.827943482879194,-11.731448902297409,-20.613231910144172,-35.490717743383634,-40.0764212116328,-30.442459191135747,-23.556809426857935,-17.917035837137426,-6.4480220136794015,-4.547261520658544,-15.891243581445513,-21.701238266977374,-21.630591288014294,-24.823758244817217,-20.648329899354554,-8.222271953829116,-5.296375404882342,-8.104987476011658,-4.2055906629702315,-5.838050549749335,-19.015871620070943,-28.016763244417554,-31.463272375149835,-35.72102904499342,-29.528338478513245,-13.05377170520194,-5.5288432333644035,-4.737086364880065,1.9226287287507953,5.48612197362301,3.920910865287592,11.531961860355212,22.800918016772933,26.481977232089122,33.14159657301527,47.357855584522326,63.600777736185876,96.82805895634884,155.8531188150986,209.953914570897,231.06380231572797,224.3175182783607,199.75647964932995,169.92307599332406,155.571864361553,149.8791093495318,125.86888582926616,88.98282168737441,62.39489145688661,42.30623269297834,15.959144989813922,-15.874738664290955,-54.24601211085928,-93.84336023540229,-114.07763630128098,-116.87256125863759,-129.36996587491168,-153.72596187661253,-172.2506333488298,-185.3162715391503,-194.89351010504856,-195.46277786786777,-199.43509765351405,-215.51620863040318,-224.50044263603672,-220.23634328228997,-219.53793113411507,-220.0510695320263,-211.4329837038133,-201.9339401512031,-191.85073054642908,-173.29105951863622,-162.14498641072825,-172.17883005896232,-183.83834961192102,-180.87212076266033,-168.52129771199162,-144.3928330202438,-111.54885993655051,-97.12011500158357,-108.75050958953103,-123.048395136818,-130.81205605616913,-131.381485304752,-110.52563920077162,-74.17053216619034,-50.33367773247502,-42.44146314813404,-38.29227224303722,-39.011371555810925,-36.19547761714913,-14.901411645438948,9.391203200722313,14.631540918587799,7.897603780524801,-0.4593575989804184,-8.695496121726904,-1.9409631221137982,24.873262940719417,45.58355271100455,47.5425061457836,47.02316471435299,47.613759678081585,45.2684790243767,51.99574604191599,66.66460586702284,71.09625457201841,70.25046126170807,76.86110294284934,78.10010473490743,68.0889990230628,64.23165462891507,68.75067142886735,73.05770999103791,84.8319317914231,100.71401454982582,99.6855622147962,86.56613954801828,80.9488156898006,78.31830603072596,73.95689283603909,76.56326377151645,77.73485525440607,68.86310886753178,66.52042141732443,74.84009015400822,76.7477970289676,75.99281518490568,85.10587254888972,94.05018429113906,96.51973248142237,98.28788502267186,89.27646242020137,65.735388950411,53.54042091835364,63.559577069842724,76.1228120391068,84.47072676986004,91.07039249692174,83.5460357834148,64.83016980919665,56.732356426608405,57.582309719070054,55.98012123950808,61.673853814341214,74.06090544002276,73.42716134118416,62.41034032285676,55.545537339787614,47.75916739580039,39.86474400877511,44.92058260649031,53.31702206710237,50.375602048868956,47.15943215975885,48.51315546763834,40.752922014661465,27.97692204244256,22.71782921255156,19.503612162294257,19.931491691775072,33.926793936564025,44.30309855559729,30.950413623490967,8.575781536791135,-5.566160166444773,-12.396171538445985,-5.361632451260869,16.30180314829604,29.01103064762243,24.638969402573743,20.707569640973894,17.636458429845273,7.56028740148928,3.413849084471077,8.502904521277069,7.663067371856894,4.664872308460476,9.218320697742303,10.23373587280915,4.855952648694416,4.379331223944964,1.9520195910895397,-9.918654067136307,-16.128639473615596,-12.668305887857553,-13.321845515868052,-14.558964083553494-9.223617676996081,-9.697571522259857,-16.14481356114824,-14.065538008666941,-12.066646302251279,-20.608541333296007,-24.310904415944815,-19.634076595302865,-20.923433095538552,-20.868876255163926,-9.848325294290326,-5.196221169578613,-12.918653775737875,-16.76645420738925,-20.053143046859233,-32.91207483486838,-41.885363170459755,-40.7480721290342,-39.63507288244247,-31.24199619139407,-8.562492843383868,6.756560668584185,1.759070627201948,-8.236897691353438,-16.27174962745701,-24.240311198516334,-22.09868022043231,-13.314699728147719,-16.327454908933877,-23.91577131195612,-20.4867016117235,-16.697671525975604,-18.187801264407998,-14.431002050111758,-13.678179275146407,-26.034596809830088,-36.580866615812354,-38.996134765689085,-41.997402301080086,-35.75529653214649,-14.454300441012403,-1.4275875297133496,-6.211689160212656,-13.112790686423189,-21.568674297620397,-33.767521944344104,-31.676509934452866,-14.556123219796621,-3.6964995633907316,0.9100969594764169,5.913327195957079,-2.0078714041567345,-20.31376613114798,-26.492917264333546,-23.36118510098624,-24.153061072300964,-20.15936676845479,-11.80157952423471,-14.536816800725914,-21.458106210166992,-21.337795538786946,-24.07911897301855,-28.23095125980647,-20.397719524521193,-11.583988282050854,-15.007674003213598,-18.046705369613814,-14.563632835015891,-13.715160598456002,-10.789110121767726,-2.6646505263296945,-5.280633300485819,-17.609167835253135,-19.281997495400496,-13.017846635359406,-11.906739874225048,-9.830360624112444,-7.170090053307263,-15.197170157389248,-22.86043482668181,-16.72847330733618,-10.90020174508739,-13.564909775770854,-14.326202444148894,-17.703758491388765,-28.275781070252705,-27.544817911879456,-13.664542927135283,-7.162332735664106,-5.65014196585974,0.3417754893811584,-0.33648597631348776,-5.575951650274199,-0.5002994398499356,4.179694577018641,-3.3841764608861764,-9.28576508846712,-9.16659433928259,-13.14965626928938,-13.349591213295607,-3.187452640031783,1.350279021704679,-3.3481125434482824,-5.103649118735126,-10.27522641129647,-23.91978392005217,-28.4711830873261,-20.520550185814585,-14.054336638307849,-5.44646686691604,8.428210157438729,10.98470806643416,2.5400387883043196,1.2274374935741605,3.117923070631804,-0.9193280130341392,-0.6625311554470277,1.547825572562505,-8.753895021510596,-20.181487174223843,-17.49543978367855,-12.136609252582886,-10.31782642219737,-3.7195321837459243,-0.6467584779620408,-7.736324218969961,-7.995884857091882,0.6101743607594208,0.3772355874402227,-4.172928254920283,-2.0559966125846554,-2.8243099151629325,-4.802507093391772,4.713605491267137,13.136389772242051,7.927487769905644,2.1844841633282988,-0.8232365078105265,-8.53672969887,-7.578818872923798,8.98291799853412,20.090459506377897,18.207631438400313,14.886581369917177,6.206022724297245,-8.917676078948434,-11.951869473007974,-3.1773790522451506,-0.019089946124090984,2.055725362263358,9.605814674784856,9.511422396876888,2.9910010958001547,4.917136981255049,8.360128282240437,4.627323430763681,5.092190773929903,7.907015221274185,-0.39936472596560213,-8.024063790773798,-2.453531133495389,3.192336736515232,6.857483190646529,18.647312109810365,24.87411650121088,15.167470510950956,7.476330575502468,6.3066380180090285,-1.283552802676399,-6.402617244840482,1.3917617752556084,8.630420801970816,12.437946894430144,22.801013536071345,26.06122073689654,8.532947045792515,-11.669845507010816,-19.335651909897887,-17.07478567334155,1.1624782627163226,32.18321811701946,48.32623735451155,41.999145973249576,31.282583568875587,17.555880844855285,-1.071715607035788,-7.595969292148332,-0.12404103131010347,5.846611315491977,12.370809743964914,20.559873979975453,13.852438298546103,-2.8616678029322706,-6.707792252881805,-1.861110650854967,-1.9828995188660912,-0.9694232030407635,-0.04773371445544905,-8.016182129917377,-10.53203473560922,1.6348686576854519,8.410123074668622,3.1847612538537415,-0.18212935139865494,-4.358214717185369,-11.919755037228645,-6.833339584555172,8.93695080289141,16.686680391079214,20.87627527415482,29.541298764559116,29.481812744294782,20.43134125768009,19.51578049659352,26.33295758883459,33.92942505532528,48.510483348065485,68.38873972551038,86.42616207276336,117.67309396406117,172.27745790721244,222.89152033778205,246.61493553343337,249.55615798318007,233.21802100073808,202.109252219935,177.72403982270782,158.76881920912547,128.1748819656064,98.76134461542536,82.54145789855286,59.26765938899496,22.600417073398035,-9.752690748713789,-37.58268894183062,-65.80279156008504,-85.57559176145178,-104.40491010082295,-135.45676386229866,-161.50271164549994,-168.83971536826107,-174.21415047068666,-184.00997726272357,-187.7652983541618,-189.57950061448565,-192.52527678930144,-186.1149991182708,-178.47540839951034,-186.32467846558967,-194.87429541327757,-186.5374235008265,-172.94084806732516,-158.66879373317533,-137.15270166667528,-123.51049232608221,-125.66946461435961,-123.49603269078625,-114.04991265052166,-111.61776895725906,-107.47079342248013,-93.69475567074392,-85.32027140785037,-81.39891154835489,-67.84504270468648,-55.978700841976455,-54.44017660244495,-46.86124233071088,-35.272413551942705,-36.07393848792715,-37.935512306859835,-30.019101513920436,-25.522374592143404,-20.683328196111447,-1.5780214663659997,14.06691635496095,10.686141154092578,5.117773956680726,3.8303278239777194,-0.6575542271936099,5.771048739434089,29.578748413745284,47.39278367863518,53.06452585489447,60.62876232492634,62.142467992430255,49.68223387553671,41.173663886481506,42.210903524368824,42.19709462132377,49.25949941975854,67.2916945241362,74.92056287520234,66.70427388336736,58.49180370959671,50.73652500624253,42.825201947535795,48.143569877567245,61.14468131507702,64.44702475552472,64.29593411262759,67.14342289826371,60.578349962835574,48.43013348354779,47.87280260062309,53.666768753171354,57.88433790505047,67.90593179545499,74.90629436515968,63.75698161996286,50.64840645334454,52.31287858702386,55.56470171114057,55.25112032276837,61.79641148220492,66.41921532611364,60.155120494526,55.14122292820055,50.60731060180095,36.47107825651076,28.19597979060186,37.24139636418196,44.397603899561865,40.003389805575445,34.110565497194024,26.56123282014466,21.824300588813383,36.01505545659838,57.09669272908943,58.1797788675264,44.68997723745223,32.38377686843889,21.364115309766717,21.327964058863756,40.638739667160124,56.85298035574257,53.01819684321903,42.38044207029402,29.983137882919763,12.059989107693754,5.063210038514265,15.704591939896048,23.307127347968446,23.13859862098638,24.85629993805557,18.039617364329544,1.042105951864948,-3.3578107397442523,5.060822406944721,8.49204159828859,11.288008949181753,15.16475606295591,6.0894701348999565,-5.66897430331242,-1.1686009367991903,6.304842520381941,3.780711417152209,3.3237623585137204,6.585966910742382,6.109833191492952,11.887106774356013,24.162916752906828,22.230932265270205,8.59309792597265,5.141521001853852,7.8723506595174575,4.053757064418412,0.3628884759325106,-4.575946202112156,-17.54448366679453,-20.964181852832954,-5.592865140895649,6.683192137482496,7.11052237452161,5.196433116423125,-4.965545756999785,-22.554257790350857,-26.13726410047191,-16.20106467339872,-11.08013588624847,-8.404217415057591,-5.438585748711878,-13.120063441028032,-21.597396521738414,-14.51615436118481,-7.191766324887573,-12.8074852762452,-16.976076400473755,-16.679029167174182,-20.014083525092087,-15.912601665241015,-2.308339392169083,-0.08887791216201912,-8.904846745563159,-12.398461418075808,-17.62153708439761,-29.128064304672492,-30.679159214833128,-25.935736387980214,-30.931592757610662,-35.14814944351759-29.448720473769583,-26.094161790301946,-23.409207652948968,-13.95597776399962,-13.915918463280407,-29.2173059171088,-39.05922261024794,-38.35912396969634,-36.19817568536842,-25.537657051851575,-7.571293362699589,-2.414536374552337,-9.20080695541968,-12.657123717559955,-17.209809428531344,-22.612110924029608,-13.365837465918329,0.5642977776207561,-2.2628924479879005,-12.82820755137276,-20.285635007677215,-30.99838861383985,-34.28941837566332,-19.15047951939068,-8.388266627578549,-16.660518761446212,-25.927892415283072,-29.99037511294093,-34.19391764902562,-24.974637974143505,-3.1387236255792583,3.9120478988638356,-5.503060008757323,-12.20025690560788,-18.745971589952298,-26.906613365996364,-23.10267331933475,-13.952316798801451,-14.97595112994848,-17.931938880694368,-17.821527904730328,-26.189740440907734,-35.3823292716439,-29.362043827555276,-19.28523309863931,-17.096976794729144,-16.33663243896019,-20.849122427796367,-33.9656852977496,-34.92333522487124,-17.22464436398743,-4.115806939473377,-2.3846968475846744,-3.293581605012889,-14.503175374771338,-33.28466800865663,-36.322365965752155,-25.20513881071833,-18.782537625571088,-12.834203022825083,-3.6458485854878298,-4.2551573179794175,-7.843172604935309,1.0109342330961146,8.517208037904515,3.5448880950199078,0.3779971659931713,-0.6457894134100897,-9.744625422429369,-14.941008131253358,-9.82910026996614,-8.603051016589228,-7.466083348530873,5.299025535428573,14.160820263674715,8.277213092699624,2.590718926516532,-0.7619727184358586,-9.551127542748453,-10.519207583330392,1.6908698518072542,8.092374116651234,6.619565166003514,9.110262243410332,7.412064740251569,-2.405915103873392,-5.330463446023679,-3.5948979234352696,-9.319557372288557,-12.144767066038643,-5.126858042490529,-1.43257086679487,-0.5509174694256196,6.073281331314121,7.065559925133684,-0.9663286824147743,-1.4732517724224024,3.1458602858295652,-0.6098297615617683,-4.301318333733325,-2.312509563566417,-5.315684315204123,-6.458013156516412,5.869913999860109,15.631534465066707,12.718421592917764,11.23889874986929,10.694623190887665,2.2437467862373506,-2.194655516934747,1.2950540483314512,-0.9870852159409407,-2.605197337191171,9.43782221434997,20.91098319385086,19.95182974522514,16.02827456655605,8.66038421093888,-6.167553256266117,-12.391518905321798,-4.448016567266634,0.6986468574778499,1.730157538315898,7.8830256825174425,9.5643685824299,2.5630515475522073,0.41542192426220714,0.4336190286962828,-6.7464174336121046,-7.946308435064871,2.3992451910183297,8.566911530673506,10.923417117819593,16.757568018071176,12.988768612082087,-0.8793731521532617,-4.591187736923033,-0.6811927882961126,-2.5461266576866697,-1.5265542588166419,5.140296685042146,5.31047268738274,4.976656473886109,12.170486894168185,12.04927911187046,1.6013546669717895,-0.582884192711388,5.318396258642908,7.098047483040601,10.53810921400916,16.18212079936978,11.537155784247307,6.500285385769962,15.67648201008752,22.906535215101208,17.36837457263893,13.31370308411733,10.726838143803347,2.4084684224680086,2.297706714978538,12.313180183518195,11.26350910126381,0.2834546446964601,-3.8507396274422545,-5.972015666750937,-8.582148978737134,0.7272046050687604,12.721395573898558,11.402565044273452,9.177113402166277,14.790131420170638,16.60068468417151,17.425280277542534,24.205000280404928,22.585701664625077,10.521636185961324,7.697876168558378,13.331657111358297,14.031381133432195,15.719103906570158,19.533834537940457,12.454903416024933,1.9496701316719642,1.7245362063850216,-0.32969175413840734,-10.288851212494684,-11.759689453604228,-4.091398162465897,1.6510116624659457,10.617107553301745,20.219435440285626,14.268928388325554,1.2676317028339175,1.1173621163692746,7.897153262445309,13.03476207018518,22.143366595989352,25.933361389386494,12.144422266952075,-2.797848267480814,-5.572293188292248,-6.522653763580186,-3.6016817548426694,10.69014733151618,20.00530159998757,16.68829772452073,14.821542951809075,11.502161162892369,-1.5686910283656497,-8.116023369099137,-0.2641688470505459,5.400852698198305,6.1524430839558075,9.076343455562851,3.686876492034374,-9.604178374038948,-9.858356815647532,1.4222102062324424,8.378619973911547,16.324649256967426,25.95544664492055,21.981999041984626,12.130592052909986,14.06301535887942,20.587616194088458,28.003507731546723,46.057268838245015,64.18869025099289,72.37102433346696,88.78563662263677,119.60268556115096,148.4704138303061,176.88489418548403,209.89000292360905,228.52374577570282,225.93685110211538,214.94096935629705,188.40933084619684,142.5401358808669,105.25783609757326,86.71788744324682,67.16168828911475,44.87219355608994,24.30709052334138,-9.029053434687121,-50.52281397710108,-76.69685775004709,-94.3506569578123,-119.40746452697552,-139.81124260239068,-151.85137234291662,-171.3739677651507,-190.63659549836572,-193.19070656918396,-190.85532204077793,-191.95861573608806,-187.51418965291865,-187.6615855248356,-202.6893628454654,-210.62720560879444,-198.11483018192166,-179.97310680571803,-161.77587527696403,-144.10624925207708,-139.81086157739378,-144.40539218023173,-137.71616925539914,-124.2897237848986,-118.41509419191087,-113.40028851907643,-107.45271858916404,-109.97512901033474,-108.98678715006,-91.95910033026935,-75.6665954082329,-68.21719750976237,-56.47191945217752,-47.04178009525762,-51.99447967340696,-55.00164646364203,-45.665245331435564,-36.172394378871836,-24.496790073443137,-5.634228296025434,2.2365617942965597,-4.668602469178362,-4.153121566344033,6.682148439879445,15.719964284018202,25.675788036314955,32.64718029767461,24.376496852775347,13.858430149516746,16.85520384895511,20.91632618776467,20.26632381757015,28.773926266911083,42.18864869219195,47.61301861550871,52.64374055178984,58.56116157467409,52.92086094584706,45.88280879219804,53.856651385223955,65.2888839456199,70.05279102848084,75.2825741077465,74.84224340582298,62.14770919333909,55.123843193945284,61.08764903241833,64.89515853741322,67.54039962703953,73.69955625285587,67.26534979904311,49.5978689173787,42.70360896027566,43.52961888341528,40.76481559101089,44.50244354916314,54.17728339397252,53.59942097172286,48.80491922929953,52.36316528639589,53.60233634373547,49.31137145787021,53.749794605957106,61.295197714661555,59.02006375146492,55.14417141255415,51.021977640888615,37.466950111835885,28.357749838273993,37.73762621930901,50.227056128772375,55.682500004613146,60.481426396850594,57.10937508071362,41.701953199945216,33.102817760406204,34.274108934922396,29.352861917068378,25.23287979551349,34.468625570129284,43.93791074692205,46.30943618535167,49.96944267449187,45.947239647851895,27.59938999293905,15.893104782250852,19.241679074010282,23.41457987804346,29.03916269525414,38.156406962620906,33.95230657088509,16.744453023818096,7.685864988211529,7.134159413691597,5.612068989651713,10.493952534134229,18.89431088922807,15.072094808861515,7.249552759025033,9.540604143775603,11.989361032239389,10.576113266091014,15.912401358103315,20.795292300100556,15.709151357372889,13.314810015422562,16.576612621612043,11.82507153829954,4.771530493416099,7.231721261071497,10.18831440457802,12.38444390707198,24.551766285116134,32.727277064996706,20.604639705944816,2.5000966051575912,-11.867149628751838,-27.678325708467945,-31.686973285790806,-14.901057501602502,0.26987935992467316,1.6424198211995849,-0.7931042149405299,-12.127925021123879,-34.50426912019547,-42.98774534788345,-29.909823916792007,-15.174514281419235,-2.1930685756455293,10.085786379879586,5.240480835436658,-13.172085600256901,-22.478546181507447,-25.065397077563865,-30.075301384783714,-26.284106194675747-14.94729859278976,-12.159865842969486,-13.418957822482502,-12.082880053417515,-18.81383535733115,-28.655252729825435,-25.568804111244894,-18.91261616626483,-20.974195527281832,-21.58983879527852,-18.98152771872647,-23.500820793276144,-26.521507222099622,-20.710326555747706,-21.51367077161764,-28.911853111651997,-25.26934438820114,-17.133005976721172,-16.28325186116668,-12.835937961222248,-8.548475341394528,-16.83799034826924,-26.230967524657004,-25.149992366642277,-27.297250754809504,-33.582202506246354,-28.928963554869963,-20.171604505876573,-17.81687660923209,-13.211820700264795,-10.285050562036274,-22.23802248263916,-34.81002373174803,-32.12967634583649,-25.60349688788718,-19.776517616175585,-7.1452242831705295,-1.096138468319013,-12.914173678342163,-24.795305280886446,-27.761425197251363,-30.432175076903892,-23.92512996726488,-4.0340710548240155,5.175307582652926,-3.680728247601683,-12.4450808170681,-19.630025587812,-28.548282068261138,-25.605769697622726,-14.222670116272173,-13.653797662286983,-17.0257131550428,-12.602712551894768,-13.176018686785381,-20.348378932027522,-19.094292559251702,-15.02570925651551,-15.756886442541433,-8.96344180361163,0.6616126324404661,-5.494228674413055,-16.604052280473926,-16.405338223210457,-13.675107215353346,-8.937825367286614,6.255657940861479,16.381324582065854,9.674377410481037,1.8304708615343706,-2.2253387904784785,-11.358039083212013,-15.693349992410345,-9.369581372726635,-9.598817556376217,-17.443132308132558,-16.67841024542208,-12.141018552075142,-11.94007078378607,-5.831196744023368,1.879123476152765,-5.445454301895067,-18.165145772895503,-21.99623685948561,-26.30118082799696,-31.09070111399284,-23.610998452383512,-15.301578672333921,-18.58345673204095,-17.890481186110904,-8.646385716652777,-5.03933784187911,-1.2480772984357003,9.69360591746242,12.029887507786354,6.18334486228487,8.85213706848143,11.176920602371691,2.994692338917514,-0.2992399869950907,3.1169565145519686,0.02144394954470208,0.14951818959067403,11.583826461161586,16.928931141160703,12.980031268616738,13.374260782757457,10.803187786345436,-1.9292187803024916,-7.2953185650339725,-1.3991896868455205,0.1744440517956447,1.559186126906699,9.54213197150369,9.247949398211679,-0.21905948401367992,-3.2592161321555593,-4.820805388810285,-10.837092342059831,-7.7459298669385745,2.235110861905572,4.01627227641415,5.488137982055286,13.341960027244797,12.536270106213909,4.006850521329636,2.9994389702729434,2.7192989627116235,-2.4146194505437575,2.889294423391215,15.592495908670704,17.191915270753874,15.226580508828265,20.445143160792142,20.393177236999513,14.708227293297563,16.438123113694388,17.807154160553534,12.568121984141149,14.94037809119497,22.373211674901327,17.105846989052328,5.847144815183588,2.0457345473510746,-0.4340338241564621,0.6983853812663677,14.612475789149043,24.385485186336084,16.94683525060803,9.216770158155054,5.78442597846029,-3.8766648777736914,-7.685663440478747,3.9452953180294608,14.322365377905037,18.71415624630903,25.144066142042842,21.609886495169203,4.601171218113542,-2.5738972046925452,3.6986874842171282,7.2721256174725735,11.213339646215157,17.480452849245168,12.235747442768496,0.7903590063770212,-0.4839235876795024,1.252085279384337,-1.578479327687571,1.702756831858406,7.449010902497381,1.8104604234279895,-5.266542364818208,-3.138933879696372,-3.8053737663343163,-8.981970728180427,-6.701353979156161,-3.8979322227832585,-7.6757323650736025,-4.325027508711247,4.815623847988986,2.8778228328198634,-2.385625202556341,2.15510522859848,8.369404147245378,15.983374334945658,31.47848856598558,37.779769869879594,21.950364761943504,0.7052168111492021,-14.112876170928528,-23.001723980372795,-15.038821234360977,8.862484947934938,21.756812000000362,14.746199786127011,3.877614626669539,-7.7656080485787635,-19.67823515801224,-18.41376904943009,-9.163663045056506,-9.584445923448499,-10.810539620035378,-1.739402924001591,3.088764790088587,0.36052851498614213,3.7821679430931323,8.718675745108472,10.624577873298604,23.37292743667111,42.96764157855595,54.365035641780025,72.18186507977475,110.85592850889299,155.15971287261198,197.19028919801383,238.29567944763022,259.61079516076427,252.25812981145077,237.0489664397205,222.3236524059417,201.69478250188558,184.908153159873,174.27862963049807,152.7390312491207,123.3995703364545,100.49928972381339,72.0327146918513,29.8158621944604,-8.107640187606652,-35.71863061569568,-59.01208753837598,-71.74765431438604,-81.90818385219443,-110.97363485938068,-147.00647389831073,-165.75996385532727,-178.6516870633734,-200.52930641879925,-220.4771808201585,-233.433147346534,-241.56976051154885,-235.96444428709972,-223.664174004034,-227.86845528250802,-240.79678589053822,-238.25392570414022,-227.39077210192121,-221.60266188389292,-212.35887011709198,-199.47569080405555,-190.33530368055153,-175.5422380854174,-157.43249200671485,-157.86969355752535,-170.22549926763654,-168.30234829184008,-154.51526195196976,-139.34864581595946,-117.73718134540654,-99.49983807726244,-100.23933897863954,-105.42294973162907,-98.91073797877058,-88.6102668574371,-74.05835887349491,-48.53859104188182,-28.536864650606876,-24.678913091350807,-21.87412668442186,-17.07552818044821,-17.75631089900841,-10.811829612001247,9.871405628042783,25.190269120075705,31.044191619701213,36.32956685617777,30.78344346950479,14.914789781856516,13.399189814482922,26.387807259573272,35.994138895298,47.22683312828086,61.94337741427214,63.671220492590834,56.64192237860962,56.438306246080415,55.54006491210275,51.89502378880921,62.553867455721814,80.3587295979255,83.53336413113271,80.27978960675874,83.90557155290111,87.65607299103016,94.01353632438254,106.31668072025813,103.47240139820306,79.56498536354871,63.080431817719756,65.89373678900904,74.81188122515064,89.22172587107727,106.29876074589164,107.10135591886498,94.77488803335198,88.48160650806439,83.68394537796271,75.08723485821744,76.23380248059689,83.38100551428175,80.90005663593814,76.95496130030682,78.44858966322093,73.21789991248343,66.12138550385012,70.99311821689653,75.78090880759319,71.03112084038813,68.62736796905747,65.31045615864289,52.242409149260254,47.64693782242783,59.59975673805265,67.40943200468311,68.58157160904778,74.5258809717253,74.58254206577152,63.931119598620356,59.630304332876264,61.65670956361261,58.64709086984426,60.17681523160453,69.24358213687518,67.56719044698676,56.635874326538726,52.327911074931265,48.04168610794558,39.14144436563829,39.49832791606984,44.771587784864685,40.094722790097705,33.28999586850247,30.224887405973078,22.0477049675854,17.357796120731855,27.612976015428305,35.140302722986924,26.919935275449983,16.943361009206054,10.954414165578312,5.158768877873907,9.217293286043098,21.97390954954942,24.896690169839534,21.101759337642665,24.15765595587021,24.11105631167535,16.6396313592436,17.10561574051909,21.385248832853605,15.807329839105133,9.71045440455131,7.239808799396628,-2.613664462962912,-10.33302233426204,-3.6932681579591504,-0.29424612825428187,-9.644998042730155,-14.25455440814272,-12.636633946904556,-15.415645201790001,-13.123368041263689,-4.393660160970889,-7.893245706782443,-19.743882490118406,-22.572191225105293,-24.17620007174353,-29.830703661497324,-24.911500214781476,-15.72762922833962,-20.381409259738348,-28.762451677832434,-30.448959076842115,-35.26487562523382,-36.876312721303535,-22.80231209376039,-10.684012233090494,-14.442203050563831,-20.559811359264746,-26.97638462463156,-41.00516513982406,-48.639151910679615,-42.868030462917346,-39.78976593746336,-39.17844397848006,-30.326803105480003,-25.341633255556204,-30.977708858632084,-33.167154099830434-34.30895136326714,-43.76071619429245,-48.106988714346684,-42.499509184545474,-40.689023801965476,-37.23579725008302,-23.41220708884444,-16.7565838224154,-24.594948168930884,-30.181484742640972,-32.43139584727213,-38.63789349199998,-37.90890933787989,-30.249133667946595,-33.08602702596231,-40.400515258406095,-35.761386988335296,-28.13690846223318,-24.851912152321397,-17.21879506146916,-13.81255419784612,-26.246547369984917,-38.62394631042373,-41.776567855636195,-48.137897248359046,-53.842145967650154,-48.153738682939476,-42.03642366930249,-39.555003963115375,-28.548010076001233,-18.037726849761423,-24.847094547288155,-37.92184598310845,-44.51049780806705,-47.34808521963045,-38.3535067194413,-13.711033486059884,2.1363272551181836,-4.476266952261222,-18.041471558246865,-31.794449797502466,-45.35711727995465,-43.40671012856146,-26.895260321978547,-18.236012138170565,-18.06074740806153,-16.289163479290472,-22.75162437294891,-37.69455768382614,-42.780496138411465,-39.528495698673495,-38.175903440390925,-28.362888715231833,-9.82043173198053,-1.9858832559493687,-2.5019861292839587,1.3881251832531263,0.26733331499347,-8.289364419125295,-10.370578250570357,-12.127406803114077,-23.712484969851914,-29.064539648683933,-20.811902145750942,-15.237523871752225,-12.94030381490642,-6.057416528432117,-6.517019478732623,-15.599078110944497,-15.57620135055323,-10.779321073403331,-14.139132800948552,-14.486849434900748,-7.17498117467469,-5.459165000307735,-4.063140686578115,6.90221225560685,12.238358170197017,5.097562986861579,0.3805135218243038,-2.704884809660528,-10.273938683419848,-7.618781203351816,6.755191681498696,12.274739102410399,9.288081439071485,10.25008175125581,8.59721757065221,3.4599142333825608,6.863511639320404,9.931475879762019,-0.6970456560918059,-10.510656488146266,-6.772284446687657,2.685667231253359,17.3511574080533,36.3243656954162,40.021766896026534,25.448602980275254,14.660137544422287,11.696350844587739,7.685073168378157,8.38944134583364,11.975481958573587,6.810836323339727,4.051696112550122,15.669871423902356,24.26337251510364,19.65155192599948,14.577583564781438,9.050040333618538,-1.0101217185689335,-0.4606155658614097,11.527140591270024,15.355416451147374,15.121153392408186,24.572430413881822,31.996910017941726,30.417115268361812,30.194433470496776,25.272645703590165,8.169563354963522,-3.545078677260265,-2.8986055336807777,-4.858796201056144,-6.62122757499143,2.1232216927732033,10.267706967792572,13.656439010937094,21.968940728280405,23.880576863880613,8.221641016950358,-4.6894562709741825,-2.70994396061413,2.3249203957238715,12.31023230319287,29.40792188114135,32.969724845143034,20.31695242799801,12.834018848963137,9.646435504852835,1.961239227885729,4.196626080993258,18.106189296186173,23.587703113974307,22.589375474373625,25.43311583176444,19.321292312381345,3.8117012065842015,0.2789568061795523,6.8932902037551465,10.071128412638574,16.81171897728905,25.53023114015427,20.64775625704801,11.637264669448992,14.457321146346555,18.274879517477988,16.458263633989834,18.38088540841352,17.241954011810908,5.8275523017581214,0.38678602719857036,4.778733522338641,3.2585936586180146,-0.4271362364762128,2.513788272560819,-0.2953663466521179,-9.25156381553142,-7.7984035460866465,-1.522128631687019,-1.930461754073414,0.8117284975811736,5.807976689771014,-1.5172279944321274,-9.868482716700182,-2.4075725459189155,9.959440521938648,20.286444212525037,34.46062576921614,38.817685013761874,23.16865537932381,8.049678409148301,4.1267535158689395,0.24573418332657537,0.9908623284030089,12.11465214305269,15.377901434570717,5.0254151848416475,-3.5334232684585007,-12.178469208491595,-25.066112292554436,-23.54604354076381,-4.593943042937367,10.398024864437716,18.99353962526045,27.369682660675245,23.11971725365714,7.221478978407298,-0.424541220854174,-1.2385136016934966,-3.6867753881035545,3.313429156576689,16.818345383621114,15.42057534048764,3.202785746371422,-2.7404010070315508,-5.61943816561911,-4.965538362232843,7.334795381913576,15.241635480569586,6.000478669506083,0.8062377098379059,10.959039587150833,23.329691566135885,40.23210385938965,66.96461539953434,88.84470364014388,106.57112253718077,138.18593231105564,174.55570396495943,196.60620102465597,211.7535873664965,220.9014630572199,206.8754174764863,178.54685397054945,156.5987193467992,135.84755622393246,114.1872290380739,101.06955664227367,81.75930354866125,42.385925955202005,1.955957698528886,-30.354223185343812,-66.46279414719743,-98.49479539795199,-116.48765781306211,-134.0279944426438,-151.3934378155991,-155.13578190711456,-157.72319198962933,-171.03438420520166,-178.76847087219386,-179.59766832642777,-192.07482120065097,-208.8965574501417,-212.44049849417462,-208.02183466424498,-199.53959592891627,-183.9377311379482,-177.4348647224245,-189.20442574861198,-194.6509886472585,-178.66659382668104,-156.38297856946056,-137.0094223559857,-122.97585489238124,-124.82600118377464,-134.43105410663787,-128.72589718856682,-112.75215395289592,-104.3603587798349,-97.73132756416186,-87.99995040219511,-82.99314493883182,-72.19053479302691,-45.58818752421366,-23.49154725005121,-18.535183399422174,-20.123352324927062,-28.368278477131067,-40.48256575301998,-33.79174978782242,-8.068888699330595,11.00344475810639,18.238707436869525,20.274229069993464,11.286288383776593,-0.7391885179690871,3.2288370498109087,14.454146235159957,19.20445950767616,30.038670774044434,47.660299713621484,53.21576709740744,50.967271714520905,52.10464901513027,47.47622194843846,40.050231075649236,46.26349191375682,57.456129155757225,59.30766866619088,61.124818017601285,64.60207957022551,58.86413608728254,54.8962599987974,64.09180772892927,71.98814049884456,73.16056548679433,77.32034485212125,77.03239683429943,66.58856258343306,61.6615470502137,63.87348346473149,60.63005353547986,61.249649421624376,74.06291979622915,81.43901052356446,77.08092370382391,72.33267081950663,62.547550438346995,45.642523814031684,41.36964335624999,52.62333929611457,62.138138553941495,71.82698154534788,84.37819771468861,80.25741126485366,60.21929234950208,48.7661794590078,47.26937394206045,48.955529921683414,61.996653855998424,76.21267952493936,70.70083315523885,55.7473531193866,46.528474936538466,34.76089058975888,25.123248213957886,34.49359179051503,50.373711400052905,53.64344598636421,48.63378799102502,35.92153969461489,13.849144963194684,3.0807759538796353,15.116504898010364,31.034103853701044,39.83611315716793,45.86612761034323,41.61070697272554,26.092735274715942,18.15197735503286,20.320685146233014,20.993382864728783,25.552288540528117,34.33337740646479,31.04835786018546,20.987680166370353,21.56830367418623,22.787159967577853,14.431515020488437,10.127138941362494,10.106593306521113,3.6912820399554995,3.8331483351801547,16.695745266057546,20.714322266506137,12.300587250654658,6.985965992699145,-0.3153829849355698,-13.443226329306363,-13.576257140702927,0.4067589926479549,8.934294969478719,12.680406202667601,16.258477923023726,6.506524527321925,-12.678306788941757,-21.692670374242134,-23.6711002842856,-26.86127438580042,-21.352614897243708,-8.454431901472613,-3.480581796318983,-2.7475037933774247,1.1632696093800812,-2.2933330073952147,-11.285767887787664,-11.515897650139731,-11.155752022907304,-18.875133787067885,-20.48093044750278,-15.470595383828034,-18.281045749089007,-22.12821210346896,-20.48192540883203,-25.735018038465697,-32.78924876309606,-25.867825521806196,-16.390190578056032,-16.74837081904338,-16.116974079743716,-13.56649718550267,-18.150174480620077,-19.223228629930613,-10.001692841544813,-6.72889524242467,-12.972782725963631,-16.342249164402922-20.73229372581988,-30.166977401449202,-31.14608227382006,-25.72445716099455,-29.524218493636056,-34.06568366591495,-28.868564466789294,-26.332602083212794,-27.39295240507601,-21.79620499258241,-19.81214051849976,-26.44139192198353,-24.39859969664029,-15.101426075528558,-16.000561705656878,-20.416376911825036,-19.331076898458612,-24.248689646126895,-32.070418726673935,-27.5174415954248,-19.833653144819138,-19.565280257320644,-16.46473777562882,-14.058546063689196,-25.258557734265697,-35.01406083627476,-27.702333956914195,-16.128129627634692,-8.33814071819393,-1.5478611660784187,-7.055765626975153,-25.89119980157614,-34.285987979422,-27.148010767956904,-20.7063214428192,-13.704286075025085,-3.277077082140134,-4.271083890583946,-16.201503373289405,-23.845057889005055,-30.533067593927843,-37.96453558537767,-30.681106792206663,-14.287578125676143,-10.36856803648553,-15.54386506446028,-19.69581656217998,-27.232265864370092,-31.431402218753185,-23.09764270006314,-17.325162738516514,-21.90756735102902,-20.885408983914473,-14.119229630055164,-13.999226493973412,-12.459785692456045,-5.215254119266918,-6.801534034823936,-12.736231707119662,-8.329241766253958,-5.297862487513859,-11.586872412009544,-11.199180044988346,-4.847835226062871,-6.506740834568679,-7.082409461156169,0.1468717958078054,-0.5686590803079268,-8.982198975767671,-10.197220192470372,-10.34209531002646,-14.297068781438089,-8.812611892860929,1.2064657060141775,0.03333670929164523,-3.810714846908462,-3.5732686404094425,-11.72880806692643,-23.06811638334443,-20.191802301105653,-10.716981960438872,-3.929665555212665,9.116087728846296,19.9770815488802,11.748259855022242,-0.5753888586949962,-0.3087254944180038,2.1485027998470074,4.910160461573257,15.042947211703899,18.494213286224905,8.902080380693189,4.305969327836141,5.089030154636832,-1.5207428544270694,-4.5113344745744275,4.35331998808067,10.539827059124523,13.785735286519657,23.906459786462722,28.345063299996355,20.537885391270287,16.45734166477055,13.484025756959422,-1.384673442339425,-12.704007151607502,-8.00535354066222,-1.5394445229410594,4.321235011178191,16.179440131559794,19.432176833018637,8.379679678968815,0.6529102891197143,-3.5185708566811424,-14.396699607976549,-18.529752019646757,-6.715116423361314,5.262012169554362,12.674499867603696,22.654887633640726,24.209009880940645,11.622450614021302,1.9155912146127134,-1.8339398009050785,-9.282457285408228,-10.340648366083652,1.4521103631325003,9.755629653499959,10.823447546958162,14.536317615153303,14.141161153280365,5.9597575044113,4.254682006861813,8.10220769269242,6.012630724122403,6.913507046517835,15.155299142125273,15.541621874054176,10.351396157936005,11.15879656970144,7.046107559277438,-3.9373994505013794,-1.680322653533321,11.562368036872044,19.287852263173093,26.583253633501037,32.71802585700408,21.57469009062399,3.6775339526478503,0.515464600333478,2.3061396180813167,-2.0543863816855574,-1.7691489711145174,0.5478431777902312,-5.1225906204297775,-5.583176546639237,4.133834370773386,5.826083834273632,0.37614977532504845,2.04594056059552,3.7977428972343454,1.2545535895210895,5.823510364800016,10.181605627121519,0.8333103146625294,-7.945869722168478,-5.301707618372387,-4.0479654556557145,-3.81629005107913,4.900675093422167,9.922608101224629,5.0324811346181635,5.249440925232616,8.254186880765918,1.6631082968498458,-2.5246280781199966,3.8691916393258667,6.449167380902041,5.775550664568979,12.520794838148163,15.63200605114536,10.125814047417185,9.875532740091206,9.449487927042727,-2.703865624377734,-11.838569600495157,-10.07466011894903,-10.26061876045421,-8.746275037733671,2.373821889180332,8.429436989890513,5.3601324903498835,7.246034785752875,7.933419937080181,-2.824042650133977,-8.822354610498472,-3.1312518951506627,-1.9867677592369815,-3.7744181426942625,1.350958037662938,2.8114380483614863,0.5502153895813973,9.09682026880988,16.02870639630278,3.2416277973893663,-12.35403736304222,-13.477960531983872,-8.21903757472144,1.2132317567682747,14.37439803743731,13.604708461344536,-0.7117244717167432,-1.7819088927478257,13.04710370572052,23.519598349794173,29.782090149509717,35.868954844507996,31.864246631958096,27.15878482627333,38.85559589804519,55.510914739868184,68.89510388887142,92.90222810225978,124.00409120478385,148.84783016204156,176.85567179143337,209.6143189909068,227.1659755868642,229.41029511386049,229.40932946976253,220.33462324511083,199.71584860094225,182.506632461657,166.80671540429398,141.76109741237934,117.74952130753917,98.02624169693789,65.16734467470921,23.754830788292306,-5.866710898844131,-26.633005745003835,-45.91876781175266,-62.12442145215516,-88.98885486159641,-135.8546613102551,-179.6594267942043,-202.69294314813544,-216.1555395517131,-224.31872823888722,-222.12033543484873,-222.52814140858732,-232.81267359478596,-239.6010400873962,-245.01469726682632,-258.75092178727783,-263.7106125190432,-246.69442895717413,-223.4389498669014,-203.6024131864067,-186.49789681839187,-183.73842123101647,-193.51185459427728,-192.58928870224702,-180.8727126622848,-174.05251352143517,-164.71323102455221,-147.20927996801345,-133.25581804080488,-118.6411713685759,-96.96778865127021,-85.06692235687908,-87.01865767912223,-86.00777173428955,-82.14407077035818,-78.9228969381853,-59.88764857987343,-24.766762789194125,0.4011160413228074,6.592487047367122,0.6706616019843068,-18.133515743583693,-33.84797669185435,-19.443322881135323,13.209934166215623,33.93873956847945,40.91936967294002,36.76775003701056,19.318160961346024,11.52904158189866,31.391843958909185,56.52947445607513,66.98598736930268,69.97435774941242,65.84882789906035,53.105647997402045,51.20961124119389,65.25190756120635,74.62158263278747,78.36061439171256,87.45390667595461,90.46901021324128,81.41116539073514,74.27047757985714,69.22186242038539,61.96439817725141,67.19876458314226,85.65549019650015,95.80755809477724,95.57759061910102,94.77101251559448,86.89953769728439,76.21962822544305,81.60196984407878,94.44502791359079,95.40574652358941,92.805336772702,93.29518479614558,87.32219278128738,83.26082692088522,91.16189192699873,93.21997358450696,80.78979855957986,70.1534530144122,64.58583921766386,59.2478074074716,63.85152047654982,75.83221457533341,77.12893627784865,70.97658328077735,68.37548796905301,62.30884997707753,55.50033699909618,62.19178598164208,72.3572422067743,70.8108481023913,66.32200000398555,61.96274907904929,49.47344411390736,42.43041542403988,52.47102654918232,59.848198708494195,54.79014224870389,50.51851614996236,44.442311444193365,32.332901653148205,32.44406707414133,46.424419439274246,51.63844417204511,46.46798758868495,40.56117813688371,26.560318824697355,9.279812090206885,8.766769334330597,19.56313659226485,25.945075558923552,33.787264455388865,41.59820136626308,32.90849173336895,16.583141614019034,12.786989259282905,16.274262533656408,21.123624361697154,31.514397578824603,32.88628342717123,13.936006027500186,-4.704825170934571,-9.462523972324215,-11.32754707204913,-9.129273822188514,3.2999799999683885,10.427376242938008,6.123127161254577,4.329756451430231,0.2793341685116334,-14.558976942427448,-21.737369829784548,-13.948756235921705,-8.878459073806932,-7.082443669425554,-1.8826318713523427,-6.881002235654548,-22.13842850585704,-27.635657627164335,-26.28803963421212,-30.199867088608972,-29.396540614282287,-23.67842449512185,-29.68540109909239,-38.71909661977326,-33.70752741320477,-25.480802541956887,-22.00602836685904,-16.62797205262169,-19.798974441391177,-36.66748878957197,-43.297025612563885,-33.41702385283915,-27.797321199645413,-28.004984496190378,-25.91628063871567-29.027427794833272,-34.430302906315,-31.022073081804557,-32.03762018116062,-46.86341514548336,-52.80064179105044,-39.66666239023975,-26.40257796253014,-20.276975763166735,-19.1535451988503,-30.25900778342603,-43.74289267504845,-38.496337076806924,-25.23061825593912,-24.64826318976091,-28.92399829782221,-29.031382819430206,-29.226023087639685,-23.50227247467981,-11.199755945931726,-11.933533603748,-28.550266936408505,-42.39782040367203,-50.81387925249822,-56.994761019123175,-50.89160543409117,-36.96081696376087,-32.841763725973074,-34.277671934618105,-31.1758636691317,-32.36460931213869,-37.56948306022987,-34.13932958208684,-30.64273760873101,-36.618343592564464,-36.234433220037026,-26.06981016586228,-23.17162600798991,-25.341833077051508,-25.5810778065565,-34.22272153382021,-43.96337900970548,-34.800161259359214,-19.207633662220125,-17.33864162126664,-22.022346041813453,-29.29367863342017,-41.570263720540325,-38.83808259494481,-11.954103552768181,11.209699925159327,14.076581529232925,6.63377681779321,-10.10678073981358,-31.829780110061684,-35.36509856009404,-19.71450658118505,-7.829731622109074,-0.8028148010402874,7.540212524485026,3.598507272136451,-10.552402631303822,-13.60139345997948,-9.291876380866135,-10.856956110545156,-10.54121234765038,-10.111495883854307,-22.65644951343704,-34.210249879088764,-28.913096131176445,-21.923136621367718,-20.849115891463754,-14.02035734051295,-7.572429015402628,-9.38011457784864,-4.854958115053062,7.186115860910981,9.140828565599838,4.0741337622749505,2.026770490364256,-5.501298151360086,-13.914085044396849,-4.393071077382216,12.371874737634881,14.698957089325326,7.704469691618564,-1.7187292577522875,-14.825302191934652,-16.73384692839634,-1.76662798569593,5.223291979285416,-3.877250191223971,-8.525027389555472,-4.878967327522204,-0.1863395695396317,10.798031763166241,21.476532485906986,17.853061699623378,11.805803122218489,14.614637292731965,12.256823735228785,3.811619507111217,4.789890727911084,9.016618397170722,7.020586961200154,9.260148394669072,13.699003314634677,7.504092509903393,1.457727733495874,3.8798243077379198,-1.563212879677982,-13.964263172719175,-14.439899539571009,-9.567070060203825,-11.416503440573232,-9.992863088186144,-5.505266874163997,-9.463390487675799,-10.469884058591195,2.392925559658769,13.35282449231233,16.500785469037744,22.23420470506221,22.121684902487758,10.101361932283522,4.7275060484386255,9.080137559761303,9.140770464287243,11.715835873627135,22.120323580897292,24.018989726952178,17.630136134896517,17.230383010920455,15.118277877754167,6.087625082270207,6.020900492058474,12.024636424764832,7.029137059065688,0.5859103661773686,4.010488498678596,5.684171920817347,6.249691250896679,16.842123540346194,25.492877536565583,23.2448400093784,24.251882266572302,26.2190704609662,14.095921686102447,1.513914640806263,4.986138682177845,13.269039152291384,20.731736922690445,32.00911311398202,32.47139187282318,14.671688716133653,-0.1567504302136853,-4.147660803413985,-7.677523196142989,-3.759846781439614,11.154892970203278,16.938531598043912,8.20865168610388,-0.6853103521255781,-8.726406835233616,-14.522377416039802,-4.817994476630923,12.005933710712974,15.264460234697061,12.29205131654818,15.867811945688295,17.27292399852338,16.267555279708372,22.862967593556792,27.56903096740585,23.96543495826247,26.404045824358096,31.7377058125279,22.02654094520493,5.909639320638641,-1.1893278214767038,-5.389656831709987,-5.574398408773369,7.756120451453746,19.393149229365108,15.084486684012386,8.87045275728919,5.403933912736768,-5.040879732128504,-11.249654268320144,-2.5202801861114223,8.157410305813302,18.00883756984241,34.01295327354774,40.712020858706204,28.75185008567345,18.731894661935875,19.67088021155737,23.671335435063376,38.233063000633855,62.51271564016123,76.56910836304215,86.93368341234034,114.85960367247384,151.98333963719264,184.29078413381765,212.1955722538242,224.43583057958298,212.55360683256941,199.8477171259447,202.52477224056454,200.9829313110138,182.01539312794364,153.59451665598627,116.34823849609978,76.71598042924518,54.96667038997151,41.617805316289925,6.677675355946081,-43.295354868858624,-83.24781759163477,-111.18850330552152,-128.21104109490688,-134.35925212093088,-149.38576961704837,-179.94810965007335,-199.43513276535933,-198.15538174641205,-195.33429990437423,-195.6234286707919,-195.4195622148351,-203.54761765562546,-214.39251410851696,-212.41692034212087,-206.45336136848385,-204.7594594982729,-192.56694558328832,-171.08806109945695,-159.53293335110106,-155.0724712291256,-147.21763975191402,-140.8552200674301,-132.78740305894257,-116.47014833392323,-107.4259030816105,-113.4579665232747,-115.42519200267094,-108.42474637384451,-104.59394403520989,-97.30831107315572,-80.88036953947011,-67.34763309754882,-54.092509500980356,-35.63059545191916,-30.93743026622779,-44.09499662395626,-49.593918457059814,-40.79632218167515,-29.3421082049241,-12.021467874576812,5.816429201912947,2.089717033681163,-15.00529444932399,-15.622953697091308,-0.05750048062988089,18.604115443706668,41.37661331360376,53.66512890982994,36.95772832565585,13.057416854879843,10.338228854356652,22.910495919573542,42.464561193912424,67.00790880804108,75.78705230079726,60.580244831670676,47.07941386641032,47.026474992773146,50.161118766621094,59.52865267652473,73.6100921971175,74.72254782146257,68.12016470858596,70.7123838401373,69.84831023394254,54.866733234538444,45.113655759054666,49.72586303311033,60.00836008510338,77.11212925403788,91.67792856685013,79.97345776487877,52.95075264075859,43.910942215628324,53.25005313756927,66.39993616079491,81.35411312434562,85.70484057453466,69.59095412475715,54.878699455982286,58.155943738295356,66.35873277847963,75.56395369211148,90.90942017000907,95.06312005723574,78.78095468169458,62.940731383714606,54.712446887760535,43.97582051720011,39.69156287236716,47.11317702790832,48.98664561530755,46.27258467087435,53.554943312508115,58.356617518485145,48.38934645013336,37.99254688874589,31.805667776698378,22.826362822836764,22.711156261202987,36.41639073645645,43.8047642917047,39.5974556660237,36.97096723163861,33.405026490258514,26.539549765251216,29.641262604367355,37.417649177408634,31.760818550920916,21.423171939420165,19.078769489518404,15.833885294197007,13.487814873688825,22.582454894426203,30.976655106384104,29.560365434742323,29.6891773921775,26.932685256456388,9.1024387516951,-6.898227027294974,-5.543294737725226,1.5692794456950085,10.604639199010565,23.41721470739545,23.691327616896665,9.992103477126673,3.9384254745194944,4.388632240187794,-3.5068784131478075,-10.312275515922089,-7.536405983137612,-6.372917581401168,-5.4067034844453445,2.461667194296831,1.7485667779924718,-14.760537647264265,-27.5026646841389,-29.960492782301372,-31.137050976718932,-24.447744563515265,-8.512713615303154,-1.8319408929605534,-3.9800124337388896,1.1851769763404962,6.570636367116249,1.4345536898757834,-6.498237050370174,-17.75381837119102,-35.6265927678923,-42.506856625995034,-32.41855382385504,-26.85129236827346,-30.841279591409172,-30.037826674795983,-25.14596306070749,-18.500911374756136,-4.744448044226444,1.8742758902813539,-13.470170495913397,-32.19015922805245,-35.45325591673597,-30.018537926964736,-19.570817027194387,-5.014081180212107,-2.998512867753196,-15.689075011883714,-21.29007310947421,-18.33580084528702,-21.25833931991651,-24.82258151617513,-26.37269129716679,-35.14555403969073,-38.37354403017472,-22.957924644489744,-9.074607916027889,-10.306665740963833,-14.139550488073656,-19.440454756577964,-29.96109479193901,-30.44915050741383,-19.400997102638975-18.212307956267637,-26.217206977661125,-28.292595054067295,-32.16280078691952,-40.981533026891356,-37.71978943771903,-26.087716153951582,-22.73307445853632,-20.725031690248784,-15.256708125040689,-18.503890282398466,-24.170069059245215,-19.46776172622023,-16.634748936083156,-21.23654260131378,-19.028466168132983,-14.584663124012785,-21.591477874443495,-29.22034460885439,-27.317091882019767,-23.98674485195793,-16.623358245664885,-1.3511303692135783,1.2066536076623076,-17.378629496773634,-34.54262210679338,-40.70275261542121,-41.011923482776396,-28.44663786985869,-8.819236221270698,-4.228200813886477,-11.048722615099306,-13.604098639157424,-18.223641198265423,-25.523887970677787,-20.074748235557436,-8.57524604996112,-6.809933117169769,-5.548925009505675,-1.666172442044104,-10.230604801707255,-21.44548506863341,-15.267012344058658,-3.6389181083164437,0.4944384583711364,5.648553647224055,6.1504113623210355,-9.157469453961935,-22.87016488800004,-20.91886335369692,-16.12385940568462,-12.697127521727252,-6.7326223926538615,-11.486214637136563,-27.97241908747082,-33.48471595809809,-26.32711083877286,-22.31421719771548,-18.255657176546418,-11.318333851807889,-10.023994075156253,-4.878650900616757,12.491180872565991,21.716713575082714,14.193653663627549,8.475025977363874,8.011743254559345,5.204744117893963,7.83809899097083,13.867490828540939,6.11184960531393,-8.422953564699446,-10.990726333099566,-9.338103080597215,-11.555763070115578,-6.797872982853067,-0.9327848586842795,-7.497996355388041,-12.655272663824208,-6.699158272927464,-3.590807745818456,-2.0039575191347416,8.245353821692314,14.141970091242518,10.067631857391797,12.464813587492005,19.44013194183487,18.96117485554163,19.8605018812372,22.94269957332412,14.194685094076059,5.114263703755529,12.681204299717173,21.923168684299558,20.541127618439,17.211953347893644,8.858432692373503,-8.003365857228193,-14.415848533870367,-6.2717969813037975,-4.274978604268352,-7.119806843471901,-0.2209916897711679,6.145477285361974,4.895895140503232,8.15004472977395,11.619683609934743,6.811290083299901,8.712557334228345,20.490128433493442,24.208572203574516,23.669416413551012,31.111796122596935,34.21027371332906,27.562434312597965,24.438574088727037,20.797270025711956,9.617973314375192,5.319165186215684,7.747015887929375,0.6459018051848586,-5.455624931112242,3.8573796597307854,13.633317401429135,15.402790195660495,17.9287508980189,13.816386524137704,-1.5967929932092915,-8.720697072261242,-5.4848593477202305,-9.291225910469114,-10.259270780158895,6.346743618206576,22.92739789669204,27.410832760186295,29.085803838806903,22.53463503878755,4.780320739844005,-0.4445310054737386,11.417303996686133,16.393934415642562,13.306088856898715,14.07849905733515,8.681512148294814,-4.359721121001067,-7.2891349058629125,-5.144812886769174,-11.560991432436184,-12.978065049256365,-3.1873810475833455,0.7965799215721681,-0.6777688066923295,1.5586256357113397,-3.2793088581180396,-15.067417020589657,-13.765676241937829,-1.7942661179952943,5.577131403452553,15.040840916388872,29.105886520995238,33.549662441237984,32.67252805077936,36.65666060828509,32.87550487710205,18.399600181797553,10.324726062506153,6.04516206568456,-5.6853427299207056,-12.296881962117375,-6.065003629178231,0.5820653760186103,8.192138447803467,19.88077687291146,16.954078711454216,-3.317096555030963,-15.65991359245184,-14.428890205547816,-9.632873422535182,4.309051893863935,22.242524959660116,24.712931876985873,19.00390954259242,19.691199974585636,14.670215015371397,1.0000343818032027,-2.903140686587092,0.7343258224465021,0.5497493368969524,5.965207062516722,14.744617325556991,8.221242616772408,-6.250501743226878,-13.125583877035542,-19.61788303866295,-24.42927968891981,-13.95501964974407,0.35581763217680384,1.2501621109551366,-2.9892464296625367,-7.179597136532708,-16.785545352916326,-18.03628614169252,-0.9707730283305924,14.094161395189976,15.504787009857026,13.033880709808955,3.3092280666713236,-17.198651604319057,-28.618878415217488,-23.407996375953488,-16.615399628396187,-6.752937828816694,12.328616979591498,22.91626466583496,16.095926288244087,6.52720145041692,-2.555471326451151,-13.605968246784135,-11.929014193330254,3.480513793217181,11.733934918797976,11.864125569743933,14.014369052077988,9.336852859634662,-3.1360687583475486,-9.327649731239283,-13.163494455346386,-20.171703040352867,-15.785680712792079,-0.5712735519078693,7.145812124552288,11.402777169473495,22.786489548326063,32.64869069801206,44.60029431731235,75.14107475708246,115.9663793575087,154.57613329096517,198.65739263373257,240.88033852129848,258.3566576246967,252.89601212513577,234.02354688734192,197.2022938482516,156.67090960636676,133.87973133093814,112.62164482941475,75.4385189881939,39.858941547106845,13.269588692126623,-15.207477441865173,-39.46707319561416,-61.61652475234604,-102.29711107665834,-147.78765695041125,-163.0912120048423,-156.8694375547912,-158.9502247355534,-170.04904366924947,-185.19709279614804,-205.70788654250092,-213.20588970185867,-197.59183080941875,-183.24996685491658,-181.3250305915699,-176.16435835626402,-169.52519522715437,-171.63676640019466,-173.15384951108996,-171.89759008333618,-177.08284774619483,-176.05442218249323,-156.59577804926374,-135.16574234225843,-120.05496555136702,-103.73504819065205,-97.11710005283288,-106.81088680645087,-111.30750627349929,-102.09781314999108,-91.66494617520966,-76.78087521062952,-53.927060827051974,-40.690770257949595,-40.08577716781106,-36.00061531844104,-30.74333171060023,-29.304187182082806,-18.14072826924088,-0.5096668743713515,3.6002245901092413,-0.3140348909373889,2.3688738743439988,5.686548003648024,8.966836663036325,18.782108985527614,20.894962289417933,8.630423905753972,4.783903580941888,16.98843901127713,30.62615288310798,46.49805284766874,64.69464330414382,67.34732803936134,56.02285296051257,49.843382775592005,46.839607269380295,44.28093684159951,57.26023863404963,77.99126654328565,80.16359794939339,68.63622810319505,60.850941603216775,53.43308989531693,50.42573816723596,62.990899749313016,74.77993859653756,70.52204982576967,65.80191696348108,68.49613331985172,68.6474200082531,71.26465550977451,78.94143872683152,72.65660014599798,51.653447589270144,39.329200524551915,40.3658832703626,47.2155217140444,62.22386719997586,73.32644410661692,60.57152283614782,37.976069339768074,30.636416813693256,35.21063056877974,45.86727000165151,65.42828683015117,77.7344972838973,70.14473823214857,59.05378660283418,51.953884767271376,41.467111741187935,40.126393234180625,56.38923964649607,69.98906040449243,71.24955309172267,68.64410353443607,56.62177323462987,34.838064020909194,24.260837600169772,25.69359093584403,20.65329073198177,14.90407529169353,19.13945020696239,21.86501095021167,21.840320248666693,29.061655238313755,32.4837481813243,24.438562787283104,20.414154475818005,22.406111766379748,19.735707672010378,21.948107866993787,36.05484303814812,45.17885287325905,42.994815673112726,39.487272322807236,30.908614343833634,16.900562295103754,16.457625027363644,27.5773236235232,27.227870681211925,17.63601735373277,10.809623197588891,0.9388226468426044,-6.2909564392403015,2.2006074532203845,10.639647680567546,3.8578624887676365,-4.817392385330398,-11.896007213419638,-26.657798331542725,-35.516235925755595,-25.009451088140835,-7.510876081526858,10.676419702611598,31.90086565144762,38.16890684633214,18.774233138384865,-3.469213636910885,-13.138501995333224,-16.28139490909166,-9.062329373021077,8.328708944755517,14.955844328597172,6.427569352895131,-1.4608780496206335,-9.901219216642088,-22.2346499629584,-24.97440220487723,-21.454948430370887-27.924332235525515,-35.18286344664336,-31.520397834468803,-27.155514921894305,-22.363571207070734,-8.968954335273214,-1.6954461677884778,-11.93062051119458,-23.72401780151,-30.88798219635273,-41.63782468642673,-43.36094998938299,-26.27234469998716,-11.564998872043198,-9.940345276591346,-9.43555567539325,-13.515720592592022,-26.016082173917948,-29.289626802186305,-21.977306681506533,-20.280828758812206,-18.05696753638607,-7.27197170992039,-3.248152679869044,-9.590944539825161,-13.312269368040946,-18.850502790420254,-30.587007336044035,-33.29706751132836,-27.413492948807686,-28.198535349081972,-28.392004503418924,-20.366337607928422,-19.7317448690697,-27.737843450732687,-28.10066802387084,-25.659827673551998,-28.98143135311292,-26.580818236134725,-20.35549267341677,-24.963964937857035,-29.22711375098917,-20.680078513203377,-14.520452461565664,-15.84639197482414,-12.734083212766745,-11.834898490663171,-20.296217196853657,-24.872182442904187,-25.170737417419687,-32.160505861479706,-34.59682246365142,-23.813734858098357,-17.06123509110796,-19.466438529156523,-18.922132457781153,-19.817206697768288,-25.440397088560434,-23.473978138012086,-20.238083205957658,-29.71543330777791,-36.83518586758864,-29.402065909893153,-23.026653876158782,-21.898649541480722,-16.201542654404314,-14.387923096876797,-20.673546139994556,-18.958140913152317,-11.830989204022183,-14.008099372574435,-12.689510356582531,2.230623243293299,12.147313470266177,10.827107457706123,8.154285895648536,-0.8201832745067068,-13.870653988662315,-11.477781886668275,1.3732562303373834,2.3321704975858544,-4.5856112586082665,-7.312523303164804,-10.92074586597223,-11.677113899113793,-1.8167455235759489,1.4889614923798073,-11.365604800639348,-18.80096009807934,-13.547014711145804,-9.39001148737592,-2.674873272496938,8.950189713069157,8.808831039997788,0.7400902471086086,2.1200621832147437,1.706417030404034,-9.992732922499364,-13.625240536818374,-6.340740031384142,-4.6386297316437775,-2.29434625164697,6.5308256117177095,5.85079715404116,-1.4655408302699997,1.3865554845414203,4.479669880118951,-2.0587463546572544,-4.287277380479518,-1.7476756701441707,-6.724636112909225,-11.439764161946394,-9.580739238788514,-11.846742514296775,-13.704774572404668,-2.4009558991524855,9.949409100248273,10.861492560327964,10.412030994402134,9.916995760031785,1.5384582194807508,-2.4610913926435742,5.175752627083565,8.010373744474638,5.085236114495718,9.908549444054207,13.926802135733459,9.41147130628677,9.454531834241736,11.795111193597284,3.0303998783966852,-4.968183087277873,-0.8184601621510641,2.900769544187178,4.726104479758183,12.486660332925583,12.203475711949304,-1.8149175597923435,-8.333277640197132,-3.7833357911581578,-2.333663725214386,1.993176420287002,13.433870821570176,16.814287086105384,14.179160790162015,18.832774474489753,19.603670763282352,7.502681732257281,-1.5194129189653953,-3.6859250201037104,-9.448064393164453,-9.841225474289446,2.192405755601621,11.97435437109022,16.793231208319327,24.229750193122584,23.340409490389206,10.638020325531015,5.17344755384453,9.992080801423333,13.418366732598495,18.780909260863318,25.293949368292708,20.177700739382857,10.95701550367107,11.860340381146417,11.04279162939594,0.5423343534358702,-3.3934283176059004,1.4111669127629616,2.961194396010204,7.487957704025681,16.113308800648593,11.561360949551712,-0.44299621619446095,0.7990108645881442,8.878671463906906,13.250196599023203,20.722551346530746,24.1271298045638,11.54757114645982,-0.8705383488578389,-0.04882757394885173,2.5790657437697595,6.555853817225154,18.135697161429494,21.46419994460821,9.372023156033487,-0.21042476908662167,-5.346446887012892,-14.982721951592145,-14.795963550448295,0.7915017983394756,9.674782609691569,9.225653666217855,13.852033583682262,15.025863528806056,8.513580708697308,11.071327724851383,17.68565074376643,12.943432209960124,11.05248832863776,22.111772215279018,30.866514622614993,39.67992296703777,63.9770911596661,94.85315521409073,124.50749298070335,162.5298763013823,198.59498463176283,214.52098627382063,223.38624803832965,238.06180631662474,244.2110177373672,234.29005813425377,211.83299238331463,171.72805664960225,124.60852505461389,98.83060098707067,92.93592310715299,79.1991640941227,47.35912982933651,0.8845753555525686,-53.87573184671617,-92.18251999007632,-95.42337487463678,-86.25164763040256,-92.47085216241061,-113.09441504873047,-145.18349171525594,-184.3895397031028,-207.6622320347593,-207.94463171418454,-207.25484882440074,-213.46843909452895,-216.4377614745209,-218.96895685559926,-223.41116187642922,-217.09307432040038,-202.176886730266,-194.30780773216878,-189.8121010914761,-183.66843987731366,-185.1749600114878,-185.01692460424687,-165.11876348637267,-136.42795042267372,-115.60670420683614,-103.47483933194142,-107.47010169811982,-127.07795729461306,-131.98247887506238,-108.03506247310331,-78.50647118541437,-57.14106528569261,-44.12282761956789,-49.746669145071834,-66.39776571552301,-65.89396785179105,-48.79351164780709,-36.361088195503015,-26.34212644934254,-12.640533707674896,-6.986352774341896,-6.542627320506669,1.7252963891052295,7.169396151312899,3.042735987129029,7.761229033792921,22.86203336070185,31.888826419603667,38.31664137411609,44.793660289616575,39.20139711921875,31.162607139385546,37.16821753353034,45.200728431624526,47.26193681698003,54.00876477639298,62.03331185192744,68.52599987823251,85.82091406679977,105.45888049421254,109.32941693831171,105.07357255074447,100.10244152737681,90.43825545646138,85.39815983319141,88.29779349832766,85.30324947228578,81.16443023530141,89.48984957781707,98.68214060065553,99.1738245555297,100.63238287907988,97.00671215275378,77.4941901601727,61.3335825025705,62.12073550615503,65.88051080960011,73.04088751209608,90.46982189321182,97.55524558848771,84.20453287589815,71.90541443937288,67.18439978335441,59.53562775281101,56.193362686888875,60.77852765059259,58.09810151058337,51.59826226060688,56.530865439206366,61.81176545666644,55.29772354962455,46.776460198788456,36.616996552942425,20.632118915335827,16.645667804363967,31.347123717079278,43.690167144722146,47.60297152186459,49.994434306138174,41.19568252524065,21.844362249980605,11.71008107442707,10.100428524565547,5.247175988357941,4.546471844458796,9.354751291292501,6.1185308139216685,1.40699311525198,9.479397870980682,19.723134069255206,21.164336547514523,16.951383356784337,1.1576794356163513,-24.74045060403098,-32.932749916158954,-12.539142239014769,7.96621602664695,2.2616184973497067,-31.49569255892486,-78.89305200734334,-107.15076305291605,-91.38938778010208,-53.66157958870343,-32.24748823244973,-35.67118586496417,-51.96416670544103,-61.12711773115627,-48.7030289486313,-31.815726985931732,-32.33620377980791,-38.843784975895005,-38.25505816076021,-36.756180949084246,-31.15339223726619,-17.79836375779916,-12.084598810755526,-16.59813555378446,-16.197187074105987,-15.665055763625933,-23.74627060347327,-25.041256713570863,-16.004140686444643,-14.496249814352584,-16.832513455895704,-10.163987173390758,-6.135485686611517,-9.974063889992243,-8.077417140916094,-6.057881665369799,-13.500304156663645,-13.351944907624524,-0.7350110716979543,5.344574868007349,7.560500961314961,16.96328126972461,18.918535289724396,8.61273140074478,5.26455648285093,8.310915423018006,4.109798592667528,-0.24109499961581005,-1.5361909106288592,-10.631072995632211,-17.76475637584185,-8.40586266599217,3.477522161329082,6.697195150500165,10.066441128101507,9.700261121064447,-1.4248322480083209,-7.6474167673133895,-2.252032823767422,0.4366566620345935,1.4751981431170162,6.838591331481691,2.3287111772501254,-11.801642833801118-13.253031806063076,-3.2168654771602667,2.3526258399447446,7.5688250254329015,12.135682622683904,1.9376672742887346,-12.471873416925202,-10.431984241688502,-0.9579003206333172,4.916387811986173,13.620381601505212,17.317024365611633,7.058940643666366,2.1879612877151926,12.838147669872047,20.843188114882643,21.42969780545419,21.74647055327008,12.936516812213409,-0.7296234022428036,3.2971984026147543,16.803875672934428,17.81223018126078,14.335748320009078,11.539654343758318,-2.3533879797063983,-14.755473927463587,-7.45488051195686,4.4476431518405946,8.626744304420486,14.466394580228032,14.481177869303133,-2.210597084913342,-15.797175812168124,-12.721090831981643,-5.8554614405603,3.621819750821308,18.121494083395405,18.06425824092015,-0.011901692138209796,-13.26998404438723,-18.688754374249505,-23.65104444458671,-18.116010962722772,-5.865673812207868,-6.120543918249058,-12.079181885688659,-9.65942743186821,-9.97548463772937,-18.10960198130598,-21.63396412442395,-24.653777262241768,-35.460833545350596,-39.261763415029236,-28.988080906099487,-18.50631944455638,-8.091087946796996,6.536825478713636,9.723676906570786,-2.528396530445278,-12.87254415847781,-19.79722123831245,-28.15801211024401,-24.172441259273477,-6.515255781433942,5.16936105323773,9.562158748806024,13.573025917581251,5.063515088685558,-14.627416315088603,-21.50471660796774,-15.186072923524456,-12.278760379548308,-7.838288068099987,0.7151108595215447,-0.13641465916591544,-3.0519579652399926,5.514373530589586,10.178019071094496,0.4900545283566555,-9.957562419493192,-18.38653569069499,-27.168254290078814,-22.576911439731624,-6.355431005775273,-1.262807541002244,-7.418996860545198,-10.611404460937486,-14.481449673762036,-17.911352708837406,-9.40126922945266,0.21760694987022822,-2.549996680129189,-4.3489293020149455,-0.4637690166328492,-5.42217787378385,-11.956422133610937,-5.605504254608894,1.202749337337891,0.7063255080278193,2.6233542726591255,0.7514705220929768,-10.903729042695588,-13.893861187553114,-4.720027817757132,-4.740755759874458,-13.548015470324387,-16.06104892784037,-17.23708297299116,-18.426225361178616,-8.783458767569412,1.1540988352299753,-1.3513032676623151,-1.478134486726582,6.193097876291068,6.234614351115496,2.201475726279228,4.161833246445097,1.7594388613074667,-3.6592070410123547,3.9487294046568717,14.04309040076674,9.81611574259159,2.8574599009296153,0.19737611551768852,-6.551679496052973,-6.925263817387264,7.835053360220886,17.4357328877166,13.547272856641523,11.041656964002636,7.444328936024995,-4.340234991415394,-9.67289718252303,-5.194926935506495,-5.593481138578687,-5.6442701845609236,3.2022215244711596,5.094354972461163,-3.8936824701578554,-7.305039260365827,-8.711858530508707,-16.644116607038207,-17.58164433645768,-10.604251060226618,-10.581246676369329,-8.449644436846764,5.983659622817755,14.73321529549649,10.20246389826466,4.927861697337297,-3.613689627899829,-17.49921014920063,-18.018541636402503,-3.910414187864463,3.3919979312150614,3.326767114758402,5.342884609063786,0.6802667024951448,-9.266343114077479,-8.222126904378044,-1.3741203736774752,-0.424813649767559,3.3869827374030814,11.742873763168491,12.38966836619303,10.26795220082626,13.489925000294043,11.416315735122485,3.923556182158409,4.3320105466602215,6.731766629690263,2.1465964403551565,1.393700778085115,6.901320654726663,9.014645794110237,16.049220367717773,36.182166333038374,56.246577334827236,73.80256533852517,100.90956161415777,130.19637959808054,152.39232627821235,181.620465544351,220.32264318867914,250.53873492619667,269.0110829926483,274.98199214113055,256.1971927333886,222.61909782008252,198.47353115380523,180.69001751662822,158.12601364895977,138.22799494514928,120.57187244393967,95.35294109528397,70.93837747972466,52.4897250488367,24.73519702982616,-10.665398690274298,-35.34155510685847,-54.72651085091663,-78.34586233442897,-93.7495198627746,-104.42527368265704,-128.63554711118908,-154.30770506488554,-166.84327155032867,-181.0285875645111,-200.1714049601529,-212.25605041964627,-225.76231293855489,-244.80298548913834,-248.9478745757056,-238.21849434757462,-236.6623629175121,-243.27053074520902,-245.0389615113076,-248.32995565927888,-249.33942588357652,-235.55312767453947,-224.17697902903055,-229.59151838500821,-230.6738198867343,-217.6916246914333,-204.7672007195918,-189.90243449368347,-170.43268186915822,-163.89961589072652,-167.94024704847854,-157.93023268236178,-136.75460855916754,-122.50218160279168,-109.99905039972191,-96.34949788178821,-91.38327164313338,-83.62221927216206,-61.75983784591851,-45.174149017582465,-42.80471485598876,-39.8820160496788,-36.8110272600832,-36.94772039595482,-26.397038431269284,-8.82673413050684,-2.6814098319560697,0.7306831019254767,14.416818892081022,26.424861762526227,34.569343756085104,49.9526524529509,61.80432143254031,59.09811616083684,56.14356388426529,59.509861876994854,61.276312745534334,69.7266824124762,90.89030920499158,104.6880787092457,100.72043318708948,92.2608198765626,84.64798686657264,79.91131269405193,89.09830464347152,105.19464945301849,108.67781170658972,105.15378593245545,106.9507052507004,104.87145591667426,98.4087588085446,100.30606366551012,102.2505388192122,97.96877234685674,104.30341495993336,118.00733227038992,119.23270528508014,115.78035207700022,116.91965240761395,108.2175852183914,93.08766107572166,91.98652998979806,98.34305959413834,99.48240486739614,103.59403379906257,106.88262544548122,96.48864560304706,86.72979859088314,91.08921082302406,95.29620006521233,95.42891748717696,101.98582619920361,104.78169170620762,95.38975998428862,89.20179122194617,87.0702747259883,76.09600077392128,68.7197040200489,76.76723066184547,83.25653907107512,81.28194966374066,80.91639746329908,74.54188795214921,57.71508825288099,51.279069315030625,59.297987719377005,62.41852970767816,62.84981036417924,70.52580235186007,72.73640420609135,65.99318478980302,61.877604935664515,53.04832758472852,35.195118775517074,29.205455676084426,39.08904314488805,45.294074148112976,45.63738620758491,44.38244146273285,32.25680769999061,15.009883208810926,9.291086044660354,8.386887756155165,4.953110422572601,12.107456572002617,25.565403870741413,24.692524758891686,15.734024049096254,12.303069866785446,8.40204229869779,9.476714583179763,24.036270071062454,28.16076357130798,7.509306421967552,-11.968728637495017,-16.089234501487127,-14.828932927677494,-5.012470312940182,11.465935856609672,11.993818708705415,-3.1228837826547613,-12.242137766732146,-17.989804875593435,-29.03650095125233,-32.27150740730394,-26.630727728284672,-27.36121129723517,-29.051132937054895,-23.73367963786317,-23.478758566641705,-27.152469224268696,-21.210272731693962,-15.496861967182838,-21.745761995461475,-28.111062772348134,-31.45023688112594,-40.2368626791878,-43.91009717358247,-37.511462371507584,-38.84179425563751,-45.74959940727615,-39.20624293754571,-26.578205465755566,-22.270229915469187,-22.09635096101414,-29.91513877532329,-51.62767642588912,-64.64512594385671,-52.87216991717017,-35.99953565937847,-26.188121656716824,-16.837600056723446,-16.52470501806177,-30.25470107905432,-39.551238609935936,-41.320010986803595,-49.48714367522411,-55.71973362051225,-50.674906639843094,-49.1141508611491,-53.17441956684252,-49.033563392920456,-42.31577431848484,-40.61079163209284,-34.24723065256294,-26.394084765530607,-29.456263828538123,-32.96607981924895,-26.69874030131875,-22.10783429098931,-19.804293145767637,-10.62295945336692,-7.014170191616098,-19.031227778325214,-33.58010094662801,-47.69926003426451,-65.70246251553834,-69.25063497580035,-50.262957524016244,-33.85390739644012,-31.812686147483237-34.42885267740782,-45.265072632896796,-62.551623948563986,-65.15713158820945,-53.07321068322968,-44.25597159982443,-35.11591184124526,-20.67884389705889,-16.591916157601805,-24.190264327996196,-28.443848427381397,-31.860195776285323,-36.190153224158394,-27.97963091113582,-14.683452202820668,-15.732706809638268,-23.405634460123323,-26.455660179277633,-32.061606733347084,-35.91067606247139,-26.914082258032746,-18.64609089693496,-23.341068661489448,-28.283788886457874,-31.196050828285305,-41.7125752019088,-46.52076965331617,-33.42021624746179,-17.749308705522022,-7.7974463795824605,2.029449038204846,2.0244774673605868,-12.135040643598753,-20.131529647035315,-15.887747859449766,-13.271888581381914,-10.50394668668823,-4.197667632885558,-5.871719274055884,-10.324116670599958,-1.8582268717906798,8.128522346701835,3.9786156117699507,-5.595256964549161,-15.575022404767157,-28.49449006817158,-29.00472301778173,-10.370799242236117,5.42714376447756,9.576357377845572,12.888499248420901,9.581275995329255,-4.539804243196087,-11.103934373363947,-6.055037628214791,-2.3927124466978875,3.7405374970922125,13.351859696376474,9.261169721404162,-4.41539607539147,-7.827404868272739,-7.291228815439243,-11.62095321708391,-8.341989299396046,1.1120643555454461,3.9320359163062415,8.962619286699272,19.960991744611352,18.40705533919186,6.706734207516584,4.476989442188191,5.445514663697282,0.05088128177918749,0.3186246156425673,5.540338028472025,3.842298958961372,5.936412272921411,18.15177328857755,22.225143042143213,16.918634479266153,16.263870028989555,13.789774186558633,6.609564237870609,9.529239770893467,18.47343571337117,19.24811695063391,20.538700675466405,27.72749652447886,26.067185268469537,16.91474660721594,13.902906757133133,9.609448572512262,-0.22438524428013729,0.6996731038340132,10.661498067291758,13.205210361832338,14.326267732290818,19.67580895109442,15.12151160250385,3.7459706217663666,2.882792489953083,6.812762192179016,8.176083801522735,17.39918737583103,28.207613401354966,24.003745269783586,15.347492132260864,14.328133760318542,10.313096525472075,4.267317124445857,8.264053280546637,12.132113223615416,7.85448662684866,10.080390332296771,17.094693646759207,12.962080048383068,7.70188004816017,12.844278521754605,15.865324097308443,16.41664318808188,24.39360595263742,25.98275664155291,14.113080457324891,8.83133405942019,13.104700770181648,12.521667122457675,12.36368603633478,17.049826751189773,14.47414455867152,10.495554492105502,19.14427228140523,26.36308433335315,19.915359614513534,13.744506631587388,10.81992371984339,3.4907101658151913,3.963777520510121,15.857638485303308,19.082159563882584,13.552158413024411,14.467308984167676,14.323967635963548,7.862194316484549,8.632918035316463,11.956874942923129,4.953885282520177,1.905723277612037,12.597031260988324,19.913719047354608,19.207279816243123,19.56822590856202,12.425854387828153,-3.9336842088008668,-8.905885207677178,-1.5122900442898435,1.7869751146050579,5.741365413659653,14.842988063864036,13.700671723883607,4.557663583956702,4.646356385917553,7.8315212569155594,6.408601390910004,10.799844613929098,15.459055454833107,6.864239710761313,-1.8928863688633315,-1.0855400288488801,-3.7465717432070123,-5.505095397404184,8.650976196041242,25.108376071611925,30.037164849233626,33.055293802028615,31.22773301083531,15.405056198176712,4.015130179911695,9.659144188093183,16.215232955585922,21.824197108966622,40.45866267166303,63.883673750049276,83.43615889489139,112.73553053953117,149.61379456473577,175.78720148967523,196.38494242699807,217.78991315992278,225.97089022424132,224.16617452046512,226.95137608878,223.42048307775818,207.86798800113314,195.84545321112685,180.68592093302814,144.34447748420638,95.47774726375565,47.67215886151086,5.414772055461368,-17.99275350219676,-20.144390583552962,-30.992432680185793,-68.73054739345982,-109.87112315687108,-135.31551130537423,-150.15666965276094,-156.49042317197558,-164.52193685616538,-192.83784283135336,-227.89694021913738,-241.96885742432028,-240.00528598560618,-236.2181808105366,-228.16829361336886,-223.1976801329011,-231.67984195472667,-239.16542464549462,-235.94061408513488,-234.00540724595777,-231.78018007255636,-220.12169116460677,-211.9109977977093,-212.5441088886721,-204.4710962000508,-190.25026205738385,-185.65955117056473,-179.04474001189655,-161.40886792429453,-147.58277473394034,-134.67051939927376,-111.89632570393101,-96.59646774594414,-96.53315078666311,-91.5529020676058,-80.98163186831798,-78.58437578749755,-73.92072019567237,-60.08990899163079,-52.20482683376922,-46.63566205568376,-29.652371271257934,-15.644053705197564,-15.640419207698155,-16.764402054621005,-19.320759262250615,-28.513449812994658,-24.41802969720588,2.8448707582852677,33.17290534024055,56.89814090993166,74.22550636699395,70.62125192771892,48.55649899877267,35.463381032572464,36.6761378439823,41.85143705159657,57.25785921242515,78.5479581008982,83.5900319862345,74.44808640611652,67.18842074373151,60.244461237772946,57.81563987972318,73.35841073914467,92.53680067304383,92.41658855515311,82.63180976689523,78.73981027045893,78.39743154075921,86.39861168275236,103.97848562121588,106.19748751344356,83.90839991788837,63.65500383429314,59.35718936513587,65.64612336381799,85.61908231055959,109.86993193564743,114.08350541016225,101.63172645058026,91.57890193497406,81.82814935229044,72.42083604109192,77.44432742264661,90.38558349143284,94.68270981916571,95.71617192335873,97.12452591871286,89.6793783169276,81.85112427759685,85.74105879009639,87.29168815477065,76.68510418567865,67.10863227685257,61.98204562405994,56.45084147831169,60.486521717216945,73.92860815067739,77.08671631366914,68.74135001916316,62.224811222771365,55.349362599708314,49.7322634101733,57.83319280915853,68.68905900244715,62.821347558319815,48.54360880513778,36.521550587357666,23.95602330401828,22.088790077028445,38.88036173888284,52.383881206777076,49.17794377612019,41.24843379539996,29.753718832305843,12.437408328270049,5.767446510112296,12.459370368932596,14.752753710359203,14.796240566004805,22.934847807149588,26.58000955155676,20.153958588033902,16.754625337345715,12.372673060677986,0.1980147900067628,-3.202712098091974,5.39476701557955,7.759760453772907,6.257908274480181,10.098474191930407,6.6931965347046924,-4.230633570317734,-3.9277473249489985,2.48945310988057,0.38159102651054533,-0.9271759755400779,1.9053927718679116,-2.818905471453189,-5.9971168484902835,2.750798549953145,5.85455527318355,-3.223050032832728,-7.055451233590615,-5.54467337593522,-8.488265174857016,-8.021024497315828,-5.340487584559634,-15.882842867134853,-29.66693833251072,-26.926345858599724,-16.51871313400877,-8.426338443978972,2.288085172643378,2.933369990401599,-19.055664001915666,-42.437578771047605,-49.120217813252815,-45.52002844426909,-31.06405961976348,-7.610646635693617,2.365911548500132,-8.052241281448408,-23.07584395865505,-39.27541992985872,-55.04224041554563,-53.45366101498682,-34.42404901106191,-20.07905244263805,-18.496703596414832,-26.591515728996384,-46.26411688544033,-63.27894936423219,-55.20287577715571,-32.276833440328865,-20.11144038761372,-22.185723345947896,-36.0195976160345,-57.71205798818732,-63.07356872388614,-39.59847565054113,-13.03510494921265,-4.989028021699876,-11.217776553844757,-30.28476205915189,-56.33518777963707,-64.88875249628406,-52.542900288047484,-41.80347480224109,-34.337687000344495,-23.095759912916144,-21.763550731232954,-31.34357331164039,-32.784383757869875,-27.417289940770456,-25.240980757198507,-18.113339055497747,-8.890216672930492,-14.841195342954153,-28.43598635257213-32.58371563643746,-31.996632053500385,-28.302805934449367,-13.990258916617837,-2.9204522678773537,-9.924495438736681,-21.139751962573545,-27.107521095190783,-35.9298334311958,-40.97135687218926,-34.347687397934266,-30.204271780704918,-32.636096715390345,-28.98390643839975,-24.51691082243314,-28.612511196673374,-29.372314805081572,-23.00365666584733,-22.118325050768362,-21.391107618126146,-10.342383578828855,-1.605434056846572,-2.038850008271978,-2.0027367022184484,-6.953329209270259,-22.472524362155802,-31.270170743238978,-27.462643517875378,-23.954527904739923,-17.413032237254114,-3.101311511753343,2.1079486134677494,-6.320908122144685,-13.453543438834325,-20.172423052755235,-30.114251449493594,-29.094511088967923,-17.021595282823156,-11.12443130647021,-9.086490965324328,-1.2344966039366887,1.966025730674677,-3.1606369704102963,-2.5125828821644474,0.3133481405236853,-6.4808903612063,-12.332343082992029,-11.709019169659298,-15.53183884519536,-16.66426969433858,-4.117945906713489,7.270164301670889,8.602203130329375,9.32079320609,4.306487070611203,-11.726964063399219,-20.750615252185167,-16.17547302179929,-12.036636228794798,-6.876313316993369,5.684930821715978,12.12867316320731,7.82289599606932,6.370074978244634,5.365616473434925,-2.7549725183647418,-3.6605338185850194,7.411081610138244,12.496656102652267,10.266885429244205,10.290911179107027,5.731960789445511,-1.1060206570160314,3.867397418435373,9.564487913112364,0.08544863376082734,-10.98093397861329,-11.446107863341703,-6.789844668877864,6.682637931378652,27.7669250492723,33.82570148107915,21.538389216904854,12.663285749494417,8.89868869357915,3.069197420564409,7.234274583938625,20.664803061107495,25.48955466915237,25.70655202080552,29.593387365203522,24.84868351216486,12.716976197261218,9.377552804387145,8.084022348887778,-0.2908672521512763,-0.8861345608392917,8.619800658194121,10.281023050592594,5.771069966250344,6.004902598519914,4.875173561640341,4.745356679391529,17.243830252687438,27.47684193990844,18.61080173276791,7.816242400657748,8.404971907310332,10.093562130568781,13.950121283180703,23.955323390500272,26.028882535502298,19.920851523299106,21.312366459808096,22.78718569592936,11.474062884553742,1.3877918854926268,2.349734347617797,4.67932355983524,10.576201214336692,22.33935727031589,21.905346187133752,9.17779365440562,6.421874107631595,11.419372045115914,10.285557243322316,9.297143201007302,8.793947389534381,0.7352211491453859,-1.5581149316628369,9.749211584734171,14.680090273390109,8.52063302255161,8.371021763205425,12.174721869285673,11.664317205936776,15.664589806630948,19.786685770467475,10.076537337128517,1.318738149665768,7.737618494423514,12.707435956634408,11.251424472565505,17.27040492411306,22.725502734992663,16.466627311952724,10.921095551739342,8.063788036910905,-2.0686270670073825,-6.39615240356484,5.390554362866683,14.712208804765822,13.353884229646582,12.301367006264506,7.16569532084614,-6.595826126727873,-12.247349724122996,-6.090959496003246,-1.9482405799466034,4.7808459503638305,18.56565644450843,20.517169589198197,8.026132746375245,2.135683335510371,4.27495008297862,5.387059524459162,12.71639498693975,22.513080599815158,18.047218820342742,8.600538582660946,10.06543883688273,10.941775227380035,4.41955017617228,1.6875200285233802,-1.7905010028146424,-12.331066437978603,-14.165095673544243,-5.4782208774844,-3.790990887042679,-4.96790760854993,0.3332265151519054,0.497725836919758,-2.6921959433852143,5.526723535057579,12.321930913096555,3.8883644835380093,-4.384530311835159,-7.120575314559105,-13.242150457895503,-11.314391979134474,4.0581127403729615,10.50004924237774,3.078378716069133,-0.4688781534691158,-1.9974145147091567,-7.483082998898206,-4.878702734489588,3.1963208445549194,1.9862966195453908,-0.09698880961634782,5.889862364006905,6.4529516579891855,1.006210751834292,5.532564968131274,15.792288682874219,23.038257505999244,36.44667531993566,52.97654322116638,62.4413219338841,82.50813131751012,124.96351172970542,167.5866901012843,199.782775702416,229.74925980268353,247.65751438802505,247.46778654483342,245.34187564215884,236.88913544838078,202.66057095435812,158.67000631980088,129.6368063226985,108.97760262596569,93.846784396569,88.37064902593204,67.69694816502545,18.113773199713908,-30.633504972703665,-61.440405659601765,-84.86361579551185,-100.91827881276178,-113.5057990896799,-139.94532913601802,-173.04948495835455,-191.9155340951159,-204.28279209833954,-222.38758759736433,-233.47629484789408,-233.53866053975372,-234.73007193430306,-233.490225187893,-227.03516999866676,-228.53091537286227,-231.5400528686559,-219.15486394472174,-206.8610256424517,-211.34956062233525,-216.61242001537855,-213.5686455235076,-208.3620014863418,-192.0917313551155,-165.55387104115525,-151.64776821035417,-149.49772162320156,-140.21312964596842,-130.29527304333453,-128.79151176664894,-123.34194107401007,-114.84675536530304,-115.37564042897306,-112.00028880958185,-93.54721944691306,-75.61091785477674,-62.60135365288255,-48.20051433624282,-46.281037383076296,-58.69894866639361,-58.96871492529394,-40.717291908248036,-20.240764868659284,-0.61204983321357,13.298766444262773,6.739030636076004,-7.827807852693626,-3.1483619875924864,15.905906466938278,33.24716477299172,50.568406773244185,59.53752108062436,48.05736666292539,35.665578070444255,41.01864548667677,51.63533737501391,62.21853020331346,78.76378284751917,85.41848492338548,72.70169524968875,61.57538216368271,60.83387886676449,60.785044896717494,65.98618929096756,76.37435180278368,75.73186155590591,70.08013379770672,79.14454897155862,93.44648341256965,96.57617291038538,94.75712747770771,89.1250331947384,76.14937002277229,74.05495084996952,90.38517605465034,102.55699918408482,103.38248121122939,103.24203033840996,94.04322172951396,73.86323347932925,65.28627306870865,71.8915210694906,77.5439193447811,84.93725283575087,95.44269002500005,91.44516854760316,75.09413820964596,66.01257716405081,61.54805235533669,56.29273625289542,63.2320566904111,77.91395208732212,80.8257735977885,76.4294613026354,73.60233602042356,65.10032630965561,57.89755069300879,65.8313531650587,75.51260776523401,73.57345286890323,70.1934875381742,65.13186339767228,50.18381281627029,41.209485093615726,50.492113819046004,63.18129577103355,72.21132310782703,81.23795662666313,75.2403930247528,47.639425972382725,25.06510355566312,23.015137937292106,30.89285533188016,46.53770882830252,64.54426424389682,62.784532082393184,43.42452670699804,32.10518816961595,30.549080422823128,29.09826183902873,34.14749129033456,39.66115030667215,28.215866599747397,11.017879929135015,6.9375979970646435,9.939146249517355,18.395651955353298,37.380765361583954,45.50954063745439,26.624970294252485,1.2792016805317372,-15.564878485564554,-26.24648545762076,-19.918278502065917,3.7429168142080576,17.53998341915499,13.245331938633075,4.54083314957736,-10.199253108532636,-26.233905302737497,-21.90529257118436,-4.213056202461406,0.4227203404676876,-7.228767392587591,-16.968104952761376,-30.245323974507954,-35.008761118870225,-19.37311006686135,-4.925692223116789,-9.459118346201326,-16.346618888174028,-16.651072226038835,-20.40225288055747,-24.194468495737116,-25.21933607815434,-34.2718356930233,-42.262086599648676,-30.003961408826694,-11.050148856788866,-6.96722820448143,-12.566070265035242,-22.943461045634077,-37.98529024238716,-39.59355562875946,-22.95598593475393,-11.670750893590935,-12.095175321638756,-14.027679010049201,-24.068863025467124,-41.957753860047056,-49.58752939296958,-50.16433581605986,-57.12303027697537,-57.80673379143322-44.131704477016505,-33.03307894995,-28.361458148159972,-23.097446838902403,-27.825261274629607,-42.12763963251111,-42.78392148729746,-29.91635185092656,-22.810647531025303,-18.407601257607457,-11.396619929083684,-13.641636060157685,-21.28665623599941,-20.09876883492484,-19.889112335103533,-29.24914537644188,-35.02760629227715,-38.00640117672344,-48.17758326568939,-51.52155467338472,-38.95004651800119,-27.595897778031656,-23.112680936798768,-19.611284477623066,-28.62860129530242,-49.94691455266267,-57.45885255994303,-47.031615967720384,-35.700819707216176,-21.919187467797407,-5.9756621866530875,-5.833238331391394,-17.536253585902372,-20.744081982065058,-19.813352831942197,-21.97576731382204,-17.138768460542593,-12.45958503940686,-24.203288058960467,-40.70091668130581,-48.194051148294584,-51.75293654325643,-46.757304773453534,-28.913973403477904,-19.142689330108418,-27.76044025390513,-37.07906416694665,-40.78381645384758,-43.21656663524498,-34.5813211811588,-17.282628801326933,-12.936620957225763,-19.465898970851576,-18.695565781601722,-15.012746125896964,-14.223519253074867,-6.429721857006217,1.2934047066864287,-6.4188717781155455,-18.451699872368696,-23.343187382583576,-29.471282426354353,-32.147162832225526,-19.89567771899362,-7.432668800909835,-8.190825130143685,-11.913473426836262,-17.31070121734546,-29.175013854451517,-31.207632549137777,-15.688050249446908,-1.0542446735851922,6.798788132647294,14.107712955354101,10.321474121799175,-4.802384735078184,-8.805808010624695,-2.2113456015124178,-2.7491524101112828,-3.7567693664691357,1.005406262710859,-1.238119176867324,-4.509961561457837,4.099427262066575,7.668895981368756,-2.621002864649061,-6.33307901605288,-1.7583829175192003,-2.592449007525935,-0.3173206999335796,8.59623457681053,7.968591865889778,1.7281285880724548,4.883734136676461,7.64612430904377,2.8243808806462,4.830597108991788,12.433544012999718,11.99724880125058,11.237807116062601,14.737024901652978,8.276914937325952,-2.4379903038079718,-0.44117341243682784,5.233103430946843,8.075607910253101,19.76871334655325,31.234482311033602,26.4382497098963,18.410987387777695,17.1596537196515,13.297518738487366,13.22304347689463,26.686728704664503,36.4160305846069,31.478444612955812,26.583065519795674,25.949281296116098,23.849098966983107,29.45739641671708,42.63456786035172,44.463452561529934,36.19923793110205,33.21450372200027,29.610317873496527,19.53027790608789,13.889755178329505,10.357625598407498,1.1845664648993246,-0.3567929146161703,9.468746810341585,11.765835366383648,6.376711213435554,6.101308968196286,0.7128904905449056,-23.035252710048976,-57.86048364695785,-90.85147277517918,-112.39154946966717,-112.97887580131577,-89.99816874269547,-61.32696688553,-52.154331867580545,-57.91384300463132,-56.08393117136997,-49.864512135055065,-51.20098349505731,-51.36559070631805,-48.12102603252393,-50.04551495963284,-44.580368706604325,-21.654947623228583,-3.6547671159964725,-4.358101447551429,-9.30631005068879,-14.179642499174946,-20.517641318375286,-12.188501059114346,10.899618611655075,23.93911840360019,25.282673167023653,31.361380859594284,39.32626191862644,48.90958239299561,74.23149628851392,108.38153620233498,136.8931822721712,171.9559335354287,217.853407232951,251.0037290164231,264.27923148406353,268.66300492041495,261.98629728337295,247.92171618860712,240.8727182932475,230.39475880844742,199.66942726631777,163.98562086938787,138.87999785819255,115.37822800210114,90.26043425983994,64.03382416231801,26.09672496338104,-15.036436354032379,-36.75386495264081,-48.470081229230885,-71.43894701238534,-95.88820658372916,-109.60296380591318,-121.00996466716403,-129.42930347699544,-131.0802671176643,-141.9855048966029,-164.36760753535097,-176.39173989356146,-178.5929862709963,-186.66797812167258,-191.39370725534084,-183.96275844968358,-176.4073735236292,-168.84685579043426,-155.20657938463683,-148.4961009175109,-151.3181209793554,-146.1054234569071,-134.31765879226538,-127.81909241508944,-117.3888680421654,-99.65263744390445,-89.84842525907655,-84.58745948082257,-72.75322735484879,-66.9708644890781,-70.89008788303038,-66.07603289286638,-53.99793769260807,-44.67606254548329,-20.500763366271052,26.47472716361535,73.46144752439254,112.36752427208489,142.69607277665,142.74579945659852,114.0312373503074,92.70501906332575,89.00726890437988,87.70320611755828,88.88449978645059,88.91809002001648,74.50528637485874,61.760816548733786,74.6994349832607,98.79858170291843,111.70389611219215,113.19473633424259,100.63051338939907,76.22149490590333,64.89576472227742,74.3974380171074,81.47970043122407,78.13446176060708,73.96384692760634,67.89396024139242,65.39626609132652,78.7616036535745,91.20045212962887,79.30978702564985,55.921849872446856,41.605157421225684,38.230946787015284,50.70114474675595,75.17271978561934,81.6372134353445,59.49317534677232,34.940583422542836,22.535851749443097,19.398555792711363,30.622221912233826,47.51952067146841,46.952344941650885,34.942390663294134,31.259035763430738,30.78075832371888,29.411229737869142,34.042075335637925,30.782919204753053,8.144276168532205,-10.977259839510905,-9.368427987431073,3.2357987536734005,22.59562407665541,42.15519884572732,37.824341773798025,10.304124003260052,-9.449807919370512,-12.96804384043552,-10.776441322052271,-0.38378617844996477,11.49455251567199,6.445154344741109,-6.63934880925603,-8.927267539420699,-7.990448783703327,-10.79259507830711,-10.241432036485566,-14.740020487837986,-31.091900219888906,-39.25486516188339,-30.09416124514533,-18.445908300516514,-6.659521598387306,5.446469798639994,0.7133194796867146,-18.71011168962123,-29.501596310681066,-33.36317608448107,-40.64098047674814,-39.496721016625756,-29.72110400573969,-26.954205008327484,-24.507914447784252,-15.761976435985689,-20.437414369525627,-40.72467102562941,-51.73122550923782,-50.0789625682505,-47.36810470720742,-39.581968150229144,-31.66343628316863,-40.177589865685825,-53.169192757232025,-49.006399463415796,-37.4345030210023,-31.087537648114466,-25.50987710905817,-28.486299550734543,-47.386637455350495,-63.25259176542791,-63.30836588856478,-55.889984687880805,-41.35113620684771,-21.233553536497453,-15.642743390289322,-28.82179334551472,-39.84273239146492,-42.0600777555843,-40.00959422410074,-28.15464095340358,-15.801330009629485,-23.801410301281702,-41.89976633495843,-47.36856746385328,-44.0555505351668,-38.22134437810478,-26.7588348793345,-24.09824974808269,-39.55985655629455,-51.493747049473455,-49.46079707285124,-47.44084680541363,-44.23993993087301,-32.759890388341745,-24.18753358843499,-20.293790348527516,-10.376230014833535,-5.458273246451869,-17.382304669049276,-27.707142160789317,-25.182792598963452,-22.155456471649238,-16.831272141380797,-4.491788361912979,-2.390696633096865,-12.895077033007258,-18.015994247578387,-22.955049658131397,-38.29216516679729,-46.57644148457681,-39.31404361938441,-31.64275850368643,-22.590573513420093,-6.819064464890732,-1.7038027084244254,-9.803988846725552,-9.099913231489264,0.16952408020311482,4.387082653819247,11.14789513404654,20.744997794371617,15.886411105819441,2.0434381804019583,-4.18977232419692,-7.675759633875177,-9.659702439866853,-0.8906519600258331,6.1007738866124726,-3.7782300086019096,-18.105352335786833,-27.717225712377612,-37.618209846205794,-37.45616853815628,-20.31369652874718,-4.9349625662337155,2.040753885014427,11.300273806196577,13.848454452883473,1.370154438474902,-7.547092777514269,-4.85304768872343,-2.1121494982797167,5.514510025333296,22.29535422223638,27.98793473528386,17.520398564765394,9.746001783732673,5.879139333288787,-0.05628580141888584,3.0400587613613745,13.97556810627355,17.12639295632971717.78759091419241,24.172352846175183,22.616056617752896,10.921137214815516,4.300445043691292,0.06346522688734557,-7.363494387956217,-5.678075445752693,2.8322782483198212,2.5446773766184423,1.6290330064947303,10.4163864931128,15.088697070635165,13.261565017146573,18.403908045818525,21.50729347838624,13.035806357866825,10.191088337352195,16.738255833118448,17.18501937673755,15.859296169754352,18.780903222087233,12.358783719698625,0.10986099787785797,1.7271190056308503,10.601612021614033,12.622774227186463,16.98457303106035,25.517160292233974,25.691443717570387,23.372283498685967,24.991867661118942,17.566125501536867,5.0059943138706995,7.361769619613019,17.304353817576324,17.375191008902014,14.322719776931425,12.731970493990223,6.283474756982747,6.3636438031253135,19.255797388489803,23.66762856769937,13.914801183594433,8.44627224175157,7.273011107071836,2.079553619808249,1.2189617213705506,3.008210094070255,-3.4549929361240705,-5.654427000593639,6.453148680380968,14.872603414969557,12.93526183562819,13.56233299780989,13.497709463946428,8.229658214665655,11.155001082515646,19.052496449152773,14.979504170698558,8.094181670290222,10.808840642651548,11.437999803576336,8.795537676627148,14.717149078183978,18.620729788053847,11.054730905544822,8.910210744889495,17.20076427571695,22.96279124732032,28.56014043819535,33.58334731341923,20.68353283830298,-4.111832267813594,-14.634937922818521,-10.375474976005364,-2.8180325882687027,10.678874951783303,21.550781365937148,14.171778492899122,1.616681558991619,0.14473855953909465,-0.8943504570872651,-4.330554590669905,0.7755215074077912,4.730517912758605,-0.33641826599107727,2.798929099523824,15.967278454050646,21.549228220687745,21.949888551064333,23.30441285518678,14.593167279311356,-0.6782144581153933,-6.421687614784948,-7.76523800956167,-11.048570053074226,-3.608875449209435,13.140863655044988,21.608114814760746,22.591195340102704,22.05432915972453,11.98029406802556,-2.2999651472214935,-4.790385627552585,-2.026769826008449,-3.179086561190337,1.4610418323625942,8.519003318177592,3.054331606019358,-5.679225139200247,-6.198678217043108,-8.395621826097505,-9.58947083502242,3.511877270124651,17.25157568750171,16.197988350329403,10.753835122894255,2.3972512665977,-16.081148746856964,-26.06632998398282,-15.187274032928386,-5.030363654311891,-4.805202949443704,-2.4747045628060147,-3.639523763133034,-12.516098027339883,-12.483440020008473,-5.128330961071456,-6.9193023450172,-10.183525170423481,-5.756578439212504,-4.95263385623383,-6.1785367213475375,3.320172107533388,13.829233486786489,14.450075935947886,13.906318522040854,9.769993987237253,-7.759990542537466,-23.67157382862901,-24.178834698062595,-20.045633337963782,-13.149659309429289,2.7112801601938203,11.493644693535693,2.6514357459185325,-6.75897794488803,-10.288499355687756,-16.775608304349035,-18.632475831347207,-10.255222991191804,-5.481044651420757,-5.049840888882663,1.7530956619761837,6.137783740502024,1.5697651043869925,1.9693296338801276,6.844958623029723,1.5324573228314418,-6.763966908990588,-6.957788609463856,-6.341466304825237,-2.0616356677268324,12.953486636820495,18.4134762368979,1.3763072220305288,-15.87449652223177,-19.972596319704483,-16.761690456222816,0.06015322426363401,26.255438225732096,32.92069032037222,15.724090222004083,-2.3292179950706737,-15.444569495771802,-21.76962393795821,-8.021186255539792,13.853183576542964,17.841716129837124,11.123767060979652,9.664468661259056,6.991433089338534,4.84181469596135,13.681680619558183,22.365866570872935,25.36246459823304,42.7686315748425,76.51792966454589,107.59731103297337,139.62304636056098,180.4609277285029,213.76225626520676,234.9330605468953,254.62871931609683,258.2613742713291,233.60817079583498,205.38028036971818,189.08477616211658,174.04326719911984,161.97907069203822,151.35996821769473,121.41084773539696,80.3349900034031,58.32478980885783,47.84045060887709,24.582891366520798,-9.431785910441754,-48.35827089803823,-87.35191341150428,-104.61436156098083,-100.18879760773268,-110.29007842836545,-144.69097126216852,-177.828481137238,-200.49670588738377,-215.93589442946254,-221.51510219761465,-229.1730867388987,-249.7852682498633,-263.6408463443081,-258.005026407262,-251.41285082791822,-250.82232184267474,-245.16099241117172,-238.6195604129403,-234.62531892095683,-222.35225419345852,-211.08375741724703,-218.34008286325925,-226.0593621163056,-211.96580410312163,-186.32338657198505,-158.56726492456448,-132.49096480654686,-130.03621042944843,-152.13443056961134,-161.7252268800478,-145.36826396228102,-122.47412343373026,-99.91237258520243,-83.32752923095963,-85.19893668561973,-89.08240476343093,-72.55067309821709,-50.41429305651165,-39.504065909008354,-32.2987256164849,-30.53420281844846,-41.63987891037308,-49.53858674427437,-40.31766957785561,-23.103478917954668,0.40388210553058546,33.54484852695949,55.60267691926975,52.930259097166775,44.99684398896741,43.10327746791238,40.33878086721583,43.07521342583826,54.46208486451414,59.7577317834927,61.84956696610733,74.42439297858905,83.6495040991712,77.78639164512751,73.83393726472936,77.12087929883381,77.80290289797526,82.93413295235098,92.67118856231708,88.95293132418911,79.0232791401885,84.17678181330979,94.51825780988844,97.37646256351277,102.89733895402617,106.97918479163121,97.36807909021226,89.73776941147148,95.12389441181368,96.47602166938344,91.7637384459704,95.12110359923679,98.96512233761084,96.36412651709644,102.22898238526531,114.39863486087768,113.26437418602026,103.71712696645488,99.31216819507576,95.062970328092,91.8033776774062,96.17863973531747,94.92260601393212,80.65836980663661,71.19600707365903,72.08333015555706,72.74652253920968,77.96909293243954,89.8108591899184,93.24135865718856,89.55803566011657,89.12167775915395,81.27131732053343,63.71919576566293,56.263136396651774,58.68267981602471,55.35059851998609,50.94703508563185,49.75004597002726,42.504518060974526,37.45940879857886,47.051064093856496,55.88694600031598,50.90146505143543,42.7221279334781,33.6272790285762,19.32804609187665,14.200176205887516,23.260846341532183,28.27649449875768,27.674944793472434,31.95229307658105,31.772014164505627,24.37077504609905,26.600792151551452,34.903568501008294,33.16947263325882,28.89804129694116,27.975729062685616,19.867582186595683,11.454333784160022,13.847041632789814,11.898397381685584,-1.0950977483854372,-7.022334763214454,-4.131857978201602,-3.77428568113824,-0.3440481717166557,6.198552673108267,1.8202517558419844,-6.122009227293386,-1.2323035506486795,5.5972930424586,2.967072730199028,0.8387562861246238,-3.1223911928538572,-18.752894214161834,-30.035350784919558,-24.50827047241011,-16.1265554517839,-8.770138819143217,1.862738579436622,0.5145819095619768,-17.5287183099473,-31.196304766776,-33.686281984549666,-32.54672217800199,-21.573618624281835,-2.6201055631638965,2.5837654967229513,-9.34437250071761,-24.442210707690275,-42.82375579277548,-58.63170870793337,-51.83469510012242,-30.350986669950515,-19.840444331638608,-19.621048043147333,-23.41086049599158,-37.063059158393344,-47.4824389936573,-38.424051453226255,-25.416326764123788,-21.295356920985057,-15.998816575970007,-12.826194138554959,-20.80095866425916,-26.193150162304683,-22.502103196167997,-24.665491035225827,-30.982089525152162,-27.742550817351635,-22.66134291550751,-22.166938694930035,-16.12201422429544,-13.016964670288292,-28.476498746133398,-47.552913622839824,-55.46974272950895,-60.31073215257585,-57.86986844238456,-38.785793589041106,-20.045566739177396,-14.53707863980947,-12.816898512526823,-17.400849452349924,-33.82734910652264-42.977212802929856,-34.8360216353921,-25.26766791953213,-18.239280561290943,-9.799073493723377,-13.429543084929248,-29.64773894447611,-37.211806482958906,-36.075493887608964,-37.75501623541276,-33.722987752972756,-24.06018122226888,-25.87144978936835,-34.74844329979984,-36.750570628468694,-39.5907612949448,-45.003186192486744,-37.36588792104364,-22.617515097259577,-18.845976519669446,-19.2000777768395,-17.20243266953954,-23.531712753726367,-31.374097532957535,-27.13093254248056,-23.497503526455468,-29.160414579907595,-31.568514282197707,-32.95119577424289,-41.51544662946575,-42.629645421900605,-30.691151542044302,-22.782011936542276,-20.50675202931149,-15.285120588911386,-15.918615056475296,-24.04357023914778,-23.814914817842997,-17.492572604879868,-17.474423421260703,-15.218301666469532,-7.703876375080964,-11.073265838508426,-20.83622891337811,-19.76574233378076,-15.566509003145654,-15.166978194142542,-8.859866303509989,-5.917778418664958,-19.469039539991225,-31.29666306311082,-28.384231876199667,-23.065903484522362,-13.83957088718919,5.5515140266433916,16.424376035380405,10.608987924509115,5.150868244644126,2.2914123555132146,-3.959738908624421,-2.206612622317491,7.356462034144673,6.883115088878396,0.9048599576536693,3.9055735552509625,6.919776358497146,3.2750527325940695,0.7917641758447792,-6.507651234888948,-22.77547025051194,-28.35164944069079,-16.968338250001278,-7.291124810055715,-2.516939697643757,4.268043927941562,3.5158123199068028,-4.3073154892699375,-1.9307106418312956,6.0926213656961,5.7798505706509795,6.7153657740767665,13.320103718822097,11.520319113897312,5.637308073472967,7.411533041158067,4.806007086736673,-6.445345746096823,-8.345515737358191,-0.6611886544076508,3.813784471580629,9.499771972767649,16.18399555932739,12.112160778581174,7.53489768456431,17.522845306731835,27.877571306532953,26.58942521272408,23.61083288830825,19.228239725931697,9.998918787772862,9.051432104490804,15.467682819039709,11.722858379955419,5.098679008941594,11.3511420747701,20.071350511720144,23.44116740659551,29.09205938158055,29.033783573346902,14.979046863697132,4.132212590408514,5.189019850643995,6.857927550799271,13.354644295249607,31.35336628052229,41.592767865379706,33.16350538284215,20.775854699793115,8.861583233440937,-3.5203806520075056,-0.32678660327610976,18.509016540515155,28.7118972924914,26.900537096151126,24.759433110127524,16.15895410083947,1.6695135908988457,-1.6676853915088525,2.1418833844292955,-0.9074890603855548,-1.190516662946207,7.269682791937491,11.01243797068103,11.924032219408122,19.238978458935918,20.744467969233284,12.406595357257338,10.51626514785078,13.168291895730627,9.579396148462958,10.02543622257381,17.581416570674747,18.2183805333329,15.107185787462361,15.547743022257762,7.095549541717752,-9.282315276835213,-12.455164659144902,-2.5416843241002374,7.002765628901467,18.23141215706432,26.24062339474143,16.761275650039806,1.762499841501969,0.08543804508941055,4.087988579451341,8.725333265751287,21.932323573836086,31.88964787916856,23.93064304746868,11.032871781564625,2.5299964885099415,-8.297645376764367,-10.536355406317277,5.770841307065813,19.116577970124226,17.041442903833527,12.993596169781183,5.351115710331035,-11.341062867909503,-17.302100152768027,-5.79037828132914,5.8939233237047395,21.12739978298143,49.13375220958896,74.30502939400037,92.7197049129525,120.83277137594246,156.9628389980366,191.84371068661247,228.02505324406624,252.93448094643992,247.17003572771387,225.52190574979974,211.1991199370734,197.95591841329318,179.70018542361447,161.3560584992066,130.95227242336145,82.84404772604769,37.89522161004727,-0.4311003231814414,-45.29896144034302,-79.84414928916098,-86.0918143651937,-84.93520303472746,-95.41177654384695,-112.69205591477176,-138.35193030717636,-169.26785112421402,-183.4137925508657,-182.3986794311008,-190.99962153795377,-205.7051588076646,-209.66413159857203,-208.70610087426226,-206.97954232355312,-199.2121365664927,-196.1420573019846,-204.29937556515483,-206.30820545727653,-197.15393935368553,-191.2042957402244,-185.56627393040708,-170.5680536120378,-156.7471281520895,-149.31528426664536,-137.4594981202289,-126.88921942280824,-127.94860308980016,-125.9617010349608,-112.34747108161604,-99.49505409538179,-86.14283748899501,-67.65049582084227,-59.37087326399958,-63.35644963823489,-61.02631100986936,-51.722863184367434,-44.28649808464957,-33.19804084561195,-22.182507293754817,-23.69465115764178,-25.193718795591316,-12.125052226096344,0.24415566350737716,0.9424097844296533,0.0019290755210481514,-1.364499829989781,-3.129965275832897,8.641302267214066,28.866340617551117,34.758063335786055,31.168710573390108,35.615751125902484,42.17940546585837,46.442122779379275,56.12996730839575,61.87298898467267,54.527301879859884,49.4376024826052,52.05068224891792,51.48959815582528,56.13169454811503,74.0196901684961,86.98044938759816,87.02758533784885,84.86141297068625,77.495905162609,64.68331075645233,64.49888232933769,74.81774441040672,75.06071765911338,68.5194532850707,65.39094594173643,58.126891668633476,52.70168676892305,65.36663129569301,81.98249972867809,83.35410864272806,80.18950657114829,78.70828860850224,69.74465777934633,62.584437714440355,67.5091349207959,72.38720222980248,76.8009098461813,92.45230809699736,104.37966922916227,95.09976032019614,78.34627792659518,65.05186348709887,51.3685405060467,48.59489917365396,61.87315480392769,69.92487803323333,68.34495408323832,72.47304641547913,73.82886564819478,62.27243348749862,55.890460568008024,59.14500766234131,54.591742954725106,47.88489608713127,51.01113227850481,51.80845596449384,48.980377328868045,55.56653648970604,59.17728502815141,45.310189309319085,29.14873357364705,21.077361748684318,15.31905033095477,18.802257573429586,34.39926894672292,42.647498256310236,38.21402731154851,36.14061696709089,34.95271416300625,26.648926195895378,19.155066976197624,12.601085764002125,0.5116410765250938,-1.5648053477247428,16.855512764948692,34.27614177842792,36.153479767906745,29.8427438902823,14.151473166738398,-8.671085981421628,-17.341980648077193,-10.200938620545957,-7.71373945391765,-8.463010972943954,-2.6298302339759836,0.07816619186414552,-1.2931452794041243,3.909787437655327,5.18476055461344,-8.130585097151801,-19.68594380644795,-19.595002957395106,-17.393315147451233,-12.747763066550295,-5.485504072813591,-10.221549486809117,-22.894122699877148,-22.710774946764705,-14.460772156840093,-11.53600948300932,-7.916679668912393,-6.632843642024452,-18.75045218674519,-30.959396639464764,-31.28701253773149,-32.131433025744926,-34.872951873551926,-29.638849510884807,-27.562778601914133,-36.77657602539147,-41.27141155550936,-36.222150904413624,-32.540182502014254,-26.486974738549083,-15.117545852474617,-13.03410787409788,-19.524394343105904,-17.72357207106834,-13.461466521981293,-19.099067733913397,-24.45120461771799,-26.811385436143603,-35.77814412544045,-38.770517941529675,-26.06393495173087,-18.57871240017938,-24.93108039137129,-31.09131128603623,-38.7289242908626,-49.9576911460127,-48.36389716674094,-37.189294385431765,-37.45793314281575,-43.54298964277949,-41.069431017565854,-36.701850987687436,-30.982421364152536,-17.504794081920963,-12.139721923424734,-24.55630508003663,-34.97731086299057,-35.619483575487294,-37.50236316515192,-36.21884046964047,-28.239939764699884,-28.115460316758366,-33.52967657460086,-27.60279677363132,-19.31706299065847,-21.835017907446193,-23.495949509520248,-23.758675517970943,-35.981761180168604,-47.19038740581111,-42.2968736802678,-34.00626091386794,-26.875957162195004,-13.88258034704346,-9.143282222172932,-21.733825335344815-32.71320525093948,-34.572614594970304,-36.44977540506843,-30.060897852513158,-10.178511995945602,3.3893518836311847,3.667978750436477,2.078418207796183,-6.5188395326320965,-24.333943169358097,-29.32041101502798,-16.917664059528732,-6.316320930575188,1.6581154484783844,10.23247520380981,5.035342839939545,-9.50457101580822,-12.959806946793954,-12.27660793859918,-19.376556269428647,-22.67964683013787,-20.82017894430995,-23.22476763120136,-19.259713728570397,-5.360350505901755,-2.1573274635871598,-11.702010254058989,-17.19266195818726,-22.097920815189998,-29.68184988722019,-24.031831511937902,-9.893387724226308,-6.618078740133608,-5.861062077192891,2.438562978743765,5.298255371421725,3.420816711479364,9.95878771964635,13.649588393815844,3.669816050572184,-4.17350602364222,-5.17041207759906,-9.839318884595372,-8.459074769450034,5.943878473933122,15.510910068190157,15.895021143687941,17.731406487716594,12.315472877647224,-5.386519640188471,-16.345676711771876,-15.4112544112661,-13.19731140464934,-2.8164858246566897,17.452149860495282,26.08373632483111,19.08961222683677,12.06578635368379,3.8007411929453814,-6.6910230845568535,-4.048571242729281,8.43055131272224,12.253243325735331,11.73153409213457,15.222016676206591,12.266991693623204,4.186431761232935,3.3792306689604756,0.9626645144463624,-8.875014689320125,-8.683416716367184,1.3928163482533877,3.1529571777170284,0.9706984531850009,2.5103742780698846,-2.5662605448730664,-7.8875026256159035,2.7063400708823684,14.937207605583128,12.812114717858133,8.011836460217431,3.799953261098043,-8.057242694349414,-13.851152732595981,-2.604039311702006,8.96136610849107,14.076881335987391,21.4004870785463,21.620757593436068,9.628776861173698,4.261350009791949,8.622735603546658,8.239598588076355,7.29562289694959,10.780729445283901,6.498834771738375,-1.4681022422131087,2.9467917760682814,11.077582606542029,12.471669552530843,16.998662912714497,20.227446080723002,8.909947037640528,-1.1136418545235798,5.034563251733028,12.549758475610558,15.504674985480586,20.87620156313515,16.517673984780583,-1.5035931291353961,-9.834359831760294,-4.0163939805797755,-1.8609313618864127,-0.8046623725083502,6.782353690393705,9.7042276174014,9.568866674818041,19.66641641795195,27.11643122912837,17.720506245911324,6.488637448095439,2.6516231969154926,1.3771793641368255,11.538988751683387,32.50744473463999,39.359191218055194,26.97788955329614,13.377264164768548,2.1956152335375334,-5.219962808677758,2.30479195952375,15.183623055943546,13.991457135316752,6.919260100843536,6.078831868412352,4.136696723232642,3.3330616436403075,12.454485758181157,19.376080823006063,16.8241551783216,18.271034721038614,21.662876259155038,13.963301419276608,6.503564118920545,11.687502979799412,19.247609993005227,27.10845728312945,40.714106679126644,44.27794506291137,29.184037475991104,13.480351385885804,2.6948966465346844,-8.99163704694709,-8.242240145127713,9.14201954966811,20.59293464292696,17.924843157114285,10.581444303873711,-3.130395677215005,-16.263499485629684,-8.946897923433296,8.82932672458842,11.233106388832647,2.5973674606271464,-4.925024114001135,-15.37347084343025,-20.96671028815076,-10.166636136519962,0.770719641036175,-0.24731431012368565,1.1424638825822724,4.918364270112512,-0.7386624433432623,-3.7377270151417106,3.9156735041881583,7.540869576323766,7.654373696381141,14.17838949896636,14.556952462817828,1.4269170209098734,-8.851284233420985,-12.91471535781234,-19.80830660418798,-19.751596272424397,-8.369773345811836,-3.7161815891090937,-6.424230797918399,-2.4630791092415203,-0.5328863971396698,-7.789417921318079,-9.313896950908791,-4.695450933961688,-5.770692862990375,-4.451657458949679,3.4024489725201126,2.748944812810657,-2.941610904171774,2.5219006850503223,10.869114473039398,12.933407294917416,18.18012233277674,21.459607872135997,10.713144733572598,0.605723853764583,3.22548236358658,5.871483728446291,6.3766419582374585,10.473524217526833,3.245106161210917,-19.014367018808592,-31.045883183829133,-26.21717270772897,-20.224348900659667,-12.071906949323232,-1.7093430537401186,-3.757788201786643,-10.224484556965578,-3.2900039030238153,4.279826921032946,0.12308017345620303,-2.71065145982861,-2.794210269294487,-9.085276994564925,-10.306609295837276,-2.460132845964994,-2.9562727752537556,-9.003350889012095,-5.55859925719966,-2.464288181431053,-6.395958902392849,-3.1324284563122147,4.190020801655567,1.9399901021241677,0.2051702492352016,6.05834690865058,6.425374323355303,3.607773113890378,8.543010459500902,8.743218224335157,-3.3865374136738344,-11.076243129153175,-11.125408011416118,-14.597326041429499,-15.262919359120616,-9.629575909375149,-10.27415298220642,-12.27082292896161,-3.0243780208374513,3.775197209089799,-3.250919762241104,-11.497023240822688,-17.183094114962202,-23.47531442036594,-18.167095621590597,-2.674962976573812,1.7927279727460461,-2.043851036419405,2.4049447707116034,7.77199929621916,6.8554165729227075,8.797014922811643,7.1594858897511156,-7.28425783277456,-15.70069874923156,-7.568820448794414,-0.3419776176384356,1.612709692326484,5.332607513636206,1.1421533702728799,-11.492870108993886,-13.183788958488126,-3.6715732650584534,2.067199820378545,6.284259763654708,10.79331355110812,5.95627136301401,-0.27543672321389057,5.38986142545276,11.299351320863316,7.991215772192408,4.889444524574441,0.17147063922891448,-12.194884573196587,-18.744990287333152,-14.617707511660846,-13.815654212940183,-13.214160294675436,-2.795115606004886,3.3437096915612803,-2.754201635153847,-7.144795984999814,-10.389500920834694,-18.73050551082191,-17.42706396537436,-4.170696623464583,0.6439116329479836,-2.590303371468746,0.004680537308787702,0.8488555046540472,-4.468798889490406,-1.9231227183145116,4.166198806723501,-0.9255183725707536,-5.809710235660923,-2.1078974027904422,-3.9698895383511816,-6.906364815453103,3.820419510975339,14.094950041623038,11.91184738774893,9.124226940333752,4.955565866263196,-6.299820674983636,-7.429577667590072,5.754529161934817,11.51388496557643,8.649131155915756,10.573995972496002,9.591567735577474,2.6755616572754786,3.3316973457067283,4.00023553164018,-8.017268280955632,-15.308007777328475,-6.1433718590509745,5.8708637259901035,18.42585283158694,33.32400678398456,32.603491967453195,14.640617242262119,4.762347148946168,6.994644524171605,7.7749768073680094,11.04505305634038,15.68386830826316,7.045235676972037,-5.701053225894276,-5.4265672139437715,-3.697205093141027,-9.183661823459373,-8.89391740791323,-5.210440567469858,-8.701255767010625,-8.239017255973316,-0.27895960163332,-0.9108275878522107,