-19.059360839671314,-20.878267460080984,-11.64253813427802,-2.1936158037974227,-7.423986330418008,-11.83189898589031,-10.89700571434324,-20.096794835237876,-28.8750630197951,-21.687812722368008,-14.553823177238666,-15.009006901349501,-10.483179970867669,-10.616056055069677,-25.976126087678576,-36.25241179321846,-34.63863778013851,-38.06818710301722,-40.820590436774445,-33.04630779120404,-31.40631703664231,-37.25725816941258,-31.350385651362984,-22.300190414839346,-25.325742711759794,-26.94037063198356,-23.80475127216597,-29.39216872253402,-31.816938280596194,-18.40201999163107,-7.902031731166994,-7.418821177032449,-2.5204098181857573,-0.30937185772587494,-9.704397567782081,-12.686928609731556,-7.557045490701423,-14.188349748585702,-24.55271148452535,-23.658518900535903,-24.649456317777695,-28.895295926164668,-21.361809521221275,-15.440110976054932,-25.406676917864175,-32.233987383843285,-28.53825695116442,-29.41242417881054,-29.308237019766217,-19.69367624149939,-17.022159459759347,-22.47043139322859,-17.61475387541314,-11.256028862457136,-17.608979448418047,-22.312152463023505,-21.677818725815243,-28.85973252698607,-31.922721036213343,-19.6535235868396,-12.59225717368617,-16.268605486954403,-14.019781303274037,-14.127598008788484,-25.54611392284426,-27.178929853974598,-16.13356035786868,-14.561664538085559,-18.189989849926366,-14.891547246192061,-17.265922631744797,-22.500542763409893,-10.823810935756786,4.5369853281430625,3.4882096283851616,-0.5821964206182141,-1.3154094109943724,-10.660784915868582,-17.161771471560584,-9.152311747607321,-4.894750172100793,-7.89353197520176,-1.31566984818354,5.563607070377465,0.6120139058489276,0.5876182581044087,8.066621890054329,5.558371569128772,0.8287064276411318,4.355187801759143,0.43689963850343316,-10.120892009087203,-7.707330674094253,-1.040593940189442,-4.391679750422238,-3.9428109188866545,1.490717752306793,-5.529536170994488,-13.756202031492228,-7.627536511112881,-3.36848422926224,-4.975789303802444,2.994402184248286,8.309210882054506,-2.1004800498489606,-7.948157422597155,-4.019992156142621,-7.78493363828275,-10.32349300867602,-0.05027763911615146,4.61430256461151,0.4029509218368883,5.010048729727757,9.10577009170538,0.4419525520020522,-2.4421281461988884,4.798741763881035,4.350881683022617,3.0639292113109136,11.200723424623881,12.303537846096363,5.276711167374117,7.897055210543373,11.970055200071092,6.171480558523969,5.189785040783539,9.500387628999503,3.3246031839869037,-2.434818193407395,4.193120509281772,6.862227853314197,3.073916466845952,7.392021391953245,9.29841511017488,-0.9777744097691343,-3.940833179307286,4.321661492037222,5.642392483481425,5.069285307005896,11.111187945571018,7.471614269316079,-4.557304152931354,-3.4809391348834318,3.2722587768715563,0.7063975304471657,-0.031038808393251682,1.32901647820665,-9.116350382417112,-18.154420629036334,-12.247004536524955,-8.988355936168295,-13.671556711200514,-10.961940987660117,-7.681799223445514,-13.489060030663607,-12.622361658173482,-4.321532614780358,-7.400712871001501,-13.349720478630067,-8.08901767914637,-6.677101857068067,-12.68623973804112,-9.350276044968588,-2.8764758511482538,-3.410813852709457,2.845087624866478,14.096576579932826,12.09927639674298,7.023934771727175,11.494212447211824,10.248771745455791,2.0153454653533487,2.279520329281576,2.675217106890834,-4.409232989236358,-3.0624242187490003,3.2527976871782496,-4.9122517823837235,-16.78310883027588,-17.748391927112433,-19.505116526119217,-20.224834898697704,-4.712047519261545,12.631113842316374,15.581246026089037,16.48325473076615,16.127280437567855,3.48201040103614,-5.209507637589036,2.7931811785391067,8.789878084545393,7.510586169429418,12.497089820997214,15.41281103592316,8.98215190940979,10.881206423259588,19.758501076558854,15.393781891847492,6.866801385975216,8.376803324515834,6.476003258372664,1.05617962972828,8.182308710511045,15.302035478704402,8.774967653370602,5.604510582791336,8.802044951106527,2.6206469491427247,-2.8443578247086863,4.225858097162152,7.8178234237053825,5.881837880391373,13.878328754984706,21.301350079425937,15.730373552041648,13.143136371381559,16.086759517829968,8.653701447857525,0.2148367362363066,2.0196093754223243,-0.30758608329970594,-4.58582792796324,5.9373173291907655,17.886407513790765,16.843821065897878,16.57621625179666,16.620325468661957,3.2491318907193714,-8.186305378962556,-4.663309253671025,-3.9405978240308386,-7.472534655039832,0.30505414916206464,6.8274488113543,0.10853447081592593,-3.0408553380248313,-1.9680731936818752,-12.354164085016064,-21.169557771047483,-14.557530690536627,-8.98905356216812,-8.758052052701315,-1.2167771067523265,3.266305019565225,-4.02944629515123,-5.208521200752825,2.0522096477423757,1.593384015937674,-0.1189033837951502,5.126190011947214,2.748521929127718,-5.44289262205426,-1.7417194604679396,4.552176213172457,2.1659088278056178,4.3767855610358115,8.996860305988921,1.707841449098241,-4.452710386293152,-0.11818649777074652,-2.93335647777715,-11.680282389414918,-8.530766054809181,-3.9600232677514713,-8.361566171783476,-4.799608525227946,5.001469212645127,2.821744039214696,0.48357646450357383,8.510328628102084,7.82546598360261,-1.1794954849398818,1.103035979622359,4.940960548223321,-0.811347450579841,0.41922133550410523,7.235177966921055,1.6244574009887542,-4.570876390608746,0.4588046020465266,0.010647758370982308,-5.506302895962108,0.10592446133691924,5.014757466586954,-0.24772124512254612,2.7012639198449255,12.17761518641455,9.42256977099155,5.332955639841526,9.779640983290125,6.68740077761675,0.1418230233218103,6.558490260986907,11.345499167956238,4.051136723797241,3.099676103902279,8.929341452938518,6.017652825402074,4.56980815068721,12.492421252293752,12.022262105250372,4.587712086269157,9.044687315764984,15.762091859258511,12.393464290141505,12.750626162766217,15.230866696414893,3.2239372250993714,-10.334970390781267,-10.711929868193103,-12.256689166187467,-16.757389961131526,-10.697574367793417,-6.414973723161256,-15.096522635114844,-18.81776614712702,-14.796367090521539,-18.634153966565258,-21.18344914507453,-13.859407267998737,-13.970969835857648,-19.623843044231293,-11.458219456124617,0.7117528941408691,4.326928926797486,11.673698734395053,18.92790899401134,9.908231970871224,-1.559344594394589,-2.3274851369501737,-5.904785240476728,-9.313354219635384,2.5019738202545447,14.2343129924259,10.58190892147988,4.751127613796889,-0.6594810752936273,-13.739505666658161,-18.35207520207752,-5.872907762761097,1.806620154344556,1.2495745214414729,8.072584982932995,12.054801597834498,5.39637501052001,6.939704667461019,14.643139032589048,10.294804567193149,4.772420558122851,6.963702721765764,0.9917428565868072,-7.622175729838187,-0.16289181045559342,9.305366055610225,6.486496276403261,5.808706134379947,7.737508271092645,-0.8668222061730875,-7.138187012477053,-1.9951832007064692,-3.739363701111342,-11.170540928816001,-6.3387902251490935,0.6718167270048232,-0.5518600224143537,3.6666485889219116,10.226468707220222,3.752271491791528,-3.178256989311288,0.4157200309724418,-1.0451549952183665,-6.882542688980853,-2.3943738646859622,0.6791246907209072,-6.433381546939566,-6.778878958116945,-2.1836805999359297,-9.584055668693587,-17.614301415152294,-14.571220013983607,-15.031317153845617,-18.82355706222655,-11.87712187626614,-5.387326678927307,-7.496846165020112,-0.6764895206106445,11.41583548773681,7.270845925298365,-2.432831740640793,-2.436240422998336,-4.281183799049718,-5.916035223679178,3.9730110266703087,8.173762211338063,-0.817320425987929,-0.09907602778785196,8.987995293319035,5.1046911885020485,-3.7344287296354985,-6.457819255111614-13.861193008711982,-19.765288834706393,-9.89269071434271,-1.7094688895265624,-6.966741489618166,-5.484534726220835,3.4986948025804283,1.6458131591274967,-1.4999118624161811,3.710677728125422,2.963800456934993,1.3441437729267194,14.432225920387824,24.672796951944015,17.39651756437343,9.925449871009898,5.426995234123503,-7.550379680511918,-15.617947590902379,-11.108102530752479,-12.83795244492013,-19.56933882500337,-14.83961713630347,-8.563073199154736,-8.796842421427817,-1.2622862620266568,9.646472964446133,7.288762790199161,2.645114447428992,6.193250910038892,4.637920559019745,1.3385839833586903,11.808830560022972,22.52947313182352,21.10777895263388,22.336506759851325,25.265071130620264,15.415285055061442,6.401849721584918,10.028488610140675,9.160385092646136,1.9357374807510705,2.5611581161043575,-0.013330693037656438,-13.234146640899619,-17.300522781038428,-12.249615225300804,-15.215456308316096,-16.60989058060341,-8.894946424986138,-8.829046075309357,-13.954236241363411,-8.416023254244537,-3.220073912023159,-6.412415657782639,-2.0377797165957365,6.20479618080063,1.2293756094765316,-4.93251044578158,-1.5811516145606221,-3.285963873000639,-7.53336038049833,-0.4592225282393749,3.4800192762680555,-4.869944780520124,-5.717459186229858,1.17901022978991,-1.1338544165677478,-2.7417336138172077,3.588478149892923,1.1660951295060684,-4.361382384026255,6.218059718920255,19.532719229517074,20.79784606119031,22.21068296852237,21.821663391025947,6.5591622273816785,-6.76656313882312,-4.957743178341662,-5.339057876834891,-8.51402242986105,-0.4331373465288091,6.392940195953873,4.09269233286388,9.535057914555088,18.18740724003984,11.50997112054309,0.9364370344484376,-1.9410019499886875,-9.221798697111218,-14.975788435027637,-4.119615836386497,5.665925403386817,0.6468998025182664,-2.5652344528845337,-3.6283768730487402,-14.57008719170752,-20.009102590323476,-11.401136376324466,-8.308893842349049,-10.814993755382162,-4.042407177800902,0.777917084751877,-4.615531485156499,-4.137638509449076,-0.02564264559438101,-7.673545724458901,-14.547719685146568,-9.484594909381075,-6.794163557143279,-4.869308288429037,9.337147340543698,20.22821082132033,15.195900488090484,10.631109480668579,8.304503543647233,-2.8162920568020646,-7.66147189578582,1.4368309754331472,2.9165258717205065,-3.6183867824099556,-1.8292173228096709,-2.760139373137656,-12.646787640382207,-11.699582474064993,-2.8602708904181826,-4.3661477808523745,-5.04944584508459,2.41384111928573,0.18236636945282347,-6.511933701111144,0.4555296924186738,6.936702068992892,2.5820297389664706,4.385692920747364,9.286879404046132,2.015469863715611,-2.748279817968014,3.3728570444216195,1.0484408280407553,-5.557423589318849,2.0898766556951984,10.005275834110419,7.335161509090429,9.652500193844798,11.918871894667923,-1.2230831922148067,-12.582280271461276,-9.483634762468732,-8.438722757084967,-8.636290887907643,2.6461034477542933,9.48427136285598,1.8982976660993391,-1.7428094644956067,-1.2862220676008114,-8.594708733022387,-8.961052931927735,3.5976167402408956,8.174422231377969,5.976264765401323,11.605454996353668,12.767548233687515,4.679333939242541,6.316212028655952,12.87435453725941,7.360830869135674,2.371734404805766,5.752946800099094,1.4336479872133663,-4.893440160596774,3.3527430915127034,11.617839651888946,9.250443482605702,11.77620216110971,14.898047806429641,2.9839793238538523,-7.953058614521016,-6.2482072782584455,-8.534329630895172,-12.334345922909659,-4.048230469663165,0.3304658814314928,-7.156841289873157,-6.2881150613580425,0.7821987284028173,-3.13343489717701,-6.811191695031661,-2.397325842076204,-5.171245942418622,-9.081028000821517,1.3617490629663331,9.2209352254228,2.6594940450395113,-1.3325166137181987,-3.3553726159321116,-14.991128363633447,-20.167037252813373,-11.081563433103446,-6.9043381656769816,-5.898862863088771,5.212724466286431,11.311949198796162,5.219148241717464,7.161986020421396,14.799844031072908,10.840370035191023,6.750594720101967,9.947909466652446,4.269694702699713,-3.928479795517066,2.4965737397892473,7.956000811139401,1.0996813417181572,-0.18625902170092024,2.4667427408635083,-6.872373808569977,-14.515723031574076,-11.219648961787808,-14.219835267573652,-18.624194380897272,-6.710509217567223,6.339954384190661,6.9404827912814095,9.126897317211716,10.085432605201861,-3.099169753177496,-12.450956063916875,-6.449789902264488,-3.790663634574105,-3.891282486306205,6.491322135342135,11.896071077497716,4.311779810333954,3.5211060833213415,10.494137826142035,14.571952802233046,28.766925542068563,55.428536639490275,72.91806384439064,87.36647568613627,122.47317377268224,168.48528660930273,209.74805083197376,249.29716018538795,271.2344234768427,257.77781507383975,232.43080142088866,216.3715814501242,197.24128449637976,175.81182822825107,162.55694020111318,138.89528956580926,95.68216951894686,55.996957995721,24.086993714682578,-11.339859317946981,-37.49798544060837,-49.59627114673682,-68.00608940273197,-91.57280531749605,-106.23925125977014,-124.30203877029447,-151.25171332284444,-167.98580817874202,-176.1799272824459,-189.75381226824635,-197.32721143235196,-195.59325801453792,-203.74514075107086,-216.43490780325615,-215.98793043579633,-213.02573305019519,-213.5275268493047,-203.49707942667223,-192.60540910252723,-198.09546422982243,-202.99184100046182,-193.89663729990866,-185.1548090343077,-175.5830996208322,-154.9384953389588,-140.5787863313816,-141.74444586073253,-138.95551454877392,-131.4258551454168,-131.17480254772474,-124.0754491097674,-104.41366641561565,-92.92184112252664,-87.99034036786517,-74.50654190327195,-64.24178829672738,-61.45388560576801,-47.32591323977687,-28.035173592046768,-21.574930397979266,-16.187922292639982,-6.549110556988599,-9.426729941845856,-14.984983301102048,-2.653737770639305,12.709154934341244,17.696527853991675,25.29528237761263,31.71701647289526,24.556370202594007,19.752883124215103,25.001632235385838,21.798109534531662,14.902351996474646,22.997174935990547,33.88263762237429,36.762991953893554,44.307123463463626,50.931904180730605,45.270704007098196,46.34151110236815,61.08361934377086,66.50954271257999,63.205955451297044,67.58579758341018,69.50549919208817,65.57560007022589,74.87282298799762,89.26763976904076,87.84342547517403,82.87039562408538,83.14487358666503,74.20588736119186,65.50727166872784,75.452615629223,87.17872050755055,87.70424424726727,91.51848064232156,95.10509738747737,87.02997447113522,84.8773995874707,94.57462685678497,94.11479469513554,86.75316814679296,88.87319926738768,86.84276258098805,74.88755943351391,72.14154366171644,73.67625037742694,64.34943335761824,58.24068447033126,60.02148898919724,51.477171218103166,40.674920056437315,45.27267822459105,50.43530721091653,47.13464545143412,50.60672183429435,54.64706941487452,44.69065919350539,36.66713345687785,38.50233773629046,32.797185722415485,25.298806850434964,31.754191980822142,37.58368089760164,35.517288029442426,42.11053595711792,50.42825285877074,42.87757249229304,33.28303048953813,32.207351124346076,26.55388874070234,22.465162167294395,32.823057536920786,39.61771176162377,33.65870343795686,33.9232582812927,39.00496892124981,34.880696699904384,32.944410208841305,37.61753866797181,32.626712367356,24.946182289220076,30.11132552563759,33.29793547554807,25.282054631872736,21.16954630238595,17.55520707071282,3.928579035535414,-2.132902947935629,5.636739595950932,5.94722530160666,0.014078682623462235,1.189294642247481,-3.8281731032025768,-18.2847325951491,-20.470348674161162,-13.709592365656128,-14.397389997225696,-10.629282933120585,1.01673077834747350.28118962393965896,-6.3221931215932745,-0.34188371281143803,4.949426081632743,1.1902124239352843,3.2277611730494264,5.602064775578108,-3.644419725644678,-8.141447817163703,-2.012274592441336,-4.60714865705468,-12.915983557815958,-11.435946104060143,-10.420984722422357,-14.940865073232553,-10.006866903407062,-3.1623193679514388,-10.642927089824957,-18.346769060913786,-18.62426188586712,-26.853370822531765,-35.8107965484513,-30.969166323578072,-28.062028724980518,-33.470085126199265,-29.87184506244369,-23.97979215595079,-31.014395407922073,-36.495894978150915,-35.119405144822096,-43.545504698851055,-52.922347696248266,-46.57816013576938,-39.525446919953154,-39.92484116698313,-33.16594437022306,-27.045321001561454,-35.93475831637666,-42.03068985405987,-36.4412939827788,-36.25645937163246,-36.45193189976348,-25.23207013191567,-20.53436989151526,-28.509034371591376,-30.42927964092621,-29.964734488877937,-38.08756079418564,-38.82037186976589,-28.096290990711147,-26.170897347016645,-29.36907268757851,-22.719119986092107,-18.921709827596793,-22.199794289615408,-14.413543252608516,-3.0425919391290255,-5.153064330206304,-7.642806739042538,-5.034330013419239,-12.897336816963332,-21.46703099777638,-13.818998672631722,-6.12960993013882,-8.455940048472222,-7.482354961383219,-10.004416334923222,-27.19217052399447,-39.17654956247564,-36.3729053253628,-36.803736637104045,-37.878955685088656,-26.707816085620824,-18.66179801762663,-20.72126205999116,-14.996089043488002,-7.649817615595141,-16.08805273485855,-25.118542464195684,-23.102068618157137,-23.55170154187851,-21.967197134407456,-7.350964970167153,1.7012699778670637,-4.121029695584236,-6.09110600198696,-4.768752756439348,-11.821318736871362,-13.040007172813546,-2.9367599688047243,0.7390505652669399,1.7144751974619639,11.389507278847065,13.487926861908573,2.471784355765541,-2.968171464789479,-6.610941043261384,-20.156226477827534,-27.922740084616528,-25.223142545022867,-29.015653268140532,-31.505121579344568,-18.898928999049097,-8.660397618369878,-8.662827685551605,-3.1294635136543105,1.2615315697724256,-6.646608306080843,-7.295120300295952,5.326455676643841,9.919103218714463,8.367687028060411,13.31186265679326,12.372023889029478,4.690278856835792,10.1702008263795,20.121377714628746,14.557783752647028,5.12570822603559,1.0257509830962588,-7.520054433161856,-10.371433838787876,3.865742554308482,13.975319666876514,9.255351011881157,6.456961993605334,3.9006370267460673,-6.8586296518887515,-8.812519545847563,0.9583642269435613,0.7221009215790464,-4.987590664640185,0.03936734717487367,3.615692854602146,1.2553352183668949,8.354249494408673,14.464197860006848,3.1668619084109055,-7.41277527075771,-5.336226379281348,-4.677417154090204,-1.8556301831816784,11.261437433839184,14.541200008542525,2.8193615523398528,-0.7363834498192576,2.6594389032990096,-0.98396802016652,-0.31471621785798287,5.901259308901434,-0.5824756247394505,-9.73902569375475,-4.042524888504137,0.5113052128997647,-3.976689765132264,-0.8407012780918095,4.5047585975549875,-0.4604843464602606,-0.9884343717324944,5.659528849040888,0.4995620505266456,-8.541195536058563,-3.6825268489097267,2.1096963302280023,1.392678325950809,7.630802329580092,11.724911370552665,-0.7581318569407802,-12.135029157320417,-12.807011467025589,-17.70415962145618,-20.489901156212667,-8.091720662003471,2.167049305141659,2.9775458715052814,14.404135330952206,33.96114154206297,47.00861873754553,67.5845888539468,101.42455956665813,130.30252551871794,160.08239989584558,202.61968909462243,235.32448324976934,244.65915817964424,246.55601055663018,240.12040405484447,217.51431883506814,195.46304629410935,176.49397199080607,141.19795048035206,98.60949819259679,68.29635288430087,40.59268297004699,11.781575303868012,-5.730422954104783,-24.220123676775614,-57.028833675561934,-85.29259270642702,-102.65981796368271,-125.68476087923446,-146.03836535621852,-150.33354766046136,-155.04178095157175,-164.8804611597729,-164.44792853259762,-165.08777410377508,-180.96459957033653,-191.77983534621268,-188.5300650588602,-188.1388718895602,-186.11333877399682,-173.08670052054407,-167.91807094852706,-174.7403046840903,-171.8396067350295,-162.8061111578151,-162.13186343456434,-156.7606535353112,-143.1672579770958,-138.6458018259504,-134.94112004188045,-117.91234930062674,-104.71631537893819,-101.91525672895499,-91.52932312827676,-78.0303920827405,-74.10813679537992,-66.21351016036391,-51.98720763536811,-49.72313287967722,-50.7001007973139,-37.57946070770541,-24.744284535373488,-19.97182886952972,-8.800038027529476,1.0789895261453255,-2.7754742407672452,-1.7504740944659112,11.044093355910626,16.9719909083089,20.72505926563338,34.46130923809135,41.891976401392704,38.58485433255537,42.85962584800121,48.06768768300048,41.33068134756581,40.58435176059366,52.139125702488045,56.75742879142079,58.43653048719696,68.87217671959382,71.99725923996638,65.38203694404523,69.66699285044558,77.7800997351498,74.10527505407705,73.0549589401526,78.82459550033909,73.67972310548497,65.07351594047266,68.04698450914468,68.72340131331123,63.867393475735014,71.66669480753993,83.50226262237543,82.22955111320755,81.06853273006588,84.7116162372055,77.09884160544742,68.35877259883881,75.13650601839298,81.34695204241251,79.28976390607822,83.85816373452518,87.15596536651731,77.05833718153336,71.63013450504891,76.22698607334107,72.03969215558237,65.24867348615383,69.49569857287624,69.20871872142165,60.26606267938175,61.33707470384721,66.8141284157826,63.380201957808154,63.805847023499005,69.20953005142985,61.803639020425535,51.26519404773929,54.169946698661974,55.64484087613277,48.934104936179324,48.934850645793055,48.22119575996528,35.64817009451554,28.30932548039699,29.407104809159332,21.75541470564702,15.392268459871127,24.440728724149885,30.785250345408354,26.992259075194085,27.974040468640965,26.461953390545045,13.596910526914566,9.434834572043687,16.885689542014163,15.06289456108376,10.418114677490825,16.262016210592783,17.1814950377485,9.74670023513115,10.673123953896868,11.698245591446709,1.746459813506858,-0.21009512316354406,9.71417666822963,10.997024707982078,8.776111043550454,15.229583701001832,14.72342722570965,5.551982199246701,7.477208112240626,12.676915559120413,7.041580923180151,6.264267987331538,12.943380903205822,7.473558412307583,-2.125902447050465,-0.4291846515395017,-1.6684744780750913,-8.792352035753792,-5.028184385123142,-0.12479777049063268,-8.205206875337494,-13.17199707520615,-10.289272375045945,-16.214903602082046,-24.044213626031603,-21.113344079522257,-20.995341997186408,-25.395603973243755,-18.52239824400366,-11.766114993149117,-20.51028888924134,-28.865229808348023,-29.79081461098943,-36.2940660347021,-41.162016042364904,-35.979504649324895,-38.47012521394653,-49.793631044944846,-48.935823230785786,-42.24066005541095,-44.709693562878705,-44.48105120195141,-39.28919416983865,-43.295489365596836,-46.049847433226965,-35.87619032208447,-30.79346996222376,-35.32388371862188,-31.895475768692442,-26.61022774737671,-30.57893406175382,-29.527620803464764,-22.95078073549081,-26.998652686426052,-30.944759262486134,-22.607435285630736,-19.054093663853475,-24.098645224111053,-22.429579504980175,-22.34503226768917,-33.588183928736186,-38.86162391241711,-35.71233481193175,-41.3278305655703,-47.25254167810172,-40.57275032129828,-36.25850406952383,-37.65568599825596,-28.929468786997486,-19.260242611840663,-22.60364059979665,-24.133696706345695,-19.863132023693517,-25.014101798182722,-29.567408720243744,-19.720978108250314,-11.662788266142282,-10.894598737420976,-3.5507822430753113,0.6348370473172027,-9.630533829892132,-16.23650842377365,-14.639106356618651-20.80174387594018,-25.514099264760894,-17.150580319699344,-13.162570580752186,-16.66515288404657,-11.336489563633254,-6.8046132468141325,-14.375629103117138,-16.2340866952495,-9.90961665803081,-13.481819002813126,-18.07043631619778,-11.08196646384522,-8.669316206891946,-13.405687965734975,-9.725041732200026,-8.279974839827052,-19.626642105644716,-23.25037111989972,-15.210488850178805,-15.168310432281842,-16.918957816922926,-9.63170333292832,-8.684230032539398,-13.155140235126023,-5.477131874441122,1.8700674739396517,-4.78180086274521,-7.369785721592557,-1.8112830225343564,-4.674107006370038,-7.633225430337073,0.07077296715172432,1.8631342247063098,-3.5635653420957922,1.55325294899795,7.193981428048596,-1.0154611790548445,-7.53702087356314,-8.390225173218113,-18.576336627618186,-27.223515753832906,-20.62820440114937,-15.828228656973465,-17.902517491597017,-10.676534511441666,-2.8673002056648786,-8.121218329757049,-11.153213078737672,-8.550667493193998,-15.623968127521504,-20.53320084419589,-8.753706916922082,1.7313080632602689,3.2028119885063973,8.407473513665035,8.989863608437544,-2.054785559087845,-3.0920705068652,9.091563908206389,12.890801426979824,10.952604174457095,12.20250869767337,3.7464805148979705,-8.916235740258323,-3.783482095200003,8.481316357225754,10.827852527398559,14.82381916312829,20.07933672595737,10.904719607371401,0.349867774151543,3.360938443608474,4.865622100713162,2.9204668417872224,12.779863135426885,22.223886041288935,17.597826338446573,15.016805206403761,17.269467153654134,9.219106068888891,1.4030868409574868,5.809954870178835,5.910433726029073,-0.9806037009536999,1.7405597223374285,5.819903579058372,0.11753731620281593,0.6366637735784523,8.483854034926836,5.2310568721777555,-0.6263138648558904,3.834850792761332,3.6598729946415665,-2.936398388899054,1.3115640850095067,8.290126797355322,6.392339223445043,10.247053888653125,19.028572492898412,14.730970934070923,8.533833650861286,15.111744249096468,19.68177313621981,18.78657731256547,25.908213844390485,29.857176146130435,19.652406606000675,13.912058204303918,15.680108402415485,7.967374124704127,1.146507040862963,8.115839960366188,12.156461713102487,10.202866466358383,17.50892935789978,23.49523244042436,16.75585039202712,15.145567190390569,22.551964868744818,23.995132170422757,28.194093305914073,45.35020601684062,62.760764896632764,84.8641615828979,130.15514102706678,185.51059795929925,228.75956869830839,261.2401364706754,277.9289580831748,268.0148641669994,249.3754158205644,236.26430366939874,211.19973808256134,173.4055872514336,143.7011257192679,117.00576567750682,84.52971504294423,60.462785801246326,39.54427759777229,1.7838487797250728,-38.86921413347983,-64.5899422487098,-88.14170830903348,-110.04374100752187,-115.64883133969724,-120.31840907031368,-140.18652589847468,-157.66105366931976,-167.31360054911323,-183.38755216191268,-195.36401737876633,-192.40333023088823,-191.62224397676772,-193.85453632059824,-182.72954515554042,-171.67409724657776,-176.6622806488623,-182.22056253084608,-183.56519145594666,-191.48602062133236,-191.84535536708594,-174.88883939158637,-161.9873170524981,-157.33822004340823,-145.67103462591228,-137.0102014524349,-139.2905464717779,-132.47565229461276,-116.60414312115728,-111.45737575691967,-108.04160780101566,-95.53436861013914,-90.25511319243823,-90.46271117306395,-78.19375791971774,-66.20289045567935,-66.24942747376119,-58.633507550348455,-41.579572869074596,-34.46238924345302,-29.919756218794877,-17.710680482829858,-12.960584763479075,-13.740462546240328,-1.7972573673602241,11.19310164721162,11.444105236725896,14.946468972597682,23.704400858495745,22.113465166689497,20.526886342887423,29.38091399393682,32.63661738623655,31.375543975780353,41.73261181530478,51.13379219431421,47.99207658544501,49.317464801432166,56.18207536481673,53.196341664380554,51.58373070546372,61.16231002683359,63.6230572300116,58.724675516375115,64.36564886205515,70.61097193014012,66.5118589295852,67.41694467130321,71.68174543814789,62.64924424680811,53.625450671006604,58.9532099814789,63.24632612645333,64.03439240363817,73.8933213624464,79.4755590980595,71.00010379836971,68.72217572429584,75.10501238008575,73.0662743694301,71.14015031429902,77.13216047141267,72.85100425580521,60.22921907045395,59.738850470144605,63.10585173762475,59.65703287956222,64.09151724176232,72.6753513475287,65.84125157624555,55.703938307612916,57.09987592048877,56.07307491816467,53.061548222174345,63.33941974433326,73.07074116843773,69.19141247910056,68.39111923341929,70.62027385352904,58.597803862218704,44.34414088729345,42.21087185839096,39.0555836504097,35.2929745316642,45.04453463566295,54.13241254294306,48.67884262063372,44.88675047853239,45.01540882241064,33.85682272984526,23.01752061705464,25.66602913838751,27.082853762724397,25.784171665213695,35.20923777844339,42.678694651191435,36.42431294282955,33.14423093764259,34.29759492170012,24.19233946545096,13.622894681600206,13.719988653097161,9.364349718240373,1.998588888069722,7.930704078803407,15.019651447915919,10.891085689053583,10.579252007371407,13.317191169060013,3.6284539563966294,-4.540363473064417,1.646284181938161,4.309178667416536,1.7724554935100607,9.970389562145954,16.713771175939765,10.164464201821742,6.988865545836012,6.894339559613023,-5.441665152159377,-15.786144009537411,-12.265368331474985,-13.179238693195078,-20.0110842432024,-16.839945455045353,-13.630437008299822,-19.251322892044055,-17.06024463150131,-9.944515506435524,-16.812376202588357,-25.59994584977707,-23.09120360154152,-24.88393727704478,-31.070328909513886,-25.99380551486393,-21.597578292427652,-28.71454749821118,-29.34510231332178,-23.256905093902034,-29.386427766206744,-37.34001128702381,-32.97338066525211,-30.511799301246405,-30.83343646480298,-20.12847946474931,-12.733783828643793,-20.986325334625445,-25.407657115522063,-21.279275974724957,-23.40557802245507,-23.42263686012035,-14.131605916324688,-13.52632965675414,-20.618033934504453,-16.763809722527885,-10.791012624554362,-13.571115097119124,-11.6957878563368,-8.405213492934399,-19.53807142493748,-30.17068774429396,-25.708330457765285,-21.671331738076844,-20.501578979842115,-10.706045327059758,-6.545737912539985,-16.977999177374414,-21.661409170906353,-19.492857303651313,-27.620502319095053,-35.80765929676306,-33.51840672865433,-35.52244624139946,-38.414218530413336,-25.67599642969349,-12.182951746400153,-11.923560641358362,-10.210151530832512,-7.8849137084674314,-18.294723595251213,-26.111480400435862,-20.205318812904878,-18.764521780760155,-22.039605150857213,-14.779800814539025,-9.650839561514198,-16.700667439995055,-19.21789255464589,-19.137244836129497,-31.3304455666495,-40.362578088733585,-34.530046036452845,-32.19000046504629,-34.45414225789712,-27.054626649056363,-22.69364469594308,-30.10921467378213,-30.786282414973954,-26.552493010424044,-34.88934011858359,-42.30478182516303,-35.80221240462133,-31.67285640766883,-30.177351077749872,-17.232673578354,-7.466987589338295,-12.425176191491534,-13.860570479527274,-10.687359138304453,-18.586252865599242,-26.356112593392197,-23.378627629235915,-24.64473620606108,-28.55561699239819,-19.901230119212986,-11.246842349720886,-14.1781506839142,-13.140206666233343,-7.889547661382231,-13.001418856300939,-17.094861633632213,-11.365882127057452,-12.943805447080727,-18.898508524191765,-10.45231634099125,1.13169307066698,3.6154002733728046,9.893685132748404,15.836899399359886,6.3027398396486625,-2.116799138842612,4.940615788078601,10.566347251579572,12.568227690195634,23.399913406267434,28.320292815778338,17.748168161824225,12.550319377341314,15.66758079164118212.539232714693842,12.867362365516946,21.936493629146558,19.32078604234878,6.638426947505995,4.73396821504734,7.21015407739084,5.270404088217317,11.992752316872306,22.053382909160348,17.686107958947073,10.720978344548172,12.421623506870022,8.76433546588901,3.0495906110669577,10.913512919624146,18.96705737961809,15.439504140816684,14.422140360615034,14.170953925591208,2.72315839762787,-4.006509205027423,2.7630782445376574,3.009237709024599,-3.0084397296878995,1.0021448272671232,4.511075967082014,-0.49621319404069775,0.5602794762876644,2.1774611582371164,-10.912852568286036,-22.09909274012109,-17.614649901122476,-13.249745380539718,-10.939911550058037,0.11013200224285935,6.227694633247314,0.11472692652946392,0.6463511804218622,6.55181551903939,2.139061327821131,-0.9050802992047836,5.624075043609294,5.085258646056465,0.6943588323876613,8.519531831840359,15.681025112955696,12.628887620698949,15.385485331229741,20.101113870957736,11.046127949523918,4.121283625306604,11.480408432159551,15.887304520561234,18.17599332563093,31.442914348103688,38.004933200958945,26.457545322795436,17.96264062534412,16.53646583875088,10.253779394819862,11.280210011453729,23.400491317885976,23.113725004584495,11.61251870612687,10.323240256730301,12.021178617229051,6.98995398305136,8.302948831061517,11.567944045482173,2.462427818913482,-3.1071297129990443,5.609315107526303,9.201669039599487,5.794293969077916,10.678589012935106,14.450253103252999,9.20828962218827,9.899515218918433,13.111146618755917,4.3674244928922015,-1.556914422988255,5.754148193002344,7.826866244244711,3.467236007845224,6.747736490759855,6.567585826058363,-3.5488133036118463,-5.3422694105503705,-1.729803583179622,-8.513582158946152,-11.357291122691713,-1.035475958996634,2.9285835914293186,1.2451249906895712,10.277932378329648,17.96095229601156,15.131177972503982,18.320197952615516,23.353086389941673,12.77965522064182,1.0975819444029642,1.7913886157518333,-0.11042401024922333,-4.5721728260628325,1.1738488638329847,3.7389151850781404,-5.504895421375865,-8.169174851815423,-4.381082656563359,-9.722196219044235,-12.943466063519505,-5.168471437660764,-3.6936790724965696,-7.5006999270926675,-1.9209403989570806,0.17931851184216913,-8.698369543101865,-9.371325714795638,-4.361607046970441,-10.811718249623047,-15.534982967184275,-8.322155703990447,-6.459997060056853,-8.43824688902896,0.5050504253276262,6.708139515361422,1.2956635537300492,2.20995661816462,6.448407033121061,-3.8423860582387857,-15.315274326471881,-14.19208750964501,-14.227216971496198,-14.433156285223212,-2.0879637558103497,7.724548347888727,4.893431979113487,7.470225981279114,14.23043966007257,8.20928216532031,1.5715791893939923,7.586045687651426,14.902176655166114,27.57231354591602,59.27057684562955,94.25250462944938,121.8296109024668,159.86538811083526,205.09128323695006,234.3644227299816,249.9225394056563,255.82179029908428,240.19323049767468,216.05968080320184,205.90842829921897,195.98963602438639,171.21571147318815,143.62963149123675,112.06832250876192,66.9092679013073,26.88702375135469,3.3049299585219756,-22.716961016665792,-51.048094652243634,-66.97660117928378,-84.71077633406506,-113.25831174896493,-133.0280369217615,-145.76745698453627,-168.4730808225891,-187.47414217627133,-191.59695342833254,-196.97643789708317,-202.1248278066482,-194.5106661244313,-190.2589754479429,-199.21117024718393,-202.3026442765088,-198.53981109596648,-202.15336496119266,-202.4373487776578,-193.0494007363167,-191.43685291794736,-193.72119668205823,-182.32960201226967,-169.39935525041602,-165.82216725559738,-157.33103154252785,-146.91478191271162,-148.128031263607,-145.7633070173899,-130.25726992081124,-120.02724460752371,-114.802281531146,-100.16954291359656,-87.94169718360652,-85.22713767636448,-75.43764861977876,-63.70863876802612,-67.35773929081753,-72.91064292707031,-69.00586815748079,-68.80999024187827,-66.32674150937639,-46.59566652634556,-27.409181675890032,-21.35149000772873,-11.259409204784614,1.1626046620561623,1.195242272017428,2.970010802580383,14.950753382307788,19.373015458480214,19.978584694937922,33.173370789383945,44.98091828032685,45.51759469712574,51.58091275234427,60.04063736402562,55.3468893066122,51.688916374890184,58.91950007292179,60.40964313950158,58.59680687499193,67.54657546418926,73.4929022784303,68.65807824936678,70.95259478588243,78.1175466614716,74.87471809311667,74.02095213012241,84.03332042706032,87.00481484551315,83.90465324225735,89.12875632881769,91.52397891379646,85.68356200596196,88.89546121370066,95.41192461149788,87.36113093593907,77.99414276852048,78.59550645755644,76.2258443401202,75.21095810757247,87.07928772767538,94.60405528192464,88.1744713064998,84.0178880231142,80.04573934823857,65.59703144064532,57.67591997973346,64.97437386776396,69.15780524913993,70.14030070480021,79.27300741762747,83.37710585660949,77.35297499879827,79.06981864622477,83.38397247971955,74.15193666017404,65.84572813413308,68.07656917136057,64.58597167046143,58.67014558300949,63.883456769365985,65.58101103859579,57.387474541449436,58.07952678887664,62.275547626780536,52.332238262131796,42.28327618774164,42.15315504004175,36.52212213793586,30.151223252671436,37.5406765797704,42.295440753173494,34.597953537093574,33.50378785398122,38.2196924974278,33.40667411090628,30.790583334892325,36.43894770672366,31.002340663112843,18.518985164322658,18.789216835189848,22.232704785266318,19.624859840194734,23.241177162566554,25.517802149090056,11.179348172671618,-1.486971459393593,1.3663360618578033,3.2660566032181224,3.6994959704087105,13.780633304164631,18.37885796492464,10.950158286332769,10.997095912709321,14.960526063193722,6.3297222279277205,-1.0052043525547407,2.6197390576539825,0.8257099305424971,-3.791166510968922,2.2670266929365304,4.590786793878566,-4.498087878785372,-6.353937470122352,-3.201684090840745,-10.945885954423483,-17.50561576423004,-15.285406292389595,-20.6612889816462,-27.657769048247474,-19.385963805236152,-11.557245464261598,-15.781355973914444,-16.165649964962654,-15.635977486776255,-27.841647525707355,-36.979751107034645,-33.91079640090712,-36.35934901652268,-41.407099307527375,-34.30308504334099,-29.211415759663687,-34.761209980793765,-33.81714108563805,-28.961502043801815,-34.27821830824615,-36.68283211210718,-30.55398119908383,-34.46551245001832,-42.96706459613869,-37.89361076232575,-30.710564275852512,-28.710470089969075,-18.063757081376714,-8.937861442677566,-19.040138339974245,-31.13802545214752,-32.91011030625523,-38.40109644858801,-42.20720032636427,-31.625133277853227,-25.014562775072218,-31.723077854954873,-32.37804265995031,-28.410431606414694,-33.99167620981375,-36.13482940221653,-30.064179611632646,-35.30038709020289,-45.29946677439819,-40.42394787951929,-33.7901993814351,-35.57730843911742,-31.38597732790854,-26.916743850409873,-36.11477232580388,-43.002693374021845,-39.51076657022775,-42.678961312568624,-47.489320541962265,-37.876023522294815,-27.27186201943612,-25.13338245688005,-18.27995049362044,-13.197200157662776,-22.755249291438517,-29.01087368772089,-22.27867598175554,-20.166476210599036,-21.405206887693986,-14.30879378992906,-12.457504504965264,-19.885335735060256,-17.6873951568476,-11.984712939526096,-20.063120803542112,-28.058795056556114,-26.44820941766037,-29.256067195077485,-30.438171877906967,-17.48193956094969,-8.930155863060616,-13.643035712236301,-12.994633836322063,-10.227366235268125,-19.38778461305829,-26.742991357243824,-26.049360173513655,-32.45352253516046,-37.76145809425559,-25.808917044146575,-12.265887762743448,-8.773579495607727,-2.709427607152949,1.4415888987759953-7.6457297904449035,-13.338368995434854,-7.363751292964611,-6.76732718332477,-8.5825978469374,-0.17542412172855437,3.8909890655005652,-1.941464239234712,1.1154963879495114,8.218337150870898,3.2654902277217293,-0.653596402644189,3.262967900350784,-0.8241539378828775,-6.272559908331123,1.3853050892462622,5.65565789589395,-1.6666293793653013,-2.471110122388742,-0.2682857780868946,-8.932909698345686,-13.612139764613877,-7.423644385590972,-7.888159621729876,-11.075186811766125,-3.9489005235212042,-0.2741921053745907,-4.788955038061898,-0.5395161807595139,6.11292865984268,0.3751313856955556,-3.808962002220627,-0.07943189760109926,-3.8036872179210794,-8.179516153675863,0.2892406006547894,6.062623016775167,2.9133366182878095,7.935130994444044,15.19475532844774,10.566294172472109,9.739236538436629,18.494606875295492,17.3849015844261,11.532453719705881,16.458132855504733,17.621343353495988,9.739220890008323,12.568919500066503,20.502141103918593,16.46625407165017,13.529395220989036,17.559119646165033,12.108595036576986,5.373215371370689,13.11949024783097,18.49599573567651,12.340565788765606,12.009361648881837,14.833987121625803,8.780721445726392,8.020637541380935,15.731999350242477,12.052411335530696,3.7672722922145923,9.195859998301625,15.683019306478258,15.45397459259549,22.466694460431633,27.735132048017217,16.65031668646697,8.161863131012037,11.184620249466498,6.8309833516312075,-0.36099706898787964,4.379752155630712,6.71765537732669,2.239891823761229,8.734915853520565,16.77832196967971,9.072687176733794,2.392360243267597,5.705322941974055,2.4519014520021067,-1.6635487063495558,6.402880475239994,10.017315355881514,3.269338499482413,4.1433759230612015,6.74147185906476,-1.8946771974786558,-4.551442373097057,4.460530181439088,4.600519996810073,-0.904782221114101,2.1865128829286733,1.399739623270261,-5.6529687262542065,-0.11526777125316201,9.441631749333395,5.0626481665153955,1.0762098529545359,4.523567898592216,-1.0695445384950961,-7.960878130601001,0.12487018445857867,7.944999308033266,7.188646032520422,12.671347562707172,16.957842811323793,6.639638682941779,-0.462823131275963,3.729738650312115,2.6932791549594794,2.685615600828544,16.498323308579405,25.689303258714205,21.826111961831003,22.230813243241116,22.684579316573107,12.528093321834374,10.134222678330197,20.277408173846965,21.16561540090523,16.789493091478167,22.235676439329957,24.15816462691132,20.963851567178295,34.92742087653606,60.51911332468062,81.98959318274902,113.902315457097,160.25081917038082,200.60885826710492,236.13035578520206,271.47022957879904,283.73191492709617,268.00706133272627,248.24648133451774,226.77208710418913,195.94940842853816,170.59476126162915,152.69720184553637,124.11779138810016,91.35459968889408,67.79822561604219,39.56640867809902,3.0833120439731108,-24.034123593409554,-47.208125181916394,-78.85146023361347,-104.23656991195722,-119.275585298783,-140.92084907427358,-162.0078216849738,-169.65950899387843,-179.85767654030707,-197.23033463057374,-205.11912476780202,-211.64836538243063,-230.16809957961834,-243.4874325067693,-244.3357429054772,-248.06058862409435,-248.3220520145876,-234.23455158571488,-223.85622718959644,-223.47085823712013,-215.0950733605769,-203.77307874649185,-202.78326607866614,-197.06368437165236,-182.11415742952124,-177.1240180998745,-176.44814550591454,-164.85796745874697,-154.96195861434944,-148.7960480564739,-128.6601474894182,-105.81414941811374,-99.12636597893683,-93.87711430086868,-81.59078457607988,-75.56302764965054,-67.51151687714236,-45.88186322938125,-30.289049874262602,-27.86233914938989,-19.637677634604987,-10.20253247413978,-11.986369608902677,-8.671397697296854,4.399819216093297,9.336675577983431,13.240516939057759,29.275054607245554,40.28004145278826,39.83861005030686,44.83980173280497,49.528688189907164,42.630865085689116,41.210397306162854,50.29237937172887,52.186698810260516,52.485786971679175,62.83120171405915,67.07367800810314,61.17864875129583,63.86897993223644,70.56674664531576,69.27292920084993,73.18041583442218,83.17231681296059,80.91664291222398,75.05587993084437,81.21433999295601,85.51241706783202,83.50085136769354,90.71107894349277,97.92742857040388,90.53812607968598,84.02922070458386,84.7014071408336,77.92879690781487,72.4501531598514,81.65459922944066,88.26390217537029,85.36257540737836,89.22356393449842,92.91062346047687,82.96593919705498,74.81781250776909,74.44580979919117,67.85514071808997,64.2660904137454,75.25716507201177,81.50783060166702,76.39306018482648,77.54413272181188,79.4870825724744,70.24488226747289,65.06921277703667,66.94910284741509,58.48759988395619,49.51130016888876,56.0845985198103,62.429423227828224,61.84123699805473,69.10815017745023,74.79208198448167,64.67319998215926,56.21761164168957,56.69181871567156,49.46133476861538,40.86135165848306,44.15627212787059,43.80311117761247,35.33330873028426,38.09034262469877,46.12269720356964,43.12480879028614,42.14420150264723,47.52369558013772,40.929655444690425,29.28591725610177,28.463693099729962,25.001598659424847,15.693298447003821,19.983683459826807,30.641691037768286,29.808002538619377,28.021604959004737,27.889438466047487,14.141578388557576,-1.7310034459025783,-3.377920719235755,-5.513712825398776,-12.535163922494576,-8.557013433021549,-2.6759281657362433,-8.849290032281273,-11.97372574958822,-7.193002880674467,-8.852473620483332,-8.413711981600128,3.494118062072009,6.299672887887352,-4.700610372066717,-8.29264503570893,-7.295295895274785,-12.84367069254004,-11.103139166371685,-2.2509172666213297,-6.232223195721835,-14.657583666212187,-12.636284233365508,-15.235914866930347,-25.992327887804656,-26.69365441569677,-23.646675587466436,-29.569049121000088,-30.197112090611913,-23.326901050029385,-26.72731874592435,-32.56424964898269,-27.24963722970236,-25.178333961506095,-28.846432206034088,-21.188932771348853,-11.57431791968861,-14.938629107509398,-16.927559426231344,-13.963166113880597,-21.51992206119768,-29.18770841901961,-22.99335613030972,-20.309642620172514,-26.988140379351126,-26.306215414225356,-25.493920836709872,-35.99472055349734,-39.613554554485404,-32.368600693248055,-33.91485436096716,-38.542987732282896,-34.10922711045605,-35.41681625733453,-43.08973544939598,-37.76099209408031,-28.35169167440465,-30.027704034926465,-28.80041695958446,-23.65798397533547,-32.74734326570623,-44.44456358203657,-41.52956136934399,-38.06602059377725,-38.14974903649332,-28.47231952073701,-22.094342652514296,-33.58778380586859,-44.09031644887745,-44.92181641598994,-50.33719087186842,-52.01814991547615,-37.615352703303,-25.623760618298785,-23.85842391859947,-18.01628398645965,-16.24966061209397,-28.351259197992515,-33.7354827071161,-25.91627340185172,-22.534634388827623,-19.663707512637902,-9.338288733783934,-7.726297165859067,-14.434395270085913,-10.214006985607469,-4.838878566411162,-13.635251419383357,-21.5872082787257,-22.689683304589884,-29.0229685951106,-30.6825784932524,-18.592333542677892,-13.401439832358943,-20.060979309195858,-19.0702576765907,-15.555745895156914,-22.024292796192697,-24.289334032107604,-20.16631048790302,-25.74592881298287,-30.356701516672597,-20.54937694011226,-13.91829006809401,-15.435713526977462,-9.003573939812853,-3.3313432974981736,-10.159991771817165,-12.448674527434811,-7.655594205236818,-13.815535070561157,-22.047975009868026,-18.523169693873186,-17.989102147950604,-22.82715947672985,-16.251752964614777,-7.126189244448507,-8.98179416694435,-7.8000796725235695,-1.844120979153984,-8.305875529911816,-17.6236410171271,-14.422163942567547,-11.996799171835335,-13.21931857818682,-3.8011407970206945,4.465339826677433-1.777718700953863,-5.32269626914391,-1.9653451561672004,-7.563882518442395,-12.865078147676842,-6.015506778027633,-3.753577441291806,-7.968851802575891,-0.3487429717081145,9.586915713626027,6.791837023582403,4.655312378923368,5.393907183433024,-4.752269012230554,-12.478381947969542,-3.3059111096952662,5.056267848524927,6.062704739594222,14.290002791388599,20.93618618792776,13.35902137839444,6.8346397557010325,4.7286255303411435,-6.937988504077481,-15.219274923810298,-5.826429442886177,3.041520893296988,5.292230787610268,15.853669822482377,25.321634681406707,21.213301575796706,18.606211925604626,19.182710199426683,8.180917924903865,-1.0919976332186891,5.6901085439364,10.882488078551898,9.338836356970152,16.02409339764489,21.72332483911273,15.553287801164778,14.327682693620176,19.62452270845287,13.559377234877795,5.058347402313851,7.611353235941737,6.619150932148313,0.07926065929765347,4.92630391721894,11.64190633108953,6.872828028253373,6.632459031268225,13.596120895171454,9.322364076517719,1.0474859565221886,2.537129331976155,2.3422013104379475,1.8943938109457006,17.321457305169567,33.404729110735396,30.80331002988671,23.75416147394437,19.06168184046625,6.82448723836206,0.3069682413174184,10.107666762119408,16.251799585272668,14.458140547151917,20.7217358181248,25.386855840906634,16.977160554914185,13.03948442409527,17.174851551783725,13.978821056388929,13.118057690000647,23.62610843018724,25.07493850163235,15.516233442993027,15.616013025959877,19.519021512084148,16.775495991714052,20.951231433565113,27.712706906263023,17.072048112713357,2.585392544955867,2.9942164740929553,5.064503486854349,5.575378687011459,17.43189792309953,26.172058837458337,18.269836246402914,13.098291008749925,15.596971636345017,9.469757980202434,3.804906621077294,9.828489450142072,10.188921590596586,4.01668934864368,11.578992087029059,24.716061305192742,30.296437563432363,44.242428554097394,68.56570662731515,87.80562209936251,115.03104394843201,161.33306699705378,202.21406953202856,227.23176836781542,247.98035618724592,253.0444362880836,233.59277636290236,211.70831387444017,193.75215871019157,166.2340083880326,140.74990146988887,128.4618944593769,110.17548149049966,80.59275477086199,54.97907466257479,26.493852987484416,-12.446139959064855,-43.69376620364143,-65.48542874410391,-94.69403839917018,-121.95976902862817,-136.0622273138115,-153.27964685036565,-174.52576833024528,-182.92908017344357,-188.46843886131794,-203.34109816061815,-212.5057920804523,-214.87910859465228,-225.92627322574927,-234.07405997282504,-226.76751809794277,-221.7769649761831,-223.0278984336239,-214.74527309401765,-206.98264757352388,-212.30044835744718,-214.43152033652694,-209.84712962701923,-211.40002535696675,-205.64908839500686,-181.43489089111858,-160.40822217299356,-149.77406777560208,-134.81210133155707,-123.02570139142583,-121.82202980912606,-111.99321420453252,-92.75986172578041,-84.28678359526813,-79.15563806205887,-64.95530033318663,-56.505533190643646,-54.64009130260751,-42.746991309712286,-31.54145170653039,-32.91780063704688,-29.766323933622004,-19.91335289280976,-19.398862310264157,-18.463934424946427,-5.6931338419765645,3.7899723444365248,9.696642855194707,28.02712131242931,46.8352382231041,52.11501734800288,58.56791825066885,67.11760114512683,62.96852605273254,60.27159733454937,72.75820179446892,81.67493904091641,82.07656278985243,88.08308250757679,89.17720869953506,77.459425287693,74.79703995922574,83.14965827703837,82.09011387320884,79.60240338349973,87.50610176150317,90.04558450677968,87.11341775403537,94.43488561534383,98.80728837449591,88.66404948532303,84.34049665582468,90.13938907114945,88.96158824423517,87.59828428225279,93.73666573358719,90.1418927690591,78.92508204237367,80.11995666836245,83.66417889668136,76.82924746920264,76.17108031015646,82.94816030301313,79.77613154519756,76.31804448511343,82.96118544269238,81.97217729747909,73.38428175963722,76.43799103900693,81.67735836568247,76.22702872523146,75.16627911759484,78.98571577134625,71.2078846507494,63.405389213343994,68.16308885209394,68.10636364612782,60.65790721071697,62.372876817590445,64.06502655581654,55.18038694737729,52.017940358935775,54.885444963895026,47.60296842509583,42.60351968430853,52.82264263732786,59.6550531183325,57.45462581270901,59.768124818439944,57.44618218962704,43.62959297040415,38.64571434707122,43.23740117907748,38.04088323393202,31.395395540840013,34.027295967001095,29.875814307760848,19.302123087632424,19.34382235476965,19.847934220528465,11.37382578812338,11.442248577099242,19.260791091808155,16.68951387617668,12.804660504917276,16.807794466928456,11.991637465067626,-0.03712020737954269,-0.5688103463682197,1.2184642047159462,-5.004636256392892,-3.714737810158437,2.750600921813033,-4.031368377289626,-12.431368715644217,-9.54147320537228,-11.4322863251781,-18.888777180728844,-16.10461404584241,-14.274580793499064,-23.764082367789065,-26.546877732667717,-21.508165118294635,-26.31422177358208,-32.02138417345186,-27.446242273164714,-27.528775097689312,-31.611865725227243,-23.16181390280188,-14.204171600863816,-18.607963444829593,-22.072054053642127,-23.466592525136154,-35.65655743736893,-44.240545100714144,-37.39280189580442,-33.87142193873931,-37.17073260855373,-32.43918804936814,-29.352496122468338,-37.0707732299696,-38.86171735365742,-35.52472712854035,-43.680895980891464,-50.090206685672456,-40.97343556508281,-33.65584254334421,-32.28088294111722,-23.99166574800816,-20.25361949522727,-29.517963275550652,-32.64494491722722,-28.664417936236184,-33.697622747113066,-37.182061236142786,-29.554059568483332,-28.27246245242538,-34.98899253285451,-34.56318399497583,-34.52570348826103,-40.59491685274143,-35.923379411466435,-24.24828285852656,-25.906363807517756,-32.085474165952625,-30.71712497114258,-34.15277621625609,-38.7596561865521,-28.031924997615754,-16.19657146640318,-17.59335644629379,-17.37648688686402,-15.918197528797368,-27.282544118269048,-35.64536045190344,-28.241193255858427,-23.594981665965776,-23.850885143943813,-15.549648411651873,-13.234922831746188,-27.187654733037533,-36.2301728106336,-36.48162529079609,-42.57549559652986,-44.29907290156365,-35.13252667987331,-34.9850814729157,-41.7475932431807,-35.68168951602522,-27.661821636489798,-29.333999627517066,-24.98664467419102,-15.809214497690968,-17.422801688033804,-18.459414660988024,-10.729890992593582,-11.67543582708111,-18.810660559725516,-13.65975735471217,-6.523496254496496,-9.440720511151294,-9.090615240016037,-7.356292938961575,-19.472836436205498,-32.24143051778854,-32.80658640974807,-35.7068598953268,-39.57551229867114,-29.09317076083274,-17.95460305127319,-18.397163763751124,-14.659034374597455,-7.141043426673068,-10.581215958434958,-13.09653103921061,-5.1751350512035,-3.3734121697096024,-6.263142194751561,2.6668427113260846,11.316127097787993,7.414512056220581,5.941224208940579,6.588916693086422,-4.867537780636631,-14.37886260492924,-9.829026753409687,-8.56013961134314,-11.982128897843918,-5.117438023271391,0.164553901801461,-6.469637701332079,-7.880157721727244,-4.253506317742782,-10.71396268764396,-14.1121223820533,-3.741341283325425,2.82212199402624,5.020102836518262,16.442615255225853,23.220797102227184,16.00908420016474,13.376217728278347,15.069685488618346,6.284867035234956,0.2383236191753466,6.117896888975093,5.260042884590842,-1.2333231047240947,3.4957713037456806,7.360721732893234,0.5657344615918594,0.5378345191571379,5.591139037012367,-0.6924629386875827,-5.307995264433577,2.4558334042036667,4.6046141782706655,0.8038088756179289,7.199578537846862,12.5363414137985677.221203024300301,9.113787397239001,16.87477837003937,12.358288308413893,7.332445799943551,13.05862168000008,12.537474550586097,6.695159339001888,11.175566231512276,13.551524296208221,5.76882181730423,6.826221659955333,15.07422660885586,12.935839070806995,10.631792631189738,16.88084717821544,16.015183328278006,11.480959964129415,19.710813935298198,27.681036447993634,24.58038377468119,26.717713810586098,31.78398854384442,21.907263891378754,8.700016170661252,4.610267568144371,-3.542532485781345,-11.238221121109504,-1.2365044158075902,11.95044149458899,14.184145723531751,19.094167950857152,23.65061144821092,13.139409666781733,3.960902910282599,9.14259703740464,11.961672857692065,11.56133555290127,19.349796262007114,20.318682488866184,8.287247340006305,6.601341345948372,15.222695694762386,14.469392531978695,12.817371150134411,17.9619181301271,14.002079744930219,6.3832763449335514,12.220513514637844,16.382640582604118,7.181632157501837,2.999726580782676,6.074100552530754,2.919451404678788,3.5335022420483897,12.617682965967306,10.30396973764149,-0.6101096624161308,-0.12465470027064862,3.2375799066286373,0.5479141819823927,6.077775370150729,14.493722865614945,9.08503781673453,4.258589651823259,10.822047090328262,11.940364723854982,9.372611777882671,17.849312246316867,23.539492588111386,16.872013461509162,15.014832308567092,15.36041834698678,2.5645558523647822,-7.747299731270297,-3.4657136836157205,-1.454460051114688,-1.5624187138769652,8.653261639842913,13.666290983026183,4.745129650089055,2.322112842881409,6.539871828472549,1.6015561611422817,-0.2958704429583742,9.233233586876114,11.406395728437925,7.2488893108596075,12.490666356984855,14.277958043637309,3.576051664912999,-0.9937171374912072,-0.014726547726920503,-8.459057619298875,-13.110937219139164,-4.953716724218869,-2.3647996704625234,-4.791030923288355,2.9866707174921125,8.732929629065639,3.1092931795157455,2.8418620010822573,6.091325338763083,-1.8281345064210588,-5.605808827044827,5.9553204263646435,13.638684212404804,14.94643741080924,22.74807526989633,25.09255517816513,16.6153399177843,20.395511203909066,37.895154364592514,50.90410484780933,70.34256820450575,108.52280080650559,149.02803442747023,188.50054027123116,233.65707358933832,261.5621215239512,257.41414729416783,243.28563691059432,227.657980267524,200.67383928848824,173.2678249756048,151.3544470846258,119.59998740765,84.60693146249926,63.16240677305953,40.95118979386744,7.300560225856981,-21.994169416335797,-48.03279831695357,-82.1210177015244,-108.78586291354313,-120.76040945801621,-137.50348855502364,-156.5227219341451,-162.17202339915687,-169.14258578244318,-186.59473431854664,-195.1516075647964,-196.4316035274042,-206.52309780443034,-211.93595334502942,-203.82888901634067,-201.1351776670106,-202.69011241669918,-192.7326574582437,-183.1409855900498,-181.67270761703668,-171.57984442758547,-158.04726877421237,-159.23276405644967,-161.47115008371154,-152.03425786096207,-143.79114259657482,-133.49241950773205,-110.9983819788269,-96.55083872031346,-101.26343560473117,-104.83156990977507,-104.35786183571071,-109.73922922685259,-105.98547034401837,-87.86374905534157,-76.64484288225762,-70.85024318994274,-55.52952708791349,-44.20231372197391,-44.27648025955074,-37.48905970631749,-26.941785350729553,-27.48416921633076,-25.249935162890004,-12.860956101574102,-8.200072468195428,-7.611594166062201,4.264045679849879,13.210298561796325,10.720771506066246,15.272176603912262,24.832135521738905,24.114401921598475,25.40338277806812,34.679201893145105,33.453307136237946,26.975957527543112,34.443922784622266,44.84445224459075,49.20486886452098,61.301857830156266,73.014912983644,66.36271672913125,56.962869044421154,57.43741684075313,53.80546534837466,50.62274344657537,62.02815924048751,72.19960266348652,71.43209597900726,75.96777981445952,81.03453709758196,71.18011182741535,62.6200292610493,66.36230951274425,65.2086106767568,60.54943511066368,65.25729064832971,65.76491531708656,57.42619963311488,60.06634648026809,68.31085885112849,63.260817431866165,57.24240412494555,59.70223965516858,56.03666882896044,51.86001016630206,60.926137794898494,66.62391330081415,61.372628594356456,64.50260537531659,71.85545060227068,66.26950879025617,61.18057302832335,65.10129534788803,60.96576404216492,54.21201246095596,61.50520614140979,66.94748019003528,60.370655032325786,59.598302354222504,60.86054202055952,48.58297686264321,38.71759449424418,41.93321930613311,41.5598086879169,39.52253314332846,47.7732570720344,50.675170299855814,41.0508748497831,38.59022486160498,42.009523492312134,35.856451676913,30.999198679028908,33.6342820636663,27.865974122712505,20.449766538048518,27.842536117651516,34.14053357671761,28.131882742749962,25.386092483189287,23.693997576717162,12.353613934670154,7.641648243490748,15.055770741767514,14.000660523093629,6.767766551196031,8.361117171563585,7.089119134542896,-1.894918030562173,-1.0135398053186129,4.685601101977145,0.1959758118886561,-1.1764208543586605,5.90968050832466,2.4513792893534583,-7.088451760372058,-5.460760957375161,-3.636461700470611,-6.4367709580173615,3.383080105144867,16.892536333902548,13.949005123318019,7.786188027902938,8.499513988306209,2.4869560877241073,-3.2499668575976157,5.358407219497986,10.243995842295966,1.7098153888747896,-1.08622944418275,0.14305200834051424,-9.06057819763593,-15.03294696346008,-10.60983153758388,-13.233149321287176,-18.114813988543553,-9.801336463757043,-3.2534196035243417,-8.024195216094308,-7.759737044254193,-4.857031770482513,-11.86397606735904,-13.972583004479969,-5.073345721738395,-6.009577693794297,-15.470958720621471,-17.591493253099884,-21.804592795541183,-30.951885644435507,-27.608927812727714,-19.290293078413715,-23.14899895522234,-26.033670395476364,-21.134422206173575,-25.13179666819538,-33.019422404973135,-30.196396422589764,-29.793173360388305,-36.796812592931396,-33.49136984600693,-25.944465291968292,-29.62295656979574,-29.91989512540954,-20.837945549946994,-21.938596834548147,-29.043411950740822,-25.61658504881124,-23.670031366913097,-28.817575404441875,-24.198120171062037,-16.954026764637373,-23.695421685225885,-29.21219900806527,-24.359171430524096,-25.16393692253969,-27.593381128124303,-19.523921129576756,-16.438148268717725,-23.712424763918932,-23.08455281651898,-20.092162094692316,-29.879290323476244,-37.78227066114679,-35.61081453557439,-38.19246475544516,-39.415768352695764,-26.743137905260923,-18.343020254983173,-22.969402384094565,-22.463016511518955,-20.21381445794613,-30.34059394179588,-39.06769129202208,-39.727324602062865,-47.9816811599089,-56.63107301997983,-48.81892948892494,-38.28041440192513,-34.83872996600737,-25.748363218978543,-18.608170227621226,-27.10128373206516,-32.720196161487216,-25.404744164799908,-22.635693564633236,-21.57699183362354,-9.729363110255743,-2.5468058543152887,-6.378828509821757,-3.508526913007803,0.2868208021115264,-9.570624035676612,-15.964785945460854,-9.21271204071833,-6.903242304214537,-7.500443173810485,0.5931163462454485,3.4192669498490074,-3.1214718634845817,-0.46768905130158367,5.584989419080429,-0.7670975702187026,-5.436693640200991,-0.2149581349942138,-0.6552174267056079,-3.292707020070723,2.678956225206525,2.126207446515398,-8.568042546405387,-9.806593740887454,-6.255967725642861,-12.606700168109235,-15.134195749337914,-6.885775094638305,-3.914699788810387,-3.2962001336232114,4.942643644626206,5.697478093884022,-3.9863368337458565,-3.2131277207660185,4.807755717073054,4.463599598953048,5.660035346096431,11.56079142858589,6.338726141096775,-1.7535957716133752,3.2108477587582125,7.6888198930489485.686835800140846,13.010056489640528,21.879762025726922,16.15864142788477,10.238830102825435,11.668954134280634,5.598811757079286,-0.11335127986620086,8.691841330269682,14.983890568934521,11.352847198305435,15.380361564521662,21.547058309944433,15.197902712982867,10.407216032772853,12.933482678782168,6.64046917175795,-0.8631036882081786,5.956691052997655,12.072152632211719,9.366076151716989,12.092932382166117,12.869393888491691,-0.2655567778772401,-8.044821450893066,-2.040213539077915,0.17978264237980401,1.0861460015514992,9.59721196568678,9.372807160723847,-1.5891645218463815,-2.1035776380909037,2.918583547030572,-0.916844125506747,-0.11135281631928717,8.470100388272934,6.523021989819002,1.625577589882211,9.98623095521407,17.529353587514574,17.051790133481703,22.79648148281251,26.974633128339743,16.375649678438556,8.676784396410234,12.443303286509968,10.686273029163484,6.991799142526165,14.205039482597648,18.936349565697277,16.326918958734673,22.182528291641475,28.259455783813266,18.900570512963647,9.89671979722644,10.265469313143916,5.4485589109882016,1.3285134295583987,9.533035345062963,13.309287401384637,7.809430713325266,11.70884219684137,18.16860683131506,10.97584712075042,3.8697268887671177,3.804871338024413,-3.225543750705613,-9.344450344428875,-1.8012217696547967,2.383933484185329,-3.3800437457625665,-1.5247027694964768,3.128903078024695,-2.341936425694042,-3.428303784699197,4.051718263588144,1.6949105364030674,-5.313642174872301,-2.7354003936002824,-2.7055859165607674,-7.243394337148281,1.4030215609809278,13.247073486427263,9.795384161328421,5.5281388040924675,8.882997865455973,5.666385544329259,3.1690553136244493,13.236634614457014,18.072228030840662,12.370831291332784,14.95388209994075,19.416307598969805,9.968592003115933,0.4547192027799798,-1.5175769473140874,-8.429196973767299,-11.167493030441955,1.8742639270206176,10.18035024763153,5.036424970444565,4.967230595377794,7.186697436450981,0.8660616386794726,1.2197299993542066,9.825501057520375,7.214452302511904,3.6132444377781714,17.34656171331531,33.67814885379899,45.99637308886615,70.07407560337754,98.46938669261174,118.3384626320253,145.93526698850434,183.90713768751775,208.74106736775718,221.0676397538641,231.91220735996598,226.89483258894575,205.111990406429,188.78568184187517,173.30041919550735,143.19817043473964,110.85918605542474,81.92577564099673,44.80131487892781,12.201597915869716,-1.744287766195426,-17.749361268992995,-46.18436329521496,-70.57896193154201,-94.24801183401885,-125.69882983680516,-147.1162431053944,-155.707213065012,-171.41241272003504,-187.7366299161488,-190.99628967547477,-197.1519299342223,-210.74858312836813,-213.65998922705708,-213.58301537347606,-225.80654316803782,-234.63547596185964,-232.7742105582268,-234.7453466091878,-231.9375924022995,-211.80929023678826,-194.15022083683655,-187.34269974598647,-173.47222490199283,-156.97082910833586,-150.29788201646318,-139.27214116639706,-122.04285063890376,-117.69836185106143,-117.70977087782742,-104.77456069772613,-91.40452645980915,-82.9563821705948,-66.55559977573067,-53.722907732461564,-58.968217910287855,-64.11985621650052,-59.89817786211178,-59.52418943037107,-55.616697740991526,-37.89099253043415,-24.23034409908704,-19.39627058466856,-5.986305254308382,8.732547980642703,11.012118706602564,15.553133372384597,26.4740547387979,28.459456377982434,31.298404204982894,46.9998028953302,55.785925693426336,51.88929617470645,54.475707048230916,58.80451688835029,54.55536373600345,58.23992953780732,70.2411066979859,68.6729882865386,60.41998451896275,61.48973386723324,60.500034734462446,57.318609590786764,68.71991723446149,82.00836853692101,79.71888199982786,77.08065350663053,80.8227305325521,77.06943680811241,73.1529376643429,79.46919983024517,80.39160261772557,73.94937306081265,78.05081870056495,84.47284678790695,78.59839104388807,74.76395935284349,77.40146612964321,70.69727166228377,62.761384806237764,66.73030297551833,67.48452144901759,62.116177058598495,67.81425793386055,74.85827489491794,68.8082645060052,65.5508629108818,68.56474076724533,61.33886235595932,54.07564969737209,60.9141112956282,66.25034775912683,66.55219756078722,76.43084152945552,84.1136744010005,75.95392814945082,68.72198394133586,67.10864281137151,57.05555741575125,50.06749868000106,59.32559896525972,66.05429705136584,63.23263798267877,65.93152741386373,66.62158659304194,55.73623185306057,51.33933351332411,54.892646642178434,46.752733894812934,35.70897839272264,37.18780046439008,38.294763376470605,36.37403835628726,44.38086744794613,49.08286042649215,37.093098636866536,27.043856388771978,25.634027534131825,18.540167088387335,14.320729894948713,22.20057753236941,22.189018547239243,11.655766728759135,11.462180958769213,15.210313400189698,9.912636809687143,9.019540438766354,11.651578701572182,0.6354244418749682,-10.704495086406967,-6.391745632394113,-3.513989864784718,-8.277105950111174,-5.81774065234214,-3.2579821544331358,-10.128349278182032,-10.722764202710731,-4.989020751799569,-11.263567139804222,-20.42752565241582,-18.910422309448816,-21.113226166757354,-28.78007488989155,-25.57386742191089,-20.825764594734622,-26.195131027544004,-26.155725741067293,-20.784064298000473,-28.16172133849779,-36.98101100967287,-31.979034266007375,-28.208131343465244,-28.794258488814577,-19.148126166012926,-11.51333084963479,-19.424179528472287,-24.968721958237637,-23.93972678634305,-32.97831472483997,-41.68428193365282,-35.50421336774789,-29.92229748281465,-28.258698571756195,-15.840767080845017,-5.785610456125182,-13.38174291247539,-21.145341509999003,-22.417025503526077,-30.48992352156704,-34.606435234545586,-23.673232808972173,-17.879650855700646,-22.981290084487295,-21.66090106012263,-19.724198769040033,-26.286828153135424,-25.22997476482355,-17.148042982713363,-21.508960151368782,-29.638745930662473,-28.018661128942973,-30.302418930541812,-37.66173106394155,-34.499229139736386,-30.458932215507154,-36.89399509057438,-37.25928972844114,-29.156343288928532,-30.057626526832316,-31.925915774960302,-23.61043768272896,-21.799571878852547,-27.398157640332407,-21.61630661543179,-13.870873818951118,-18.105945747695667,-20.545244455355096,-20.53796722690035,-32.68018425319403,-42.79954108776224,-36.0871026985073,-29.91690843539282,-29.756868482945606,-21.79044102005249,-16.292105048104325,-24.32709306506624,-28.450857311876916,-26.22538269816129,-33.370289033272954,-38.257456626537106,-28.84625477171666,-23.62640129928198,-26.01346768951211,-19.896390325964514,-14.880591949024456,-21.511514129753806,-22.553012114964826,-17.463834402171766,-24.0741212607312,-31.264677106425967,-25.735695208282863,-24.032455876952348,-27.370374721800815,-18.226726247058473,-7.564391143451381,-9.369476963454142,-8.536972634946173,-3.8540963921667557,-11.699214828726895,-19.757735938382915,-13.15195870943009,-7.966778065671527,-8.02408683527105,0.36701431905485027,5.146199337810872,-4.857388407620099,-9.761528994073016,-4.509589887467404,-6.1510709883472625,-8.669502830449737,-2.6448626856091746,-2.5354712671267703,-6.770206839958436,1.7235390966299566,10.004169416596405,3.1902401866163292,-1.0414346951226352,3.5547540122679804,2.883414517992873,4.5634272217719705,15.198651063147599,15.585507257598774,6.431054596837683,8.132849569105026,12.299764762209836,6.681126460937474,6.297194479859322,11.790483598100595,6.33121443180284,-0.9208947284114122,0.8335645532958282,-3.4644250739878437,-12.106729493809112,-6.544144164911147,2.690419604804871,1.5653116904238509,3.108645929231161,6.8586454679367534,-2.1227765367581686,-10.744937190470317,-5.791662024720083,-3.1002093994494464-4.215099771119201,5.840535242405478,15.258977283556412,11.450580246231478,9.71132325643893,10.761553112796696,0.05705576003910373,-8.123764451865268,-0.4054354112219487,5.204219252613885,5.871075245827802,15.70531693192293,21.165703783044926,11.281965802043633,5.9633120025788084,8.190107946271294,2.920259830900402,2.925964622883094,18.619257942068252,27.711172075467708,24.724724787373592,26.155108588796104,23.896673074456018,10.67925852891032,6.954616360946799,12.844011460919273,7.816737582323196,0.5632033690281801,3.795507808519857,3.1881320937857325,-1.2227111665124377,6.148140018284273,13.141371557310748,7.104384807529647,4.521767364786509,7.519728998730768,1.1160230515565326,-3.4217993283153256,4.794621237190755,8.234634666040568,5.249389828998118,12.033414828586618,18.428528139138088,13.0372579329025,11.204829704786341,13.094487545624965,3.534013033746164,-4.495236705311552,1.7250432005295933,5.508936934840932,4.880134559730766,14.19371817605732,21.661295102085063,15.88013942818835,12.362865854081381,12.732203527634645,4.839619176773285,2.2395080609585842,15.123807897845078,23.054018740272475,20.811483087776512,22.745976809372706,20.41188520778356,7.297574600734524,2.4582084768823558,6.166509578654274,2.3489137165481475,2.2309390093441026,14.78425481750578,19.53755661129476,13.159152265078225,12.44567462327141,10.614266278988946,1.3887003508392333,2.1075269311228304,8.912250996179983,1.521935837809329,-8.8098794193619,-8.118328131835153,-10.083042716525075,-14.072584009530626,-5.420764562957242,2.4822313933820266,-2.448959074508644,-3.533936228282027,-0.07917508280909313,-6.847575795152077,-10.787815684984452,-0.7599679013907199,4.926264542415643,3.65603698502872,10.073376780489571,13.426534466666698,4.438047259688499,1.1922832261573133,3.9867804301894934,-2.9913748686710577,-6.4582680326504835,4.9099362998454374,11.630306657578684,10.39943480704364,15.970060747676708,19.450218385475548,16.240778195626966,26.599183886613233,46.96609929236326,56.989677823383566,70.43186314463898,103.52575644015766,141.2206367479879,178.8673542491057,221.5453008845532,247.12497720437437,244.46174960922713,238.13517870542475,233.27491596202918,214.11026624094978,192.05048545470007,177.30954283160153,152.1336398292029,117.82137107625576,92.62102234672044,66.2011096367917,29.73215022528907,2.108119835725881,-17.680580823191264,-48.0513696529496,-77.13910196753189,-92.66433259301154,-111.51042129900043,-134.05029942261402,-144.61995584470037,-155.9472748758265,-178.47818334220997,-193.134641059937,-198.98405721582762,-212.49517231392647,-221.73242419350672,-216.11719054265365,-214.1120242445987,-216.13824064159937,-205.74835259432027,-195.3658097011846,-196.2619549154184,-191.1264053604164,-179.9967059286156,-179.25843215341735,-178.0701927009299,-167.0292038353513,-163.24895234293035,-165.17806190489685,-155.41729739452308,-145.25799251569583,-144.73227936911013,-136.1732287962941,-120.31302314697211,-114.63681514113416,-109.54685020655461,-96.4064410170647,-90.199609501791,-85.95488023313567,-66.57787674568289,-47.03801026027378,-41.75906603851326,-36.02270887778968,-28.51422188443903,-30.71066901405156,-28.241541734488344,-11.826606783545692,-0.6494621976274588,4.241712815955632,17.415340901418084,25.720905097338406,19.089806713133736,16.898645955080045,21.62737884054205,18.908775497353062,20.220846453467036,34.14508463808135,41.7410382662599,42.72405892078723,53.212626524479575,61.05269163028252,55.7912375256143,56.04071194709605,63.41853289466167,62.34936010082417,63.09887529116081,73.30479199173908,74.81337400143696,70.05691711183587,77.06729271287328,84.00153473342448,79.09337003971862,77.50187562929702,78.83549420507313,69.90386131679224,64.6576470579219,72.3521753396459,73.8069879907408,69.06869881319147,75.38172188028317,82.0847205190211,77.96742335757529,77.01002778929308,76.7606681368076,63.4804682096694,54.22665097641433,62.78782316674268,70.63313222794247,73.65357480663832,84.14933116665055,88.9754013789033,79.09173957656839,74.28131806753355,75.88238447865726,68.47440757241836,63.313527541964476,68.49198549481238,64.80247808971589,52.75349012824026,50.819077111366205,50.81120538177451,44.26164559807563,46.27755307760215,53.126510656916025,47.447696835608305,41.41793594956513,45.40314120440544,41.81573645937131,31.407185304601548,31.449985041515003,32.15141008905569,25.608698895467604,28.969311552576798,37.90020307871603,32.38704526363872,23.978783103166215,24.765535793600694,20.498449257416294,15.23185565738223,24.870629962044397,33.00643258006405,25.801591166387386,20.144293279315608,17.721992659600254,6.511660159019377,1.0788165460888306,10.382811061855527,14.480182820434477,12.278065629935227,19.430647745421457,24.75408867605873,18.608874995985815,17.654605821327216,21.01774730506522,13.267571213527502,7.107822531310415,13.0153577613377,13.437587099985457,8.241309221200236,13.188976512542713,17.12551486068616,10.538462555231252,10.068853587723687,13.606346082960957,3.4929309166038864,-8.145038467392695,-9.055960808409605,-14.351253489940165,-21.53279501528617,-13.86514342962841,-4.636708272006455,-5.764307312992718,-2.428507514672599,1.8955948470070132,-8.629459498487314,-18.651000291197988,-14.965005190575626,-13.018777598759948,-12.21625648820335,0.16614009106123007,8.29094745616267,1.159268449658855,-3.4784455115637236,-6.004051685159869,-20.75747537467805,-33.3947390312158,-33.018054294727804,-36.428053751192834,-42.59016256272607,-36.9078037637231,-32.87467086847275,-39.78257280404555,-38.637277489865,-29.83592934771954,-30.66269813065201,-31.205330372379997,-23.52848401595989,-24.269843024548425,-28.69361680829326,-17.9054204490047,-5.175752125872603,-3.920292238089753,0.17010349313051276,5.147582743900261,-3.821801665419393,-12.792257247549815,-11.365626949962959,-17.174043650227162,-28.914866198762297,-29.978953511637226,-32.026999171804874,-43.227150000423286,-44.36774268572823,-36.95027915549149,-39.00787622797066,-41.24341433665364,-37.12304314104343,-42.1467600506712,-48.16036588799192,-36.19576611379553,-22.021325714075566,-20.309696228149765,-18.054927639506815,-17.409573105354816,-28.737276168222568,-33.2149971330372,-21.45433341437648,-15.318782249317124,-16.68983767777037,-11.751762279222305,-12.361514838752928,-22.378269868514565,-20.0642387033394,-9.561799805396765,-11.900482731638784,-17.607915634451587,-17.106112414605224,-23.535324928787894,-30.11765291100457,-20.613123456245987,-11.858645156622194,-16.699045585634305,-17.356840529807716,-13.028656130636435,-17.984425200743097,-20.70247510646507,-14.573429927847275,-18.319667168595554,-28.822559064881393,-26.746964943083036,-20.76680752048512,-19.43701450469871,-9.219868100875669,3.1526171531614335,-0.942404452081604,-8.71297650986848,-7.928784602557272,-12.207147943958578,-18.11118452666755,-10.974140108188143,-5.397322250001162,-11.716715729679532,-12.505159513860038,-8.171248611969713,-11.80143393460888,-9.645437001002282,4.062167653411498,6.927916603366236,-0.8571163924824607,-1.0029995033495096,-0.6518859689049858,-4.609500428408053,1.5557366123083591,8.534735380747932,-1.4148745722883396,-11.012499851924952,-6.5762005960783325,-4.169990478673042,-4.3337287557808795,3.1242421668693887,3.291653513004118,-8.06896744724248,-9.168354476564705,-3.777048313341952,-10.773329461766746,-17.722521941072454,-14.56164988182801,-16.781908889877318,-20.103506445632416,-9.917389087373936,-2.4706143196418306,-7.593071902622877,-6.678978352886653,-1.7662243502156736,-8.146014538984193,-11.377731483504283,-2.6140894301854996,-1.0348626151642504-5.667983690005389,-1.63630651057771,-1.0615007007362047,-9.782617532670402,-8.26690144976618,0.3521685745947578,-1.9200128239311005,-3.744890939471593,3.6427429383363985,3.224159971109375,-2.110984465643847,3.606441260059705,7.275603616736243,1.0792898953174053,3.8590577836598454,12.65604005609387,10.1738253963271,8.05883655673501,13.918621068775707,10.706109489253791,3.6400247939901975,10.67088950510286,18.31385760703064,15.758160556133078,17.948892560668185,20.078470486486385,7.086659853878898,-3.754472738825357,-0.014156173163032193,0.9284774851501001,-0.9750372290813207,6.555174554392282,8.598813821288863,-1.2723201694756927,-1.327779766085652,6.8542475064633965,4.978604155177814,2.696873097754783,7.1226255826489115,3.423851666457554,-1.5554912414544897,8.500814143933132,17.762157797405855,14.648612734582303,14.784142744232346,16.100789492343452,6.54388486283774,1.5571318412528836,8.264136823557653,7.740214874713532,2.489394362411451,7.5235050972685595,10.7846338509409,6.560814618591932,12.22165377019712,22.059737108576666,18.844635710175506,15.47152395876249,20.951610838306728,19.95691301513062,16.86732409766191,26.238794353050547,32.98197725365264,27.664820174308236,27.55781977438832,29.733325647843216,18.708795739156052,8.397208645103817,8.449561445748525,3.0352030842767532,-3.6623486003681176,3.039601853141925,8.152808807939586,3.285560876068502,6.101242031736778,12.440214293654323,5.508690708868378,-2.298912764391366,-2.400015541780843,-9.209038666449251,-15.79443768551862,-6.100661682756701,3.722021779923961,2.6570502390914816,6.413350977330255,10.707056162469245,0.969608872051515,-7.3931081637686775,-5.125497044313488,-8.348305210538756,-12.70908203494563,-4.245297863179798,1.7389718865808024,-2.8463745580824114,-0.01497820622108792,7.52921027785016,4.588235286269322,3.4042969534775467,11.196490698902911,10.918560474874276,6.266625971692702,13.650338623111997,21.60377710991733,23.018591238471572,35.276873674346824,55.899760062654146,70.5886719413776,92.8561838367929,131.21953871299232,167.6032841526291,199.95286745374634,235.39649428443073,254.243419441718,247.47257765749865,236.78536498705944,224.5104959990968,199.28076440416982,175.13724849486863,156.67508429583688,124.32070524076877,85.13656984900567,59.88731549612244,37.969453473946324,11.275465928150545,-6.957214765018206,-26.091109955433748,-62.19983067183925,-96.74384216875396,-117.04185799383379,-138.45797129417286,-158.5311759995885,-166.4089141204396,-178.7734385233423,-200.7540608145357,-209.9512065016915,-208.8643914686632,-215.57769850553336,-220.52634744582622,-218.9266075003591,-226.7694950931525,-235.04952196256215,-225.00396514022128,-211.18270439130777,-204.46295952077995,-190.22135576545062,-173.47739271052495,-169.6526305358348,-165.3903032866853,-152.91990205793837,-148.00759044958386,-144.9909668193438,-128.48602394522683,-113.1967608251621,-108.11708302294775,-97.40539610354773,-85.52123790540087,-86.24214589514844,-84.21765824268189,-71.5649959880767,-65.78863663296102,-63.84774730514689,-52.3666071223322,-44.39015432580952,-44.45702620290623,-34.169745105900994,-18.856207402660793,-16.01996155478874,-14.591991599554808,-6.611164786600886,-4.682099131409349,-0.8860013638365783,19.000607218367506,36.89222682036908,40.59961774900379,45.12975779192867,48.182533817191036,39.74658164721558,37.97445653769618,50.273192391848994,55.908377371777505,56.03875199605765,65.00896568320084,69.84387184768875,64.86336196301849,68.62314612110195,75.95189246359232,70.04166259050578,64.59887351454992,68.30446011405041,66.18225659989106,64.42262492271618,76.7016604433096,85.02108762418258,79.30305234730355,77.5238381806275,78.14573999502485,69.59937430441249,67.53661655145012,77.08904302511364,77.95987376669548,73.87053496895854,79.88441248938379,81.3660628123487,71.63862974011232,70.7760888779363,76.23892103207484,72.6378287630107,72.37474041331822,79.78839798409304,75.34284876964541,64.85089490301515,66.4742718591086,68.46683799054563,64.22399885452566,69.13318444783368,75.84885651852761,68.51393019650051,62.46936111160765,67.11398818599717,65.74134074207558,60.62020850836551,64.69993617897413,64.3597758743339,54.19499108913393,53.25875177459825,56.89001077690983,47.990831122208434,39.518869061380315,40.45618859110626,36.1454617105535,31.512832500322286,39.85187754069202,45.31079281140106,39.32772552197812,38.77917321876727,40.708637825042466,32.83305605536819,29.91950176820884,36.97124513401652,34.35121723123768,25.74268041306512,26.90876175926736,26.761154413827146,20.87164632404265,25.705291756606826,33.16115328012911,25.90656460487133,18.332546986784955,18.414787198143305,9.605214808537362,-1.7737774966496676,0.6477349714629939,2.731053214469002,-3.410447764134767,-1.669765880961942,1.8290398678344348,-7.817720199016107,-14.308059909800908,-9.098942653835477,-10.950493239671136,-17.35971287028677,-12.8440869692858,-8.968021165940089,-11.724570235438819,-5.645715858336054,1.169951627746429,-7.744908808268585,-15.875241741229477,-12.535034647379359,-13.858986248895018,-17.62957750595152,-12.666397901898957,-13.607300912047283,-24.49794770104609,-25.736030088428876,-22.01479758933725,-28.96174548698319,-32.917645833458124,-26.650760199458954,-27.162205337010842,-30.250600979273447,-21.604860430092685,-15.655198855415026,-19.42820981523586,-14.847112712042742,-6.245370450639758,-9.423216383299978,-11.205918693587725,-5.261258063083483,-9.152555711953532,-17.626770653739907,-15.309527332336797,-15.106327657680719,-22.076480764821564,-19.316659291115915,-13.872305345022887,-22.433743086950198,-31.93893102825969,-34.40362846537475,-43.10656163847136,-49.61795848169772,-39.94666271344297,-32.73028186468633,-37.51800417981511,-36.16374081697985,-32.176079720631144,-38.75074267103229,-40.13918077523054,-30.790491587722943,-29.62037087544794,-30.87718787160103,-20.292268254526533,-14.944111948377468,-22.07706337546972,-21.980636612574465,-18.227025488132625,-25.70767824725883,-30.52525398458308,-27.401696806719357,-34.73453189337972,-45.64977527393068,-42.6954205312107,-39.30279220516207,-42.4502428235204,-35.84908280175829,-26.47488365499195,-30.625005861739837,-33.96804768804805,-27.980268537676483,-27.402451413334088,-27.14522805458733,-16.185643193750437,-12.013706550405015,-20.860490290583176,-22.642030569637097,-18.665714980339494,-21.398253766849876,-18.59011194706463,-8.12333448341284,-9.878048167520697,-18.105716815137505,-16.037990227553443,-15.710193148116387,-22.04868422570543,-18.07169666282746,-11.176676470177835,-18.520208676433004,-26.104271599497245,-24.83007814236491,-28.548932157917065,-30.10904290460973,-15.807399944678888,-3.767763576727309,-4.497317509935138,-2.2405983342681672,-0.9491164903378067,-12.43334479917038,-19.960561590716253,-15.715971246054249,-15.561493614056657,-14.300534879397592,-0.6721145641100703,7.14889117370219,1.6906815748972561,1.3516363457237552,3.1323005374636956,-4.993130029368428,-8.637780769520552,-3.9793768427478966,-9.426995082540316,-17.940700831136173,-12.643006639216733,-7.383139360493761,-9.878014995766703,-4.459810590313133,2.3333431626599292,-4.646438177144722,-10.101926583643571,-6.3339451144485555,-9.53712658341413,-12.522132749686746,-0.16517332691176367,10.327321686445156,8.985929210150777,11.259585629101727,12.827123057538632,2.9544590868858616,-0.7283539913192945,6.988084710165145,5.063949759013094,-2.551758190553578,0.49954937452774484,2.2023359319952225,-2.655013819279991,1.6619386301439762,6.8764945764168575,-2.2843409777482875,-9.951004068936264,-8.321451885851314,-12.954175015730494-17.142299213729885,-6.807557619486808,2.5821391506365026,3.497620709878987,11.333352831274821,19.41254884759576,13.163466204170991,7.665178527824228,10.481548094528042,6.471672990642385,2.688886785953657,12.933772173571642,20.030514299574488,14.906571378230149,14.113761232708956,14.675745919949344,5.4214454873284765,1.7662341892284459,8.612928575040227,6.939246391589741,1.3531305376011158,7.381075705445912,12.990134452402259,13.116983999910184,23.086741547750027,33.56302128577928,27.261248242854567,19.2298697914485,18.884884336391135,12.665456711020262,8.255498528892005,18.637970252896093,25.622597299264694,20.838401988197347,20.95367206252803,21.13177249776726,10.195826201861795,5.528522704553837,11.632403746807467,7.900542146907899,-0.9887821281757279,0.34888411895935567,-0.23193835248836814,-5.549333116451342,2.1172776905483928,14.13615300320697,13.541132315359246,14.308604268269193,22.132571945168376,18.63677889104168,9.135024156425734,10.292719749481224,10.868065768539115,6.379829844500038,13.28789377829589,23.26038693837578,18.764180179545267,12.702418686615296,12.099666788957315,3.4683705438690624,-4.049702564126037,3.7641234514380684,10.988101489582071,10.6582180597326,16.786393870799305,21.116475032600384,11.883756064766064,7.578706198002967,15.064357081921537,16.176518482236354,14.61511607180758,21.252490259185066,20.42166384139953,10.404136533881404,12.45835279886865,19.464811679140166,13.877560037189323,8.874589261267532,10.329957912170832,2.5869022657342673,-6.667420254114332,-3.343693749895278,-2.727476024094801,-9.42290060962398,-5.0953398240791925,2.995699242751436,-1.369864333895594,-4.553374698937483,-1.7649510592620816,-9.65654791869422,-19.2189378877697,-13.673470659952425,-7.073004708870579,-5.921936336501506,3.592767141034225,11.22418827841356,3.2797389903998813,-0.33398452366787035,9.249928951107002,13.06543166066071,13.368493789159356,21.9538626176833,25.50943278423528,22.810248510559557,34.14256475976138,53.83764301765271,68.16003597728536,93.37424156348722,135.94468366274478,175.9971418632815,211.6866305718405,246.84979906746966,260.3351978149387,247.6828799977842,232.5835649663147,216.23149003275978,189.3997153034044,166.40458015565844,147.73095010731907,113.35374124881031,72.32178198346614,43.74623670167071,16.453404978400457,-14.519984905224007,-35.17738560408441,-56.30651805965897,-93.58238457463861,-129.25472440092807,-153.33230290945284,-179.29674771114253,-198.66386855075586,-198.71346002461337,-198.75523637037352,-207.58481782272688,-209.2205993954985,-210.11186935919028,-222.8212651133966,-230.70155004330218,-227.7538717199437,-229.75133904038353,-228.20630633114092,-210.0865465374743,-194.7700964490867,-190.62057849646422,-179.69346198245708,-166.2847468174797,-162.4277281745372,-153.49546667233244,-138.2279356941748,-136.63055645834098,-139.9775200199046,-130.7543558539223,-122.68459528575517,-120.33235666929173,-105.60445183174716,-85.99106969000148,-77.5872702772119,-67.61092815038415,-53.72450082803314,-53.239851245871535,-54.64014270551692,-39.98285768721347,-25.536151907432377,-19.317720933462493,-5.890225798834985,6.705846622264836,4.354404071835142,3.84619544931181,11.260411204584845,9.216896872188705,5.871620925309877,16.21182025625136,23.043847242842887,19.464963986469666,24.10068218675514,32.499458055795756,31.919796238346308,37.962520386189894,54.0592475843588,58.98838893394973,57.18478620775245,63.76693280319083,66.48515942932963,63.23942291858412,72.40550527456854,85.17646493444812,84.73921451806332,85.16813416597134,91.49968179924014,87.18689224578978,79.82556092496745,82.52289752277244,79.96832883159058,69.75594932464156,71.32495922226848,77.42898611151203,72.72471813076695,70.70555684649483,75.27485517168054,70.41526377978569,65.10823359832276,73.59472369107655,79.03723740530705,74.36785386815417,76.05498049915394,78.60897469348474,70.63893040808331,68.42390872512058,75.6049424887691,72.95350243323988,66.0401994622765,68.58106354691328,67.10878411700362,59.15066592443836,62.69886383509502,69.5105910948263,63.86997738889206,59.613026719838125,61.05339259123559,52.16885886578578,42.45846724046525,47.35754965545907,51.423612926345875,48.58889897590062,54.83180728914049,61.902754476109344,54.96514746747387,49.561305209213685,51.25780028545216,42.9562515935086,32.24627626765901,34.11855474980455,34.44398850325234,28.809227444315514,33.001847103785195,37.99130027165094,29.905360961922018,25.43200768719044,30.88343989679227,29.314095745300655,25.5122289654568,30.57265152281035,29.164727284295857,18.77388999371425,18.943586518336932,23.810115051198974,19.944768601644085,21.383878986514546,29.46857053570046,23.858811903819504,11.27433478599481,7.738002850832877,2.4846732273482277,-5.1885253471974755,0.20633161764690566,6.1333375670108445,-3.120563426529054,-10.527159643937308,-8.847908335384469,-12.965400504492825,-16.661641136340613,-10.10163929120354,-10.287641947627396,-20.52172369969957,-20.94549459873511,-15.48621354848198,-16.75653142717376,-12.272919973102388,-2.2726643393350368,-7.558445460813507,-20.266802587351087,-22.09216794148017,-23.268154844766205,-26.841893414918044,-19.50783609496962,-13.420790370117064,-22.896028894716423,-30.337890113766974,-28.99618386429963,-34.20168192538893,-38.15817149216966,-28.86552943117757,-23.42812910709305,-27.07078681786593,-23.38892747069499,-20.052894296196133,-29.35175225046452,-34.13574557313222,-29.485289507534578,-32.41164289350461,-34.809045052765086,-23.78876635167437,-17.518094672579124,-22.158716804740344,-19.515979742887623,-15.123623637985721,-21.524459738967174,-24.12290929263777,-20.887762344262303,-29.610576916697777,-40.08867742303788,-34.89108825343162,-28.345479581341923,-28.083980080929393,-20.71195543709156,-14.716322375158622,-23.061494100660457,-28.86684071085242,-26.209343622645072,-31.479774938220647,-36.838874812310905,-29.006703382248194,-24.182095003976688,-27.59723959303075,-23.10872277977247,-17.470345960795363,-21.98528312619242,-21.628571183938107,-15.541045140146451,-23.228018382819595,-36.556084640795284,-38.88263972692229,-40.29765702824394,-41.20231271587778,-27.145823835531143,-12.58382886567237,-16.045243730144133,-23.05057071455337,-26.187575635413506,-37.22176076911435,-45.0660588430254,-36.24052268479074,-28.474158302152865,-28.78990194323223,-21.826683055543032,-15.214659147086028,-21.33543782016087,-23.766153466909287,-18.048755009852925,-21.079015834557648,-25.15202979810263,-17.49573649267893,-13.164837751441606,-14.919763270533998,-7.40819718727222,-1.4403197277887927,-9.95702320391598,-15.617299640798775,-13.375399722472704,-18.457683372802943,-22.3443948170599,-13.822283585051986,-9.702074905114952,-13.024911399794833,-6.611498176817497,0.4694805065110179,-5.4559989322612985,-7.902425314401516,-2.02726037495787,-4.527244534849384,-8.328430633013427,-2.364320544280851,-3.027277361652048,-11.70775275738539,-8.747317269718945,-2.3189556480022797,-7.597259888328184,-11.082697822815907,-9.544455014320903,-16.850102020431077,-20.558948376480245,-7.169861046262893,3.863997150571851,4.680830892301639,10.03728501842259,13.001989237607571,4.606213386734668,3.281998011299594,11.466249865512264,9.318652806609226,3.603710825568249,8.417712400151855,10.051667619627732,5.837956659838561,11.3685604142844,15.736052118970957,5.78788726056548,0.12376417293287101,4.46604854050825,2.35952815907551,1.0598001664551593,10.910057277523956,14.576859134489222,9.12693589721753,11.355528102374791,12.799756894548972,2.2939429676194427,-2.8639260558226085,1.414881567079719,-1.620115730727962-5.414971880958436,0.8887672729335896,2.375283174927491,-2.596938516977775,2.7476034130793088,9.40136190208665,3.873030826273418,0.6921504089748697,3.3036660363286012,-2.646208537640994,-6.264534150344934,5.269875071433493,13.759692227303479,12.233300749784846,14.729479592506612,14.092831422869372,2.9770133968954156,1.7984242937226664,13.199853461642075,15.485317445543817,12.875000822558945,17.621410635705512,16.35202039037612,8.600690764456932,12.086455541654797,17.394215494777455,11.170006226391592,9.337438554659744,14.70986674478728,9.78653064781712,2.6050319391997396,6.075656083020121,6.174582913740883,1.404051285472529,8.158167105184425,16.322173081926017,11.338156450503083,7.615098393519093,9.150363695118422,2.364795062132211,-1.5485946713356225,9.255408622835912,15.868247436151956,12.69500930129201,15.553348253466657,17.613697902517302,10.001133222479694,9.240310301127227,15.121002981440231,8.75389553130278,0.1153005229329116,4.17842164420938,6.215411338606361,2.5965967416522435,7.832717164623534,11.47388772253042,2.671034279551515,0.3889093688973925,7.130949282591237,3.252403807964443,-3.1788332710918015,2.081456214955481,4.642596719406491,1.625874491909421,8.129323036509007,13.263124188294007,4.468695210485944,-0.28241138607502425,3.194241091941061,-2.000426381375058,-7.459677308049086,-1.05903944823678,1.1444771280984614,-3.613834232787958,1.5974607467126818,8.547489224352347,5.215176713680076,6.290663149147694,12.060641875321144,5.872914254959476,-0.08677864613230168,8.280429752533532,13.614238348239942,11.422247977077223,17.049285836373944,21.160070436815896,13.322974373287837,11.500732436436088,17.07565903786038,10.933172191563902,2.4539862967270043,6.098932223403255,6.725824147671192,1.5625010229690228,7.3562471156876805,14.368292512481922,8.829180185291992,7.067506618586215,13.082551143724766,10.34742426338257,8.591858897867539,22.138634001197914,36.59451531717829,50.72345626047706,82.71604401426322,125.67409908616888,167.67957306066933,217.58061642921672,265.6615351284456,285.7192262327958,283.17503870413026,274.72479329558644,255.25140281898484,230.3954132732465,216.96573735055006,202.64470657295678,173.6579167132966,144.97009637196444,116.90459525189493,73.15732581851452,28.180178461775277,-0.47060639961058115,-27.008097948850306,-53.60619964715771,-66.4447875519568,-80.34057451455416,-109.09337842765316,-133.61916382857453,-149.18646811116133,-171.4473291627241,-190.1027475964189,-193.7538478259188,-202.19431449660289,-220.1409863398468,-229.15203421682793,-235.26300038874575,-247.42649578234952,-247.6723504596833,-236.43408563514234,-235.8187302371845,-238.93845193748194,-232.26737747432918,-229.48503255556122,-230.502279065023,-217.8966654949557,-202.7827037212707,-199.2203426982772,-191.2925375153468,-176.35147780253595,-171.49477367489396,-168.26104378452817,-154.4823185987429,-144.710741181036,-139.95315577875624,-125.15022850679301,-111.63818487738202,-110.29619100923699,-102.96613806504315,-87.0179151964028,-79.27361961969808,-72.089422294282,-56.195160203391595,-47.43504380897351,-45.06684087436657,-31.9918621904432,-19.788919826632267,-21.32221811013396,-19.588537662659274,-11.740478339630052,-13.376295244822902,-13.469449363423838,0.3058351676619999,9.995088821104847,11.848717300189708,22.29536108365818,32.00661456266612,29.78751332135042,33.28447889949108,44.62151706265173,45.94057813173049,45.85733938294299,56.0837459356615,60.833163813823994,59.08818404105766,68.2696546317295,79.00642779748782,78.55779756645764,80.84202922257111,85.87461633631757,78.71755035935414,72.6205498554055,80.76099080881772,86.43824333937275,87.38351425918744,98.72576152528026,109.09732762651531,106.38958300998642,106.17127748951168,109.00183557577877,100.09080095300783,92.88082664474074,99.93713407910795,102.99901213634939,98.77223427905129,103.68378548016919,108.62665821741544,102.45605819531681,101.27709424617129,105.39791600459296,97.45185245918016,88.55693861804463,91.48245446181416,89.2628680346382,80.34026927018407,82.93463888037856,88.07705724681857,83.01074523892575,82.27769055934709,85.82989965087661,76.63268934795002,66.25313059088921,67.95158532924276,65.23576995189896,57.14656193792155,61.51291444405304,67.66447812834029,61.765086788415466,57.673624648459054,55.72002174182669,42.96050553028862,35.11765701144935,45.2337691390063,53.784092144276116,54.39867740155141,59.23738899438213,57.92353614792496,42.74229628356507,33.924965942876376,33.850898930690164,25.55760656873867,18.817316328860052,24.23381805216827,24.63797379834505,18.94006507544764,22.45973618636401,23.212987420457033,10.87152456126318,5.127230506370252,9.75971412706861,8.90654071906086,10.07955251519806,19.9633024307118,20.2514148874263,12.142121105864517,14.794386576532453,18.412308196973203,9.98890105294985,4.098952875717683,2.0665552347470357,-9.79741169899885,-17.81537580389123,-9.972689347734624,-5.418209493864438,-7.465160819884545,0.027441763827123822,6.304867262761075,-0.46945317493138417,-3.6359658549853737,-2.977485965862617,-15.27834001438919,-26.027493172601606,-18.98896247127864,-11.456281424196373,-9.335675865470312,-1.5450917533182902,-0.8809541111359729,-14.469462042670592,-19.38823513427107,-13.421001578885138,-16.24178386621348,-20.51662355009457,-15.836671141880595,-16.94921079772005,-22.05389423125804,-15.112989788490765,-9.92557226389251,-18.786127858404615,-23.335272539499936,-22.144398157909027,-31.40555658648511,-38.586170612916554,-31.501623088936668,-28.004903917935863,-30.94329965561276,-26.112366236442604,-25.413756959077432,-38.639681434482526,-44.91622453132388,-39.66473999285835,-39.57353805055904,-37.98463896957257,-27.996047925789362,-27.916882538988773,-36.81156536430929,-34.707488896835976,-29.915590318153924,-34.287548319735116,-33.9885362829839,-30.653404842689426,-39.87640336652531,-48.19610968692766,-42.96178214932047,-40.283666230671315,-41.284216583484664,-32.06345792735955,-25.088125719569454,-30.384833944635623,-30.04118835289026,-23.42050477746834,-27.062257746015636,-31.54723797230311,-28.23260186356187,-33.302287935111686,-43.563567210171726,-40.03558670404958,-33.73233131100216,-37.94124310716173,-38.713100258204875,-36.56743669639432,-46.312722419849045,-53.42187339310623,-44.95084758450933,-40.096159086399695,-42.18443112278455,-35.21546491149057,-29.62902529792908,-35.19539172834753,-33.598727708638165,-25.100569149535495,-27.76035231610568,-30.77682395648719,-23.008952415304368,-21.19797034848694,-25.506753235572358,-20.543499514584738,-18.4879130300417,-28.82034853237941,-31.736619394257886,-24.999367667875443,-24.927188686728307,-23.27291198188355,-13.8207534614215,-15.235828553605684,-24.427975278288486,-20.544619243393758,-13.51940900811887,-15.880244710947103,-13.992963438564445,-11.040438042876124,-23.059613967708188,-34.4455613651811,-30.203087833065965,-25.760471524576573,-22.375987090589987,-7.108604802750694,4.513566170852533,0.12405139512827557,-0.589727324418728,5.725838203767333,3.2172519791846637,1.7806923720332553,9.93396361997654,9.274731969695866,0.9392827974254789,3.702870811490208,7.846758371781614,2.784374295123417,3.797016839079853,8.321589283990342,-0.6961432793353008,-10.345040392831622,-8.33847397715736,-10.02308382541548,-14.171571667324276,-6.087860364622702,0.10236085245502924,-6.710021253343635,-8.250308017565711,-2.8034336899613024,-4.217627041913104,-0.6962801314655778,14.39475810287115,19.275155810887615,12.41910741446706,12.464045650664591,13.008860947399395,6.8563368228870685,9.820137692662263,18.42863123016671,14.35931383617198.767828184088144,12.634632199472959,9.765199987433155,1.9997607097251364,7.5466457595658865,15.705305926680854,14.594155289540145,17.320627586202736,20.361698557586635,9.60789134774299,1.9732129951217177,10.2481381711458,15.56258988095335,14.734474301530424,21.158496189834427,23.355144104647806,12.953882905207182,8.275654247423855,9.624973398240295,1.4652490511935548,-4.279134609441773,2.83147039253871,5.397664461660731,2.6092321303001262,9.941731293219785,16.54095158449627,12.044366725111544,12.12547967017872,16.035482058036095,9.007078282329886,4.080635384698462,11.084078863045386,11.748317570542667,6.656676482878046,12.418073105150055,17.529748360274077,12.09433008230964,12.158217339747145,14.917965569165668,4.760901553288915,-2.681885183956795,5.089743604168763,9.566198168888771,8.953435706418302,17.738180357182856,23.66105845419456,17.704408603965142,18.374826970065477,24.758141953201743,19.835202497555933,15.375972708127161,21.101685558344595,19.111373989918917,10.73789843379257,12.85508528410881,13.848426881245265,5.105673651105841,4.3656803249610645,9.124143680328768,2.4719027072630055,-3.473978767208599,1.0415361350607144,0.0760280777812763,-2.7450473741477666,9.433273929180276,21.801319933305688,20.231778193952593,19.94467996540177,21.05290006458911,10.131098188298834,2.4031121496279417,8.884234987954146,9.625148436924594,3.2716476296926285,6.779144094117447,9.15683659496572,0.7494184821029481,-0.42434220635152564,5.010214342431958,0.07175429592514382,-4.208756897318023,2.359770212655599,3.5575582981857785,0.9150948201837517,10.641392094639125,19.444124622491913,14.729515482823892,12.34343401457569,12.677133501182903,3.0017946780306826,-2.178362137004071,5.838330904876978,7.027103384605459,1.1908392170114213,4.73320941820982,6.616055759096174,-1.471583975633577,-0.9529939586965124,6.540937264506255,3.115918816884059,0.11528580177184622,6.683977678838847,4.4784739474103805,-4.000061960289327,0.6324908857114848,7.2734574096621385,4.2620505576202525,6.959711674624609,12.872945075575355,5.195524887071163,-2.466489047713347,2.2643973245357496,3.231794016135165,1.0488141094569163,10.888406832586663,19.961430700814986,17.162017211777602,18.37367061883622,24.06060098963768,22.211576757768764,27.313340964066043,50.02607329368391,74.9248295916149,103.41817285457526,148.32117222903972,192.47467898445998,218.49049705718667,235.0562719807894,238.99160442243073,221.28934718902113,203.69580667022046,199.82709650134655,189.140320712274,167.8842074685761,149.31652082748317,122.29032355415686,82.04879369242336,50.34625495208376,26.621367957116192,-6.261327347374635,-37.65437761194201,-60.139467630470236,-91.51073118958216,-127.49425418635414,-147.483772877673,-160.88077311144696,-178.85587561009748,-188.56051572056944,-194.69169383700302,-213.54282542198973,-230.92028245534212,-235.44770391302285,-244.02779729856172,-255.53750608672576,-253.4423230342955,-248.10137094687468,-248.0112615998462,-237.6781521061088,-221.53085658687246,-217.48778739590594,-213.77815049766286,-199.77187560753114,-190.34575117751442,-183.10115568084302,-164.15444410153796,-147.74108448085994,-142.67889368273597,-129.9569946829448,-110.1577489020774,-99.89827143661716,-88.94309532513519,-69.57628000812925,-59.228595965062055,-56.0580388087056,-43.89872796897599,-33.93136762626209,-34.098136772017384,-25.976693184843167,-10.664603894172505,-6.003801154832618,-3.316892459057915,5.332075327910497,4.956072408224381,0.1807360204570938,8.183460454358386,17.4934341329823,19.296149955156164,28.523719618702362,40.19995188000637,37.70326901997382,34.311113589453626,41.02754862752689,43.3749219131115,44.41035915512749,57.69326641168593,67.04321034021105,62.177811380527785,62.172174784267995,66.54597082322383,60.634206025384664,58.324950677101526,67.87722758689972,70.57687137452062,68.69121434117176,78.07559505495213,85.65025546826422,82.26860692736625,84.83584995240169,90.74782823541189,84.19155860441529,78.18290311290157,82.5287140632846,81.04690415944785,76.98561488131014,86.1419006782386,94.2259657556071,89.83136812866053,87.9383187254276,86.17888747340909,71.65926135456047,60.6354948002152,64.20889546334128,64.71813463179926,61.46121420653131,67.33416680001565,69.06803495954199,59.21191861979494,58.094821820879716,65.75695370003986,64.52462916914507,63.043030863657194,68.4468463834072,64.14533906304958,55.09436369119308,60.05701656015241,65.61821554225821,60.13632351210802,60.29808813971894,64.6199054822997,58.15135269627892,53.21119551071034,56.97903598396604,51.83993363973265,41.67543947379585,43.932517340881596,46.25595177516088,38.489476023978014,36.97154067759825,39.96197824717691,32.31043802154332,26.459647788275888,31.17496728765248,29.665239302603293,24.042178434844363,29.165409039202768,31.519880148386164,21.614502262986043,17.604810519977836,19.62988434320556,13.535574442479076,11.365707276803757,19.681812365107344,19.138005809623095,12.198845086570277,16.19035793163365,18.91223187628048,11.623357148968745,12.041631100718313,16.87092057583683,9.670543477920967,4.3500261492830985,9.857237594832235,7.613265017786026,-0.24795549058273325,2.834429004424215,5.045742986231318,-1.9791893582716744,-1.245902849386161,3.857142537395628,-3.7646222213339025,-12.053212557835451,-11.960387225889296,-19.499130770078587,-29.955868584100383,-25.904148313018208,-20.308404984429053,-24.07092195621686,-22.650410903666778,-19.35573616446093,-28.551714932504005,-35.504834704086136,-30.324145072489124,-30.685712459047092,-34.85339417564411,-26.912321945477625,-19.60120287143696,-23.101929726298298,-21.6602574828713,-17.212800815169988,-24.22971060966944,-29.970733872873616,-25.718003168547305,-28.098959837900733,-34.278755516749705,-27.65391837508114,-19.89640095633915,-21.628777446536738,-19.43250525552712,-16.625706254299974,-27.14377046632561,-36.72100498091616,-34.56585528780358,-35.830043892038965,-37.970257491228146,-26.55390229566708,-16.362690761471022,-18.79022403767082,-18.559734004061664,-18.57877591998526,-32.05981447979255,-41.588687171626916,-36.245634053222275,-34.06726419395791,-33.83605767827444,-23.097491693312513,-18.654496191132754,-29.013546647491395,-33.39071705113873,-31.827970470642185,-39.30102057915394,-43.283630354538,-36.3953271962842,-37.313018381463166,-43.07228537655452,-35.95758039803581,-28.45133619880349,-31.978963089324754,-31.77766568097833,-30.295360196947485,-41.454946071891634,-49.625186205150584,-43.24378431599254,-39.17696191434444,-37.66042842640327,-26.40159782664837,-19.431949645352475,-24.70690122920016,-24.10910331561266,-19.382272113928444,-25.178709829075387,-28.707952913181053,-22.485706172091746,-23.793429945250804,-28.521457227473256,-20.492931678399884,-13.456605828000217,-16.86584088392849,-15.078229989675425,-12.403393046338522,-22.087124130725197,-26.756083560407212,-17.490175952046826,-14.396440106537812,-16.973480443823043,-10.453273738382352,-6.181907707486394,-9.569421948753115,-2.9620294690826707,7.18802881618295,1.7235851524227876,-5.685287988625027,-2.8203552680151383,-4.1591519530069165,-6.7287801548270005,2.8619995709565362,8.784897720299451,1.7808005660110573,0.48929783275798244,3.6929069149880833,-2.753741818973487,-5.354714193278834,3.0217549655013447,3.8382501021710693,-0.6615913148793777,4.447343804165369,7.505975312640085,2.023676211386891,3.9319212763869937,7.919249804675179,-1.7029726524862863,-10.361389779340398,-7.420674172808852,-8.072500700043722,-9.517338123763402,0.844959607146853,7.052993597227156,0.28028885640173096,-1.0311742706727411,1.686051381458125,-5.252139164562984-7.616259927442384,1.9202298259096002,4.202039127571743,1.3991022898779026,9.130212151681311,15.069998055885936,12.140629653962005,17.845055480930668,26.877568671710222,20.997297054157528,13.692142349488565,16.118602848964656,14.002172063324394,11.812949890138576,21.908075066800524,25.14430594389888,11.55092249190395,2.867926718149155,1.2948390034254509,-6.593934227067042,-8.915581702276384,-1.0732648895383403,-3.1302771018869766,-10.381682804066193,-4.336593910152039,2.1531869279524423,-0.14480725105963144,5.453863158444184,14.83362187940163,11.238778112522017,7.294242839515807,11.199233926793458,6.407892300066663,-1.5002968704605566,4.929135035131773,11.41793308220872,7.311611302829417,8.426112239879593,11.103534140679985,1.0138251546820891,-6.410383946897904,-2.3748398319546746,-4.320622959046277,-7.798381934642413,2.657085120107693,11.716244762174766,10.509501277806525,15.93925680463955,22.163870843328777,12.977666933721896,4.7653386792334,8.636202453086739,9.398891554038958,11.477586205823338,26.61763570403216,34.91403148905201,25.79747627616219,20.021238607792597,19.089680049096547,9.628274998607596,4.654302696963953,11.385120850303773,11.632831591177617,8.347141841326321,16.568478658164157,21.774037109733186,14.491248646651012,11.860687974986723,12.188509068371634,2.484584845656708,-2.542798666841285,5.230668695176004,7.503927400100987,5.158756589339072,11.230655744917103,12.782906039449571,4.396902101135277,5.497451595309168,12.392847121959374,7.355540846358469,2.2766377574155037,6.3394206589514175,3.9031422901757282,-1.1385694974617202,6.13291994933196,10.857695117015787,3.879226995649394,3.44198799619874,7.78129071986636,1.9789263564945132,-1.465988258231941,4.20993755687015,1.125437398755023,-6.717570056960375,-2.54198280026044,1.5073875853204695,-2.20155975934007,2.3537946656292688,9.16806556708738,2.377027637181496,-2.7912012518755165,2.486309904801193,1.0426725031264574,-3.637248625067579,1.8860827795903088,2.5196890529005893,-8.296148077054568,-10.833154948720283,-6.967398460871195,-10.99451188051191,-10.44892165172049,-0.6864007410296429,-1.4719605875891333,-8.524831617067058,-3.151267865527057,4.586280550894506,6.746962703199172,16.40048219112172,25.341316911701384,18.17696530207582,13.379470022713555,25.566841063028157,42.58080146840889,68.37420708246589,113.80152942137059,159.83147885568235,193.26088592060165,225.8687377743269,249.4669077493631,247.17975228705404,234.72891508652992,224.71281885743133,205.42248913044685,183.9896264437898,173.90367986236947,156.8182141376398,122.69911198301972,90.71404266793502,60.61802396523182,20.778517288418612,-12.90347746728122,-33.38482377820404,-59.55740249712272,-87.94616946938073,-104.12043120634696,-122.85298737292104,-151.07433210638771,-169.34739328394423,-180.15385079941655,-198.91864936604796,-213.9788762496252,-219.53706754215074,-231.7057487307408,-244.00454633231186,-240.47561600748992,-235.45485381304127,-238.34359956495683,-233.8953416324987,-225.03493744341336,-223.77787884880584,-216.64618606708532,-199.62454102181076,-191.42171765155172,-186.026401479329,-166.2025636718308,-145.06445613089144,-132.2555806394201,-116.13729021351179,-104.42174957368009,-108.55670213663896,-108.21590579678272,-93.17705030491153,-82.49249691787661,-75.56908138836158,-59.81524406499314,-48.79024877866883,-47.56339700859231,-37.30205323837375,-23.554835330831644,-23.69501975957874,-23.96015412940689,-14.4730762686156,-10.076300064882487,-6.568789264989779,9.431558359272982,22.37876829852352,23.47182803115213,30.094792216638474,39.86425105811852,38.879743088547215,40.56988326936154,51.842885660937135,54.732995223415365,51.70265978392229,57.00441322602998,59.256752782553875,55.15619632710336,63.09764780144553,75.53639919444245,73.57937965301169,68.95903184298655,69.51147120035355,63.038719389634174,58.8472438182812,70.08018287994108,78.36361642980464,76.07572060470976,81.2019540110377,88.62980516502009,83.82177016067847,79.73648723840212,80.65498202886458,71.52684860077807,62.762594748835674,70.92047795570164,79.74910935849292,79.44885681431066,84.62358561838334,89.39772950442453,79.60264231175876,70.41502020666019,69.29695760848826,60.01885360636857,50.77757698214341,59.33427916865243,69.87865228661806,71.60439379329699,78.61137465610159,83.9539212224649,73.25520130460968,63.61540421715611,64.58402159204174,60.00839879639075,54.67294669821787,61.99955130958536,65.15042716493272,56.09322681095445,53.88409853874823,55.01128091581981,45.02787111493796,38.95374528049612,42.86533736215864,38.847297528127065,33.98085531080348,43.55308162708922,50.103156657686526,44.705001608265384,45.1640203988115,47.42993465225938,37.98757509630518,32.40982001351465,36.95639398277455,32.602448823796074,23.79387093322496,26.503115832606873,28.109758769374807,22.549861888391234,26.131894221889258,32.09276152588682,24.226350664976607,15.890000111468545,14.88757521968906,7.206968919845465,-0.24686894333076204,6.3624540805024195,11.702600987073268,8.527131170229016,12.44695205649544,16.586637667266423,6.775880334579498,-0.4490501116166954,2.994097094142624,-0.16474314062568274,-5.303864885551985,1.6380418763500386,5.278911320364393,-0.8903700126126268,1.5522679237236876,5.950797797575534,-5.168835428087663,-16.27325115077836,-16.811340487729858,-21.836562678470834,-26.263568624036097,-17.22883057120207,-12.293012245920444,-19.792188545389905,-20.84205396807691,-18.17354653167277,-25.917531974502406,-30.501218817814458,-25.612742729200228,-27.546102599949855,-30.29315743683422,-20.750715569588802,-15.801430638361975,-22.587533203428,-23.238969316836382,-21.064875805032127,-27.265020071650873,-27.57425574023202,-20.487319302634084,-25.96960309457405,-36.72686957978721,-35.75400127484262,-34.917573481078655,-37.823398248283624,-28.656977948570358,-18.097109048237307,-23.38866475246157,-28.80660921050852,-26.237844015240636,-30.595412722452597,-33.91997458143728,-22.894556283180044,-16.230662493074476,-22.279760543844453,-22.505080519871303,-20.253936201297293,-27.964072163743957,-29.75189262178795,-21.014579168325547,-22.709628201993887,-30.684449033335007,-29.089345534128455,-30.329238875021456,-37.920840338475195,-33.317732021656155,-24.295912033747708,-29.000171773947343,-34.68487663602612,-33.42128940048692,-38.58288000273821,-42.42372302744546,-31.55470595125786,-23.784656500482168,-28.435510063052035,-27.898948012548335,-24.808389960228425,-31.69674938142657,-33.2900473681788,-23.84262874593527,-22.504258989503995,-25.545184421425017,-19.777676840748278,-20.22284585560101,-31.37921080604939,-32.607677510389436,-26.855194386333935,-28.871070413360652,-27.746225951264456,-20.919782700046753,-25.58872378267951,-33.798559999192,-28.441534052018895,-22.350889640837934,-23.37627596623922,-18.302780677910977,-14.250883444347242,-23.01362013246697,-26.808750833081934,-18.54109415518387,-16.464458678192646,-17.84607325910302,-11.105768360620146,-9.960396905932392,-17.23004806738388,-14.516530924511315,-9.004814378377356,-15.965702367096624,-19.655465821647635,-12.745165388456737,-11.988961438399837,-12.678360844973179,-3.55398029034103,-0.5589632820820404,-6.6813678385541655,-2.0730590448556803,6.036049793431663,0.684976452538713,-3.72317873267406,0.6356486310030491,-1.4883349679323417,-4.207703955499477,3.8318249060932024,4.598806921136852,-7.022077355591957,-9.129542870155078,-4.6551526827473815,-9.693991716715441,-12.265425021468996,-6.992119413297686,-10.715153560054164,-16.62642488279663,-9.359263221183127,-4.004070418540692,-6.968040208657807,-0.5018907630744778,8.728850339782332,4.080620983814916-0.2887791997078182,3.9873530133879083,3.068376472939005,3.5767423391256417,15.84064287423731,20.364618969637203,11.026150405621323,8.800898173507084,11.475910512617995,5.794080671814417,4.709479265039002,11.531879477138792,8.40468146688192,2.3791913132969955,7.8509462007433,9.758140828920068,3.647161942054078,8.055936604332771,16.426649618317974,12.679395362237745,9.09151773326396,10.338449330869084,1.7399211281815479,-6.739142164339397,1.2218896230314096,10.369259087878511,12.011414649881756,19.548409045592976,24.697509644390045,13.80531688350476,4.329200078632738,4.814046980567076,-0.2690448289731613,-4.755119667457201,4.344376634644045,10.753761894515199,7.480138809314134,10.879607372293533,15.43086010468457,8.886606283649236,7.0271820137220296,14.483767736892144,12.846280636757609,7.40454963653437,12.33263516904541,15.16613413201116,12.229946081632214,19.254474640941265,27.433396714716334,21.010214332580933,14.339677343292717,14.143015330425394,5.72368745370431,-2.186459969912703,5.387158751799756,12.133570614140144,10.088770101189834,14.064192963145127,16.65965665951996,5.794227999053581,-0.23992279907884095,5.173774244131379,4.134734292953039,2.237047208539587,12.335726980245585,18.118943334794547,13.867434504387804,16.82212982135369,20.231064795739446,10.5875473483874,4.529897628113928,8.593570453429416,5.782789215310325,2.325888854025348,10.928411340231404,14.616721436280203,7.670289845296402,8.946056491051943,13.823913428947295,8.600463811944689,6.6645565710072665,11.278260229854089,5.1500717861882315,-3.0085729972941833,2.755926555803931,7.458452769621277,4.526196006153738,9.706293550903776,16.267356254800923,11.33967600429734,10.128081224187463,16.252494199137423,11.049335229809758,1.4583536006781825,3.2907162616859984,3.5146888806732366,-2.1075374747890203,3.0360726261972095,10.861018482021848,6.344716142338321,3.927294743057872,8.043341084413605,1.8105774632512037,-6.051229473217832,-0.03158951376310837,4.568847484564152,1.48417469117912,5.968903658184591,10.089383291658537,1.5507295445749678,-2.348999447598478,3.711736226587023,2.4008342392143853,0.328150285434462,10.325766482516388,17.816301390813955,19.6703071816478,33.844879845968705,55.24739567063445,71.5912583063941,97.93031284568102,140.22058335207618,179.4404038122745,214.4832036332649,249.64232767845687,262.9800597135518,250.08674761326978,235.83689082880866,220.34726234574077,191.4584380689647,161.67585567364517,132.95301131600348,90.52493993464078,47.92523886949097,22.364126851540632,-2.282157817742605,-32.282510961466144,-51.76831628812357,-69.10589737633944,-98.53006208785908,-124.53797762471972,-141.78966744412014,-164.96065858406968,-183.27997104701595,-183.41048041020906,-184.52417465178925,-193.35540355990707,-192.97179024853813,-189.9877377520233,-195.82484830971583,-193.78495635044104,-181.38995276957306,-178.26117507596618,-177.36049792967546,-165.80156898346277,-160.2357058021069,-163.60744156982466,-156.6810006795159,-147.44992003903081,-149.34476569145423,-145.3094198421906,-131.84680687237238,-128.22565385873418,-127.22496931658722,-114.77911593268627,-105.62142142282497,-102.75306680489157,-88.73715720969778,-72.62560855446674,-70.18196988720504,-67.91215511444663,-61.103828744147805,-63.95515213719683,-66.45237595066331,-53.85549795734143,-42.09577619889677,-38.34908906792211,-27.687288116162307,-16.923227594086242,-17.966381322154156,-15.56852721155893,-7.141302521268689,-9.370290514846516,-11.303636319318404,3.0268384073094055,17.048770146070037,21.370363144963115,27.40836134052641,28.72361757724891,19.901127792424028,22.242294970561506,38.477345160947465,45.99105525707209,47.98301619820321,56.9041672914774,59.61318136222239,55.141312884635845,60.63716968478391,66.41118580955435,59.90725614318554,59.27381275528191,68.07407605319395,66.29092453362723,61.07257804632141,67.27460349113895,70.08362210431224,66.23299559903117,73.37911818732304,81.7329019796961,75.4151110786697,70.53453472720022,73.5311547593478,68.97633723119198,65.306987246209,75.13269198503404,80.40188623563128,74.5803570402013,74.5412874674149,74.91955723462684,65.42940212657824,62.766208886006915,69.53772002081158,66.51052093505682,60.19428844709648,63.726932061424,62.97228215012909,55.96512511005827,59.6368922693683,63.91449238565873,53.99219148830424,46.58035452134146,48.24944030423166,43.36800781406885,38.918336149394094,45.580525832976846,46.14745633730689,38.15787879317858,41.36398347248537,49.25081162794447,47.01376488069124,46.430546073140135,49.823560184823315,42.11494783151673,33.043267822828454,36.85273015559434,38.761920255909956,33.91398740423678,37.337779076919844,40.558309379400924,31.198958186260278,25.545908339841453,27.908184685828076,22.315436913811688,16.918214244606837,23.11439174355659,23.652519991104416,15.267036421499473,17.219494685498912,23.19868920134057,19.56633271120873,19.569876217358857,23.77106400193513,14.167106231824665,2.056453977422324,4.824194867521429,8.051532556279025,5.724533599798388,10.941413318906944,13.650122206413505,2.4152326092530068,-3.8404269987635153,0.89716148703309,-0.680020105748383,-3.992702605129836,0.6016720308283099,-2.2092968301850053,-12.76175355272759,-11.074872533576798,-4.8569740444168215,-8.55245663863035,-7.587458916840545,0.9031275420632667,-0.5955669307106985,-4.858846574496923,-0.8758584872837849,-4.524161383145832,-15.960451959320757,-14.57517265723293,-8.088341841668937,-12.208737811201907,-14.022313313663453,-10.46211184024137,-17.22284521921733,-24.85590275157906,-21.040763428809917,-22.551600869015733,-30.927694446859295,-26.431403350145565,-17.632114526894703,-20.236105040372397,-21.604837081055937,-19.3789190480772,-27.91372184022535,-34.74137113117453,-25.331987085500533,-17.979453559184623,-19.795332674960243,-15.628538155586302,-13.937102921762126,-26.383326000473783,-34.537555024330004,-32.4754372452455,-36.14327685890245,-38.34971444027518,-29.240461705308668,-26.948608796306218,-34.02823047165571,-30.532515281591046,-23.20567008681374,-26.477122199533873,-27.644534207063902,-25.641598130514502,-35.88323115765952,-44.54410920941095,-35.00159571833254,-24.022988152265135,-19.03742835109266,-8.512640779777781,-4.043251183657068,-16.90137537580761,-27.145255008199896,-27.606768265285098,-33.05370750614546,-36.060679918900156,-26.68889960834875,-22.21284027960431,-26.065537820785874,-21.74029751700453,-17.72800288256805,-26.011224769137655,-29.441193651076162,-23.866306773073543,-26.471985752978412,-29.591278573946617,-21.018221135870363,-16.81357437680877,-20.552062516155633,-16.037873137285366,-11.74451361136617,-18.94790822360579,