16.02478359504168,8.790011277422078,-1.2852016925562793,-11.163891140656904,-5.838913923256308,0.8769591568278017,-13.834985625249406,-33.50281381297225,-36.37550317319163,-31.44081990161186,-23.95181490922851,-10.021376363174564,-5.539825913368435,-17.19970034701742,-23.005577455412435,-19.325986585230964,-22.402308754772253,-25.999332550606916,-23.20585681625794,-29.32341874472661,-43.4537586955617,-50.40842625085179,-57.4860441236013,-68.56008425258942,-66.66268552237895,-54.745085551150574,-48.73635101005843,-41.793877914610896,-32.99399864586678,-40.63189713884924,-58.16400549654463,-64.59718507360215,-66.60309980350677,-72.04313370587491,-70.10193584280759,-65.58465664275955,-69.15352986267382,-66.02392673957712,-50.31318977329496,-43.38946051172751,-48.07256235821451,-49.49137182441281,-53.716793650385995,-65.41840582233536,-69.86754335087548,-68.07194621614019,-69.24076088083942,-59.6930403477747,-35.78725864141451,-21.51858381416524,-23.257149106050335,-28.60721861032522,-40.25126072229357,-55.23536407637304,-55.20940438551024,-46.172776868365034,-46.66866862857337,-47.386932872151846,-39.393420666436704,-36.30190755729312,-37.08993706446158,-28.9436133965677,-20.79058119746582,-19.3950479201381,-12.7140379549224,-6.374283016251947,-15.55608356930275,-26.6179585390225,-26.241298547808526,-26.235839944121423,-27.06014709810517,-20.080018392000127,-17.85131896549856,-26.450708870038007,-30.871587222322304,-33.26023586835817,-44.97820771200424,-52.125920744911916,-44.66806649609949,-37.63644795799679,-34.19912677930887,-26.541922567483834,-25.844956462295315,-36.22041466287283,-38.783116135828955,-31.972967929870432,-29.545865854493062,-25.11116418607876,-15.058526521104973,-15.810306259659976,-25.231062730579822,-26.099013006620797,-23.395449431483613,-22.39209820753472,-11.248333426862494,2.593724988306138,0.17460860837954595,-9.829714188331295,-15.301023235997711,-22.91782217317728,-26.790562188509142,-15.763933307843196,-5.400638385011595,-7.364786598897439,-8.805466073628777,-8.856689971533868,-14.473604333888867,-12.048421480408411,1.6382634277524764,5.394720052511895,-1.5221651922233908,-3.110580015624735,-5.345116095257183,-12.635783385085844,-10.888669836013161,-5.340059475462499,-9.69532013630851,-8.749948202378246,5.8773547224308444,12.59210431563296,6.682094063648826,3.340752984593063,0.36695696866869354,-3.9463815464446204,2.868382197630314,12.574346252294571,6.716093178413752,-3.8476928530944776,-5.166971473122709,-5.637540056972985,-4.1177068041397344,7.737825569647698,14.966291876444512,6.260034306808641,-3.808653357617975,-9.289729718117162,-15.029040192260128,-9.53963729330652,8.82321267732306,16.87930497441197,11.937934044218691,11.503903363405502,11.325890035716426,5.344231070128137,6.287359456509417,11.151761937794948,8.05953859407095,10.118471115605155,23.892398948943853,29.814239659407832,26.79706254282194,29.52310646928789,28.738815972346593,18.344059682477486,14.746842041746685,14.788388719701434,3.8222732879612416,-4.741387680934631,-0.7160385251152075,0.7219699585098912,0.017029280333373586,9.80129463243994,17.669771398124983,14.116603523371985,15.091830161952037,20.44526116380331,14.098533058729915,3.9719342857477242,1.3309376069775012,-1.129828484008779,1.469792257860615,18.769016576635252,32.6935491230658,28.64736530325515,20.439634245997482,14.546741924137013,7.287859959882079,10.66977503431179,26.449514721111616,33.92913559874114,31.287160716791472,31.721879680245888,28.677008086860475,18.55095519402849,16.13666828100501,18.14514962760658,9.851090186008497,1.270234855729729,1.1116514686193293,-2.832336455106084,-6.8390834504169415,1.3324953816416456,7.614756016831397,3.134241715021776,3.282279043007034,7.099674825688632,3.443813361544409,4.331262094535666,14.563508911509365,16.387865340070622,12.38509010063536,18.28075253060159,24.24676972855028,21.82083059235408,23.524853256499803,25.86362901922093,16.47477465782169,9.786683575027334,16.638217519500508,20.899767253992664,19.128156470959482,21.685569456574395,18.936151761091452,5.534732390923008,0.09340599653289289,5.041313824528101,5.937046521871498,9.519638957240753,20.94318196461774,22.234032325609252,13.072986065588136,9.794722119753889,5.375632420761972,-6.528534562645795,-9.425706403577301,-3.164084183706819,-2.605731314335033,-0.9563419551581746,6.4517407274206615,4.592894307899039,-1.0785498252160692,8.450067199219832,22.66787480878952,26.522880707823802,27.79709237109914,25.046543754800247,11.19178224450006,4.140615221910317,12.252423580854844,13.6600247260505,5.658634055753196,5.697358257934341,7.678411181895669,4.065586891855617,7.293806714724363,11.872725292571769,2.7551479682309625,-5.022899485403148,0.6328332194190747,2.202967839819639,-3.309552730768914,-0.8331246363319289,3.2790875608613024,2.1419470173531945,8.520608064055457,17.218593309113626,12.004546733997095,5.82576262563698,11.420039267903508,14.950654537146017,13.71011509183256,16.900042887850375,14.560937342504708,3.1500539102532565,0.26278339227636205,3.74307230843627,-2.713507958600618,-9.370876759212896,-4.3201797990890665,1.2577143283815717,6.677927782276055,20.56806926666551,27.25290757248237,16.244202973238842,7.506748832958383,7.824674230151807,4.622256094191483,4.670357930301383,14.106997270326092,16.22859541017844,10.539238856253231,12.72840165201729,13.178133677132582,1.0359738301473254,-6.912583083339774,-6.738220794451674,-12.756196071758454,-17.376836609986654,-12.925925709903453,-15.288896266197414,-23.02822526066087,-18.2436167832871,-9.835723337112235,-10.513615800522816,-9.557844483480146,-7.804191948630386,-16.69568133153655,-22.750858924864723,-14.197271044643198,-6.757480527392508,-5.841738870693212,-1.6053104386402914,-3.0707076538817915,-15.685293509744081,-21.014852671762775,-18.378367877543074,-23.97911947360601,-28.658675138220502,-21.053987296001573,-14.650961623035561,-12.328013580719315,-4.692563621750524,-3.6929039524329927,-16.128923050510295,-20.8439470668045,-12.150114549462167,-6.7831487304687625,-4.497167932144986,-1.3541788759865034,-8.909010118736003,-21.038887003593004,-18.517598125371613,-11.040541759680188,-14.462403599914657,-19.803010259360473,-26.05097533048427,-42.98129412348122,-55.23706280636558,-48.35391000889811,-38.151045545165445,-31.390141648081062,-19.616415475119496,-16.060080207640276,-28.954724786984155,-35.953575249837854,-30.716370226925854,-28.759039642016916,-24.865946769673005,-12.439690108307225,-6.515452071662631,-6.5088775162220545,1.7828281858501862,7.6563009080691575,1.0212087911686476,-3.0386764234168027,-3.6591076079194753,-13.54821595011889,-18.648874977717853,-5.773198291484811,8.521612654804532,17.97550736389208,30.133813989916437,32.67191345804244,21.326659283357188,18.61468490863591,26.957900718217793,27.966361734772427,26.62657344568396,32.500685554732165,34.503720626204746,33.57867662371898,41.295612767974326,44.959681120665536,33.578151044992715,23.2974821663681,19.86943231898393,13.526707443203467,12.831560927920705,23.505848421924046,26.393165213747682,17.383881528350088,12.651250206422766,8.50195630561776,-1.6781179640773023,-2.965947876255953,4.518369468541648,3.3041021139484887,-0.19702948502892714,4.195752912453762,2.295902901365063,-6.7341497445452845,-4.749650344627133,2.5326951667601714,1.9201876232549007,2.6993152357914116,4.579609495992061,-5.166885299887974,-13.665783568543345,-7.022609878703716,-1.4295950893320015,-4.357840807180102,-3.727422139509166,-4.4683564802463325,-12.35207600202462,-11.325308127417951,-1.1207800960111918,-0.027209571815599576,-2.6933734184401836,0.9262383683114179,-2.55945380906869,-13.835149215645382,-16.004655892906328,-13.80015239931302,-16.134954359164716,-11.567233856814596,-2.2897494987184492,-4.4438862210351395,-8.782410092164971,-2.4705644296980673,1.8499430242596024,-0.3694939462164619,0.3443101713991432,-4.217951714072227,-18.301611413234635,-22.9358243297382,-16.70830130402671,-16.476575573238936,-16.895257379192103,-10.59766450828382,-10.809849916050258,-15.908215740616317,-11.993710037600904,-10.033595284442166,-19.957828499692432,-25.562766908296943,-23.415480685307713,-26.107980504591325,-25.035869444835093,-12.642221551580167,-7.3583680598033805,-13.953061077299191,-16.269593141348757,-16.719441487565554,-21.238191897875183,-14.82831625637389,1.2736193565724632,5.937915344031025,2.5627568458626526,2.410804418704767,-3.227044236071079,-9.974335314763696,-1.0161401227600528,12.459798977110205,13.183866328619544,9.699614946804584,6.300745576311351,-3.0122961219477427,-4.41618819358027,10.306339414485311,19.4139692463211,15.087469159630388,12.798017257562186,10.169417461866173,0.5419915223147735,-3.2380708191042213,-1.6231665189408582,-8.134005574694935,-12.004804602636138,-3.5811843729148647,-1.0587619410761462,-7.488862968874668,-4.043518179533157,5.270454672304398,8.298796986312887,12.151979320286806,12.785350638997988,-1.5055011041711879,-11.800558065648925,-0.8708384236024109,10.941066276886811,9.343957991231052,4.232721915804907,-4.988033516856417,-16.62742421835593,-11.391082595421533,5.9714941729224575,10.050067788822203,5.0378476724423304,6.714663421035254,8.874622456540983,11.874331503043887,25.409659748683012,36.341142554953954,36.08388752567195,45.20089035079165,66.91088610568531,83.46105419549272,103.3819885474106,138.07318953813856,171.3187295538653,196.3765998590871,216.47204284922125,214.07101167553753,187.19739129748814,168.8196820806802,167.46091788730305,160.76157309213255,148.68895339210462,137.89745118531954,114.93280362447253,83.01995068227158,59.230946073895225,35.42188974553363,6.495905166870488,-7.162830423694903,-8.455122007875856,-26.20455976594018,-58.79490383209067,-84.53346479408104,-101.81640061312063,-111.22266987499292,-111.37966004662455,-122.19207579951731,-152.5145913749377,-175.7845542718756,-179.9838862462796,-181.81141964076718,-183.23267562196395,-180.85497532176754,-187.46357660021883,-196.831089016802,-188.2158637645479,-172.85485354684693,-167.4716149013762,-160.37751175023618,-151.09666234951354,-154.03091132804644,-155.12472479726412,-138.86188169642412,-124.07528575380806,-119.34323285786145,-109.24859658277938,-99.68096739959496,-101.32556638148706,-98.18244297925811,-86.48057394797914,-82.69894512581888,-80.27127312558787,-67.70166431410864,-58.872794599993725,-55.52482130123277,-41.630099937079734,-26.890721214843197,-26.283807815278546,-25.94865000450877,-19.425674245913633,-17.63279318440707,-11.350252930678355,7.093478814515615,15.74475621669564,8.818048485308864,7.82520713059329,12.532004594996453,13.091435419194612,20.828099292232302,33.7137500384223,33.286420326685096,28.044156498524757,32.64526973649727,35.92307521207706,35.96252242727928,46.76999923878882,59.76237175959755,61.437252391305556,61.88138774957414,63.62056304167186,56.292948787976854,50.658230447976294,57.07580508116688,58.354943891437664,49.52491436127133,48.44948818537219,53.40614737811744,53.70046871669695,58.33928152366015,66.0130118186752,60.738892412660825,53.12756558671287,60.3350144337269,68.74950084376232,68.46087233881862,69.65507839284717,67.14248838718413,53.93000861677811,48.836943238899934,58.837548671089294,65.1858296935471,66.0944149901745,68.89210618345791,61.28196918629204,44.52956978158011,41.65885322302641,50.58769547328845,55.14015790475675,61.51004795114745,68.85390175291623,61.52383653023355,50.76075782049772,53.76153910673177,56.36107599306018,50.76282775297979,51.31649294294057,54.694263887820455,51.691574589389546,53.93115892107585,59.796021924789294,51.022187543445995,37.95850176334111,39.974721250150935,44.964589655663055,43.300077183726245,45.14418589457728,43.829219896752,30.238818497321205,21.805382774946523,25.38644469460857,25.175201079934755,25.392236716495084,37.51448069609235,45.875804115265055,42.097998834116495,40.056369537778025,36.68181275153883,24.45292430310885,18.384612390227453,21.489275640210778,18.86413391017234,16.004518852632124,20.84292159025249,17.91467104116252,5.5331829747322345,1.8687592032114224,3.5394586188661727,1.0957514639912034,5.349924010379716,12.600180910707458,3.9977164461447505,-10.269514858944873,-12.242849052098203,-11.10028347306328,-10.79464976639884,-2.732379423322253,-0.5484712822325088,-15.55400262313555,-25.961474230038654,-20.182065135759338,-13.397895952461543,-6.593251190873154,2.836310081006615,-2.4703046578945984,-20.2005581886231,-25.211927189891476,-19.685957083234516,-18.34800918797658,-13.595443449275624,-6.476449969560527,-13.145319209477478,-24.45048072211734,-25.224615581133424,-27.07254370071604,-33.13179355422999,-29.19906898985165,-23.901766263382175,-31.964763283580858,-40.31778669282735,-39.24260720371032,-37.19368377788102,-28.36607992617747,-7.829520412764942,1.7067625903560666,-9.562033269487769,-21.835837560467837,-28.750049958119128,-34.46940893441498,-28.549886813885323,-14.862044335507104,-15.412570364408912,-26.688979368265876,-32.945065263520156,-39.601918767530066,-44.78505677216436,-33.959369819222616,-18.77710880709503,-17.027136866227252,-19.33495634482834,-21.280340939078776,-32.09165369507072,-40.40618388288831,-34.570189095378986,-30.37358500409124,-32.55973606053178,-25.811347918142467,-17.337849242802875,-20.459903316734923,-22.5533584578283,-19.715417776592105,-25.142997856219246,-29.8738550721312,-21.458777645376294,-15.70544785573421,-19.629203122512006,-18.823198691528205,-18.286465565371724,-28.386952930728047,-33.49869764941789,-27.54872406887817,-26.138464233701047,-25.267374563224763,-14.740522249844226,-9.527458606653422,-14.07524442805087,-12.202136198501504,-10.223979496758044,-19.979038384780917,-24.836621918269813,-17.752196582787306,-14.458295638589364,-12.278998299556418,-4.30859415303014,-6.3436723231122105,-18.057784919783387,-17.12905225140951,-7.996965765448109,-8.445360193609615,-11.648568313098353,-13.63195997008069,-23.4858795026311,-28.838015044296593,-17.093747144810607,-6.562123829403262,-6.114770097218146,-2.1794156400386453,-0.6766896714106606,-12.753567537401079,-23.00191740157876,-23.59655088288177,-25.648854607766697,-21.990978361704762,-5.533808916835585,1.8916060389060259,-8.034118332733811,-15.694961940277073,-18.413124145020756,-23.20992358381576,-18.169599660552954,-4.07428274256196,-1.5721973398859872,-6.368264503708333,-1.9753690663732753,2.2302648885546983,-0.6309534679516728,0.3325956808698678,-1.3728124453065778,-15.565590860010909,-22.92552929343094,-12.036923381317262,0.441958639008734,10.753456730449921,23.22223624044676,22.83221913395633,8.645318895759852,1.951849704949284,1.7637426824323488,-2.1774885194127305,2.1448631579128516,15.583313415329707,19.526979643930964,16.776141636269998,18.0868484682277,13.655278306800948,4.9582063735397455,10.182253316579864,21.70823562904823,22.17542735243959,20.49201444231579,20.259734931812254,7.8020254130361435,-7.258070391904453,-6.501014064513545,0.13448397740078688,4.598263343832047,15.883599167922062,23.85521333514899,15.417037304133551,8.210261438237891,12.621686362507104,13.565700638977074,11.845992297443145,16.235383636326805,15.173512454228426,9.015499501183088,15.051538173164644,23.909101149330958,17.958275758816406,8.477348652401023,3.7825681884013314,-3.7660161175706013,-4.094825695702949,11.453790351353478,21.818909619926067,16.8206353770442,11.717411317107498,4.913141294068391,-11.713402373225232,-20.552540732673126,-12.584446260448725,-3.874597683127055,4.370540890181509,17.118990090464326,16.85172336098271,0.7956650493692852,-5.554724637200586,1.4167506317608423,6.349911668232826,12.350632319282694,18.850497232089765,12.541893612875315,3.4972384991575405,7.694306891303233,11.809851588442964,6.642295079595664,5.642925301526126,6.739762519479142,-0.35186040377757566,-3.0125634697538075,3.8588497165726414,5.721265386724767,7.757228406857512,20.59575933801841,27.480080479052923,20.433461333366974,15.69697757927186,12.637165021055191,3.6671426116198598,3.032628781404409,12.626142847739136,13.753910927182343,10.05650057825424,13.750663622507227,13.105443925391894,4.821557958940157,4.690091216338312,6.890427319236952,-1.1964777549716072,-4.530131057079204,3.8846263999036146,7.141103688651677,6.7748750642402005,12.490979845140496,10.425662011440343,-1.027184128046616,-0.5956842763529897,7.281531686975622,4.644837488039307,1.2991037005648178,4.435587803716198,1.6268923326285547,-0.28565768114108914,10.520306249598546,15.5193719809595,4.929238531698131,-1.678189042432971,-1.2913642678208435,-4.327005954257926,-0.7654749667962333,11.081969963167587,12.351480570296808,6.660277700467388,9.352199060692252,9.397517739032658,0.187629833038633,-2.1989905385682005,0.4627510036935707,-4.341203779239509,-6.324479706015885,-0.8030475592016875,-1.4538543493788376,-2.6061220303335197,7.9655774677464075,15.139692218856066,9.323586245869862,5.682827568973039,5.293322851291605,-0.684606491641949,-1.812976103288848,4.011605546250911,1.0120283751312535,-5.822833438240563,-3.588003317761408,-3.98114376826169,-11.88539363098116,-11.92120762275672,-7.766203402376828,-11.468404929913877,-11.379267690555006,-3.919532612977302,-5.912737127264443,-12.327224972804348,-7.833944719772309,-3.6374714062546323,-6.107753352321728,-0.8552984972435831,5.57397507910758,-2.4662612444448637,-10.750970044802822,-8.358855040216472,-9.120911467759946,-11.330860829039187,-3.712101717456783,0.5845473732483932,-5.597408475037334,-6.815048788986921,-5.991273769067254,-15.412213880337434,-19.835349502403922,-9.23675740825193,-0.4349423159444288,3.3368789607873373,8.62862094327954,3.0803502357732317,-11.867278374693365,-12.134175856204854,0.4144483223056685,6.452420068904885,8.409435394182324,8.3574404731672,-2.3475578644850135,-10.809488883097252,-1.5458744911985147,9.629331838144772,9.684046339213644,8.952596722378967,6.175578492198792,-5.418233671942231,-10.37078012328045,-2.9049106129833215,-0.41017176232804714,-1.4738184254169124,5.732501771085006,8.490141308262928,-0.628103807748646,-6.933415010157847,-11.74600041019908,-22.655984670567623,-22.02572291245309,-3.458301532611274,9.970188973369345,11.079583758568976,8.517952437996527,-3.210862660442327,-18.155852259447308,-13.662015309432858,2.4590120754836757,5.986891879262204,3.2787706707974404,5.2499625432271,4.8567906080758485,7.944729669783551,21.484671374831123,26.111652994942816,13.671402256935774,3.1808441998412516,-2.7403960138755736,-13.211655850591791,-15.713369710689287,-4.772133360541494,1.5509996410957012,2.040726846300692,6.946042343586977,5.7271440135490455,-3.70252149198935,-3.6543859061996473,0.1716629090909525,-7.8809352413096985,-13.882488058614229,-7.075783010824783,-1.5506504414997815,1.329887400006968,8.358724339753268,6.490956782431583,-5.586646121846593,-5.9557364995034225,4.081754418466015,6.61020036436474,7.110023409796131,10.30585026196872,2.9254013704437134,-9.574058471128263,-9.914030493794467,-5.188777152437595,-3.4652723350978145,4.730155011718426,12.191397947370941,2.601556991521284,-11.423441084629156,-14.732437572758911,-14.904481566265218,-11.417278452600891,-0.4448953345536264,0.8157098062336245,-10.352375398910272,-10.853292629814796,0.13214863302881596,5.947390911507284,8.70240611571282,8.673964394122544,-2.791408452591649,-10.31772531245487,1.894588053388384,13.807265843443288,10.577925821843145,5.611467242546988,-0.37894406305996964,-12.99599514945707,-14.652907066820521,-0.7971771322505043,6.858292632059469,6.690271925130838,9.418501090241865,4.135281505212763,-10.734503288405662,-14.759992676143895,-9.815530395325954,-11.852695632412685,-12.6785981865867,-6.5366237557785904,-7.075419843440428,-10.65271976131503,-4.376062778504351,0.8258765588095198,-1.8940338795386065,1.2206326677227182,6.809945727244385,1.6059872337238537,-3.094093471903839,-0.09440015972019378,-3.1858848695087056,-7.194219497255514,2.7578067630794973,13.729612393092175,15.082819738333905,17.51842046550861,15.8539639593869,0.10766682230511115,-10.266697424408667,-2.8384286962894345,4.881325828565273,8.763191904555416,18.083531215779796,21.017672925894264,11.544699618336278,7.489387198036637,8.42641524299831,0.14011079176878471,-5.4909501779536685,1.6973232381571717,6.093566016591317,5.385689846054905,9.474313843894906,8.63183210796391,0.8095898255326692,4.476441547008934,15.84500784790291,15.614272209361337,8.412901180169241,1.6023252526931488,-11.39669506097315,-19.452386022039846,-7.807095905677524,6.3321673658249225,7.985670743120441,7.136085474119785,2.510155882406117,-10.660611393268535,-13.395395726595048,-0.5371143396433675,5.443488841049115,1.738508695086652,0.8535211734036081,-3.463924806208597,-10.542378469690615,-3.8957149833952456,7.4101435560864575,3.3729760876268213,-6.064072315330636,-9.970643383144068,-17.490397032538613,-22.875769951694735,-13.413532286195405,-3.50794894267103,-4.327524583981787,-1.9603899689068274,2.5223917452084406,-4.929374524031764,-13.58142219209312,-12.935583564131836,-14.667605909643411,-16.02013244587846,-4.2979988898934725,6.325970497517619,3.378519995588651,0.8967005555915437,1.0011811584952786,-6.150903083929302,-8.844437375481391,-0.4913961509733582,1.3905890924937239,-4.445348807843924,-4.853894757421635,-7.545813545104881,-16.25450009313551,-14.217501106602207,-4.621209550881445,-4.848674723894269,-7.930547008671725,-7.364627279566953,-15.273886774760292,-24.106005860421575,-15.2217832708943,0.8520141914056989,11.449226821697588,23.909497758165248,29.74175238661013,13.967485243742107,-6.268623506116651,-13.667486150748196,-17.439191371298605,-16.136306322092604,-1.0156221029050538,10.572342908161264,7.371086151395975,5.056763605363277,4.752658233318586,-2.751783539514727,-4.322093746219286,4.210681033464386,3.931034664054885,-2.327011712698622,1.830672039345088,7.065219123083694,5.7571818584166845,10.305801849422474,14.822755466233907,4.69993989942453,-5.569258536614296,-4.810148163706789,-7.836592724340511,-12.192787298703003,-2.1935971996320167,9.070001887610868,7.885444760794262,6.229963785823013,3.589512370678663,-9.054860958740191,-13.89357526144248,-1.0181193875659256,8.24208173626745,8.016488893862721,10.035757873891841,7.817293086133928,0.44336143180055254,6.062480472467252,18.973650390670436,18.48904199596042,13.19006000105066,14.814520404243638,13.081046520046367,10.737367687601786,18.232869429744945,20.6911896895406,10.108560104876382,5.043279338621113,7.170205553087836,3.8997056924686557,5.003627961496206,16.455600727087674,21.601029292907675,19.46106099439848,21.595935611793653,18.91176454316684,6.875541653746639,1.9035088807699343,2.68088722598041,-4.660309110220714,-9.926945135090833,-4.193147928740219,-1.4110444771475819,-2.7648201695895898,2.2947561819897118,3.5047952603910986,-6.1328301772425515,-10.952808819022174,-9.015293840855037,-11.363119932539073,-8.657339934726853,4.999276548907432,11.459288591125377,7.022274195141232,5.190437758585014,2.341979220899675,-3.333828763840143,3.275044844064186,16.914677662668968,18.274494220231464,13.402375835483685,11.041879055258647,1.637275828619377,-8.871694431566299,-5.059271694500298,1.5370208591066128,-0.7129400373905572,0.2254190313706812,2.8116196259921367,-6.713353271456745,-17.29253242617798,-17.805335014107833,-20.66215877386922,-24.542901106616323,-15.847418357101336,-7.4208975186595385,-12.110640184683602,-15.020043782927885,-12.567426673987796,-16.171131762569512,-15.816026728616103,-4.43716402786448,0.7557939653247708,-0.025243041972963454,8.31034363553265,14.386842271966483,6.406201959201431,-1.1539930942699739,-4.50838280309833,-11.869650397059877,-10.732404823506961,4.092787087134671,10.2835086333133,3.193632625330628,-1.4729116242381273,-7.4069176223465,-17.24044875520319,-13.66959443557302,-0.2824903401546397,2.752962541591002,1.6514150026618477,4.90099594311763,-0.091487923603089,-8.468071172071376,-3.0097146635030754,4.538050976888052,1.678856704111419,1.4417724192180887,3.3095410955871114,-4.540311178010381,-9.077476891362437,-1.726104551876857,0.4519286086118116,-2.91620084617767,3.430871658903317,11.576485597369174,13.63123166250362,23.56336202347192,39.87091985967932,50.294241932019425,69.94087521521014,109.01199914064463,144.69428329524547,166.07040109764264,183.27609417159408,190.30286362675213,182.77146625312542,176.77511650926797,170.2423946078054,148.39072482615376,124.97142542425274,111.55159118624643,89.5981084698048,55.328916980292306,26.740202956020966,4.625736863445791,-14.972345082969955,-27.701863233061907,-47.17238973453123,-83.86772970249078,-110.2780446739474,-106.55262020926043,-96.80946284059127,-102.27693599423202,-119.6493949937522,-146.546901274127,-170.3345287503355,-169.4389956963447,-156.57917200773323,-159.99750123259767,-171.96169869884628,-176.40939231862907,-181.2258872591148,-185.49997920373926,-179.72598757511508,-176.89114295950932,-182.40800548179146,-175.66946193340945,-156.17229151215298,-141.08479594146735,-123.44826813808035,-98.43930171773141,-84.96697622621429,-80.84736252931066,-66.46006327944562,-51.457641000437484,-48.13232429368716,-42.44409578312493,-34.16855900098777,-37.19087802738634,-40.7367930543589,-35.93494512211637,-39.33853501808228,-50.26129841375498,-49.97649158663646,-44.72292443007504,-44.80275982294137,-38.45063021279451,-27.255039897967457,-26.399902097420114,-26.909754706153496,-18.537647921512622,-14.933425463937901,-15.836836104677866,-4.673695438745004,9.668455580399865,13.563120866062288,18.60356627122187,25.79537571789279,22.724910521751582,22.22217462950825,35.63534379604971,44.60044074451473,44.98402839103766,53.29538645238861,62.29380399420896,60.31842166188155,61.95486157870461,70.61984145477737,72.62409092311282,76.80189666880023,91.15842878094293,96.09155302121854,88.3607308619759,86.34928841634938,85.86869952506567,78.54534929839834,77.51916680847722,82.45304582267858,80.48900217617367,82.12169224377756,94.6202960714381,99.49832009247339,94.18009398697112,93.66873531577622,91.04015561196982,78.9564900761014,73.96065656345482,78.33400454543556,77.08013253638859,76.32597133044379,81.36660813011484,73.67486046176126,54.53007513182556,47.429570026361255,49.47557598032095,47.258279285345,48.088869703675975,49.78045723433851,39.47535732632135,30.248728051945356,35.52931375012179,39.628260110666254,37.39461535764056,42.92447267925757,49.1787160980291,44.52252906869283,40.86904435014732,40.394864528448224,31.357286908813585,23.87411944498747,27.939654962708687,28.179411745389025,21.487824437229982,21.264448719441383,19.224961485334294,5.984190785052135,-2.679009271339972,-2.6490335054744225,-6.756980279116281,-8.901384147955426,-3.7401724272583308,-7.2384337007254285,-17.7937051438255,-17.4963725644793,-14.849291190805747,-21.67939410627482,-24.481711694084332,-21.836066497345634,-26.33171813880944,-27.25987098078344,-16.339988955021276,-11.240436429266726,-14.642977924075032,-12.452901564311212,-12.189686986626047,-20.826838163480645,-21.73133257013439,-13.97473254200867,-14.300910801321802,-16.56168202590458,-11.508685043279344,-12.081705179283441,-17.66203655285987,-13.73991140059492,-11.698365651032566,-24.2970684030961,-35.03599032173501,-37.13123447054568,-42.34739358352449,-42.62028884538835,-30.859835015316207,-26.34778828177146,-31.67185196883432,-28.823817810351343,-24.32823189736135,-29.22621792220171,-30.741097756169765,-28.019618264041636,-32.94644282797006,-33.713187838395925,-21.55576026814319,-14.549296424318428,-16.193609210351585,-12.559544383704672,-10.795011984863319,-18.995420740053046,-22.287791371229957,-18.340841650416138,-19.434144555233033,-16.68380545718596,-3.934336381486354,-1.1359816396135447,-12.172300849218214,-19.7694772502728,-25.857479344537786,-35.14947406445973,-33.361981767584865,-22.63590130193359,-20.769907113725445,-21.220838775750387,-13.881764928238528,-10.59770856974153,-10.36762438385146,0.3360884180975212,10.323983169427184,9.178599542520434,13.927097660220115,29.404352162466154,41.866362484962714,56.18045487336702,76.11328177367697,82.0624335012147,71.53996904087026,61.976531922819305,50.96931043816979,36.48473332337859,36.704526036629886,48.499205586980096,48.149084506873706,37.125424853619066,27.043808425866573,13.884029940231008,6.363067382998351,18.843251376734973,32.8243498895566,29.51212832547492,23.333964571593942,22.393106790513183,20.049587401856783,27.564876312697226,48.98181055447283,60.150170177854584,55.16364347154871,51.59566068465297,46.140881910213004,32.048799386810266,26.154412283797587,30.916066272127004,28.86077689696301,24.226438686633134,25.30554112360462,17.613270117325218,1.9267759266472377,-1.6154900628945588,0.7492745135594743,-7.248603216484623,-16.807199301478388,-23.265613277397176,-34.973929588257555,-40.67058296302796,-31.274548625686847,-26.29871321555061,-33.21625422862288,-38.052263098798974,-44.73437163923813,-58.47786771607771,-60.485091717425576,-46.052356981667515,-32.230139386351915,-19.01552157272748,-4.496352207370203,-5.8364295399978365,-19.88556090640063,-23.296022222809324,-20.447349367190213,-25.540295524872192,-29.314258150582802,-30.805409409471967,-42.35014874935119,-52.19665807036846,-47.80686067535278,-45.59126617965048,-51.216257457090805,-50.9670574604949,-50.266357999596906,-56.10168508438551,-52.80996521317188,-38.94745354391637,-32.52153323593309,-30.60352772803504,-24.137517529587143,-24.694025151199952,-31.227985862754196,-26.131787904534306,-17.138464751414215,-18.73285707875842,-18.835882104571535,-14.455030834957444,-20.760529863126575,-29.76337588027793,-29.89756360984034,-35.53026698684842,-46.627716723920386,-43.942028605326755,-34.967040713379745,-35.586081463786726,-37.63673456355696,-40.50299295029929,-53.698440845862756,-61.03768200784827,-49.27436170285739,-38.64388091165386,-39.00511040895776,-37.83188699451462,-39.73108798241319,-50.09294972523545,-51.356838339713626,-43.30419644208375,-45.250901098346105,-48.74600484978431,-39.24728810382933,-31.836263465244325,-31.746300468393716,-23.94971348879789,-16.333989768783585,-20.869095496710127,-22.200699447915937,-17.274400970264118,-22.7157744085788,-29.426495087467643,-22.358631787505743,-15.986922964841366,-17.231028873987245,-13.62469738167546,-12.269991455661431,-22.256906028435743,-26.742160364495696,-22.541069419528135,-26.181615900764267,-28.6542046113995,-15.867811660168348,-4.056054470963955,-2.898073085151594,-3.16694637860168,-12.269641012287012,-32.44104279258798,-36.61696737377349,-19.34182863130691,-6.4436066293183405,-1.9751563150294484,2.148267475406993,-2.7197008094524167,-10.306529385483476,-0.8585664769412751,14.655689393053548,17.66528377906048,18.652120411498252,22.596301199860587,17.077743908662008,10.258308170526055,14.984980247210974,18.0923869559388,15.594476000308623,22.300260375355233,29.422570739902675,22.90897344490891,18.756364022085503,24.276068371659093,24.489932910959233,23.34859986192175,28.80367117846076,26.524920821589248,17.978023031600006,24.70236427900935,41.69465310622893,51.13743284390685,57.24272449924764,60.21894205011123,49.680404740860254,39.13259359109961,43.954325969966476,49.178998803568064,46.729303337560864,48.21597439738217,48.27211962421922,39.61710971535169,37.09749511881043,41.95105773030241,38.17323733966387,33.63538092892625,40.27759198234282,42.33256404146551,32.59279611440323,23.375558449525748,10.688011440371323,-7.483211582436283,-7.71996136569938,14.115552292420329,32.59567092012885,41.35190961914354,45.96209249876942,36.10339458993454,17.32201607807831,13.674540218655846,21.68979248730035,25.72238129170193,32.90248970214975,42.699176288925216,38.55844272136392,28.236259166149335,27.09496931888227,23.941282231076976,14.82115933660169,14.80275333501296,18.60957198535034,16.35148349607595,23.351165722920275,41.86491561261982,51.420644241830445,54.29632033653117,61.908293527590544,62.263581159198054,53.32615154798259,51.597131772851554,51.92521983346938,43.31097518526571,39.06540027523277,42.24187344861866,36.7221593948004,28.562359246308283,30.338327691219305,28.59304689824672,18.313777656412594,13.628203046659703,9.315671684601163,-2.704766958964352,-5.998282201917257,3.5247363422200704,9.233722132324273,14.15998132940066,25.990083528348535,28.016675400171064,15.974233642007425,8.77378268812547,5.426830855367442,-3.3167348071913962,-5.078119525300091,1.7928584232784455,1.4668829295141554,1.2571092967249036,12.752454696157994,17.936491556945604,8.290684230486805,1.9666515931925175,1.0600251852367506,-1.042573090355845,7.991129666708835,24.93936254516971,26.289278474758813,16.117028250372467,9.986336460388213,-0.8887366649742781,-16.227247433747557,-17.54281031369643,-9.976876815441456,-7.333229032547605,-0.9539231982887264,8.316156620954633,5.3412995693439616,0.8991399603957209,10.276505840739274,18.850385925230924,17.66368549040274,18.069582953810187,16.44062759361551,5.81911470129291,1.4251502372400948,7.359270647690857,6.9191251722419755,3.069019169271443,6.013575673779203,1.8871169849484897,-13.053421633840342,-20.243042467570124,-19.7728224989633,-19.370136852686475,-8.514359165780535,7.689422560111564,7.539995090016273,-2.38656890631992,-6.02083922558727,-11.351207020219828,-17.623624082531745,-9.691514774158215,0.4139614936304956,-3.884496251669426,-8.398616334406016,-7.511521044838256,-14.92214963068796,-22.53978058817449,-20.098839131041256,-24.45591922170363,-37.66242742467884,-38.46037131576979,-30.948803541049905,-30.26053577052007,-26.195149035192536,-16.07741155275866,-15.324409319982365,-17.574734734440078,-11.608763675077924,-12.25289284817054,-23.34950600789494,-27.251056007315103,-26.952040519783186,-32.5387395553167,-31.44262988470514,-21.724801578994786,-19.616145780124693,-19.947065376710327,-11.634065257979305,-7.20688807614917,-10.075503403465222,-6.749710664507267,-5.235941478538777,-16.5809808979676,-23.280088207616995,-17.410586574827896,-14.50615108946946,-11.85517157623537,-0.6086402948017255,3.5837001435390183,-4.09829384954968,-5.953844065336684,-4.203481896080104,-9.297952160378903,-7.861286335100806,3.465743925364969,6.868823045397693,7.350666491495525,19.464575729034955,31.240078233447875,35.86102038011602,43.797353319732885,45.99867857598099,32.97992838093563,23.95388818628562,25.013724818919975,18.021901036785657,5.196418839740075,-3.1558300463393856,-17.625586716483713,-37.56117822769578,-46.37718073688764,-51.15723895071071,-63.35582489716654,-67.79704906151008,-60.10897804872823,-58.45534361537222,-61.263273443203694,-58.24050449853266,-60.688343517849155,-71.14761584359614,-74.90467900093654,-77.43167224152353,-88.25265874767274,-89.93629044832147,-74.99726193073231,-62.47088145104999,-55.84436621529503,-48.55920771436924,-52.524348171828336,-66.54334997394886,-68.88754247747265,-61.607988090000134,-57.703406788257894,-48.51173484676762,-35.05115634583143,-35.55727813468514,-43.298978281160785,-41.11966213685815,-36.91894112310454,-34.747049493362525,-23.679658586121988,-14.566996400346273,-21.739263613935446,-28.030159349706366,-22.409206952694404,-18.652871790052874,-15.480903338618123,-5.7025954809723425,-4.92045320024961,-16.416263833242244,-19.452058467485458,-13.843169105768563,-12.815423112845163,-9.045740578193982,-0.5058291348664725,-2.1435047793819466,-7.361755085130121,-0.18339067160647993,8.461992948075185,10.767393932042678,18.37660997854658,25.860422252894857,22.37023873182316,20.93482655513849,25.58661109815869,21.509221412951955,14.797893130792406,18.555057674766243,21.473138640441395,19.453885939646213,25.30668661721136,30.819032316957177,23.43834674778846,17.37601389375543,19.938705839306863,21.071992831534335,28.504937915919694,48.84530134681831,60.31036039926511,54.52383525947559,50.423051047126044,49.972222551249224,45.64140239738455,49.172045596598046,60.30672326511767,60.09142707191065,54.40228649978989,58.523120602331346,59.06763474897765,46.776394249040266,36.11857098196374,27.962249018301762,15.634743674604067,12.727049581071402,22.32756117831305,24.98220302949121,20.323875246789584,21.519180793464542,22.289299161944285,19.549685055918598,25.320983713360018,34.12905912349377,33.853720647474034,35.267056918068434,43.04053490411857,42.10520485518915,36.16135117594917,39.02709114922283,40.64751411989308,34.78331848547567,33.92434510794612,34.50606291708591,27.999074902259704,28.409376930939537,38.05777842051422,36.255558958537264,23.994616477327135,17.38979814494842,12.026714941465759,5.879953740027695,10.472428240173562,16.687129058752813,11.17556598403568,9.462450673435779,19.868789807654583,26.183851532482983,28.40973695726637,35.85890071219649,36.608460298103445,27.276040737564156,25.24598125583102,27.12630213711897,18.208262773687846,10.101252416533946,11.71195810624032,9.813045983837352,6.716892579328189,12.936250771473173,15.009497146529098,7.016801530062984,6.500099216092911,12.137504179302118,9.637687637733272,8.145961656044111,15.166288547123285,20.780081790132616,30.531441213168087,51.43448868027381,62.20426190859662,51.49705226741579,37.72624056882949,28.141855349312344,19.156378842283033,21.728341548183337,33.77662786788745,32.75822741881095,19.742903089395043,11.69802002566057,4.770114727757932,-2.357353501013422,3.003021085370967,11.718016156750052,7.367121009422221,0.5437775014982804,-1.0020409354697746,-7.673424101169586,-12.58165207798119,-3.6704896142075922,2.900518401782231,-3.624478505685577,-9.681261968867826,-16.94769577592447,-33.58942782631394,-41.62599977146413,-32.967808886760906,-28.217520003371924,-30.779521702511264,-28.487629232957538,-29.428278842659395,-37.6820711337341,-38.61801261065501,-36.366273647958785,-43.62040119137184,-46.802786338247344,-37.35276166834394,-31.59150599741961,-32.41251309311055,-31.385716571093567,-37.195725278778696,-50.11550299325235,-52.89369788904834,-50.48843754216894,-57.70403099551989,-62.890351056369795,-59.103530725528266,-61.21716478489638,-65.68517294552368,-59.75465328043967,-55.17825251777237,-56.454771530865635,-48.80069605507761,-40.19159817676049,-45.67879423762075,-50.0547932560085,-43.47728823164284,-40.33587746542007,-38.84664994997058,-29.3351697615933,-26.417987374284134,-35.784864539291746,-38.786741732810675,-36.35894285140196,-41.35723660867122,-41.098176067598814,-28.320707895581485,-20.50289755934103,-18.588440422563032,-12.868040624530344,-15.48822667860932,-28.887737369447308,-32.98975163433616,-29.489779896277064,-32.20014820892277,-30.184910514452625,-17.85543433108542,-11.316510290771642,-9.007672973019716,-0.5761496025601618,1.2614563826234135,-6.167056929528336,-2.3911302383173507,9.536252061614015,11.17357800381085,9.929302482412353,12.489158653060324,5.400934903943518,-6.8432557741965265,-9.482480590952289,-13.481985993113637,-24.919237824536417,-26.071847680677827,-18.22889780019448,-16.97221635680821,-13.86029998420135,-2.3504208172440357,3.51225432490254,6.618132781211601,19.174223598433613,27.74484535806881,23.44852193626089,20.638552316953202,17.752575220458596,5.6004118929966475,1.1504063511017515,13.323679677882627,23.394260476457152,26.915371846852018,30.423949800828556,21.677207471713324,0.4836811243893191,-10.654435817938682,-12.159082699653522,-18.498157670603817,-20.79534783320213,-14.364405413379206,-13.658996353924763,-14.482809361019457,-4.015234232474366,5.701379856766528,7.697774609021258,16.29240993166364,27.842825677607767,28.408543954309096,29.250818434822264,38.022952156419834,40.54303649106734,40.83334516232246,54.1588828026794,69.81076356386468,79.7880738143727,97.79310026236344,120.11413132398093,133.84953386084692,152.74290455171632,184.71929157631178,210.95853220917823,226.55482150351295,237.93808168675352,232.96546864698522,211.5514776448876,198.4949916773288,194.9313040477575,181.5767081060905,160.7510395057179,136.8916941322154,102.56058139657333,71.28072003151131,59.146499826682884,45.91553604566458,12.76064445898654,-24.384994153910213,-53.25905523568432,-75.73040210080369,-82.55698161001064,-80.52883207452729,-99.02608760802357,-131.67381532140857,-147.61407808286387,-150.21531171263797,-153.70049472097813,-156.74927810257273,-169.1782487527272,-194.68563224997382,-207.67211899676442,-200.4607192882256,-197.11694168697818,-201.61148688796004,-199.90951750532508,-195.3423182936459,-189.40495898975217,-174.10572424538202,-162.47428310506749,-168.18637317226478,-173.5912705905174,-166.826026065136,-161.18356765716123,-155.64518867006646,-139.0787144530501,-121.64550756421849,-109.69762008291326,-91.60714002587022,-72.82000251183271,-66.82113471470501,-61.242741742795516,-47.96532882623241,-44.15659373565067,-50.73304995499331,-52.35839737120295,-53.58440693752473,-55.92568269214012,-44.06270368406393,-27.31935382648423,-26.340552481739756,-28.543409548025075,-21.42516781403254,-18.782457742733573,-19.39218924269981,-11.174947060593368,-7.177262671940673,-13.141276229521432,-8.023855977641075,7.316137165544976,12.623507604912525,13.965372193649365,20.022778195731718,19.20342070021323,17.547986916063458,30.394884952324453,43.358119353047854,43.83036945621914,45.416835793665854,48.761798664665804,42.66095517941897,38.34330795832763,43.3905080633949,43.43786322969012,42.74156873076527,56.494207765270694,68.61127548238895,63.338585442170164,55.01432644387444,48.68895227187484,38.711582045999606,40.78669515250376,59.42212372733459,69.38735117638296,65.70219734760808,63.568558787222116,57.74011684082903,46.11965156142273,46.71814474225741,57.34392760730901,61.85281310736967,67.98015744956976,80.87996479703072,83.12148006764966,74.87102394737758,72.10748840646295,68.99019008808303,61.1469897380823,64.36461194055997,74.56023424080152,72.2673190153287,63.94979029743385,59.894897679000415,51.71708981042483,45.338594783632466,54.91512334143751,66.6159075766029,67.09474656252918,69.25210600393353,74.7867926010853,73.31574729397428,75.83639970891768,88.05475292299167,91.9125880289134,87.24758373581943,88.0089955400705,84.61148731875087,70.74710159440946,63.57138257778337,63.647675505427266,57.71330579353947,54.1803716031627,57.583331052547074,51.169833317451754,37.19044660893024,33.235082994042955,33.15591418665491,29.645887897940906,35.12318016434647,44.01609858768284,37.27139752185494,23.77075084442422,16.27177194797746,6.963162485734131,1.9991607477851459,14.516790568701508,28.26134411699509,29.588280586771297,30.534154527340483,29.162038944348055,13.687526951320649,-1.6832176953606037,-4.353697563868781,-5.678732850389105,-5.1579810206441445,5.40189543905103,8.487162808425198,-6.0652758069326005,-16.743945082902847,-15.657439674777375,-13.822746879071659,-5.6104422047594955,9.191662171313554,10.032946535636123,-1.4136568237989864,-5.8963364969319105,-8.629246642017302,-15.827081701627929,-13.57140207596942,-5.840480696754742,-8.79235894870455,-12.326754749692693,-8.153057208544876,-11.135525757232038,-19.038076823178876,-17.338466917528635,-17.169547010132405,-26.16875900540405,-27.733065619436378,-23.872597622332837,-29.44982315133001,-31.775196071151342,-20.98623227383491,-14.396266998526619,-15.27961147696678,-11.812975827979193,-12.421683939755463,-21.62221345346142,-21.80982313487969,-15.44492617170997,-20.69293060445185,-27.755722714049725,-23.93849726149352,-20.796693675494907,-18.98765560179564,-9.758918723401178,-7.269076845757489,-19.003636266173235,-25.384882750816864,-22.629255870532745,-23.75856487689204,-21.367836567926382,-11.423924637623136,-12.829376439674965,-24.592493867520915,-27.354137132743183,-25.489617045827096,-26.390210289117753,-19.976069657970417,-13.443923568887254,-22.334541552906686,-32.14430554158081,-29.31831191642582,-26.37713309937343,-23.30235141017928,-10.66174814147033,-3.7944608227836514,-12.698114053902664,-21.068824023451526,-25.677894329056812,-34.76035352125574,-36.46977230737831,-26.110090285115906,-22.834427283862397,-27.71706686367435,-24.99780415533265,-21.52858099894859,-26.030955394445503,-26.59591853860038,-24.746238010638255,-31.202680680378293,-31.727442209344858,-17.469278133251446,-7.303704004218642,-6.446768871416128,-5.129588091248706,-12.025478742123983,-28.057834749136905,-29.90048118642624,-16.762393030981176,-9.440888136598158,-6.181449548901436,-2.1565720832975295,-9.44440476527967,-19.597978849261644,-12.560944301603552,-0.7812998131933448,-0.3723468886109378,-1.3205114656486985,-3.5909079212135433,-15.526723492789825,-19.843387321321945,-6.321769667146993,3.8205365561435185,4.341673239510236,8.362091717974273,8.938547393831032,0.9310808202839609,-0.21574892120567402,0.9450108150214641,-11.660579326289412,-21.98672915762922,-13.483561591157045,-0.5936927172614603,9.54106612711529,22.095948921673838,24.11062142175603,11.185345953669572,4.572757865827079,6.218472763144586,0.1430868975689763,-6.387221010307249,-5.637929930195298,-10.72319553295054,-18.971762189937255,-17.263976333906896,-18.231074975992097,-31.05581257270018,-38.63494175131062,-38.17098197361751,-41.23089637788161,-38.18135299287177,-24.3766696038766,-19.216365862338893,-23.19325741077979,-20.41193284582088,-18.62465794875603,-24.71369542043333,-22.94738454383313,-14.294849307251313,-15.571605355310671,-20.06940003225831,-18.031706155508864,-19.50862239832873,-21.25005674150566,-10.97647493094075,-3.0888487922669636,-9.670395231682148,-14.38320261053352,-12.1842491021661,-14.218127765835753,-13.711674954487993,-6.470294040671401,-7.5731137890298355,-13.91351125181114,-10.231761927683653,-6.769522632505365,-12.709508225071136,-13.565547024874867,-8.748250046387973,-10.805398145580885,-10.08194028205693,0.7556577162813847,4.7770474279804525,-0.9967823336332811,-4.072799452144502,-10.695751989732818,-23.380365016935464,-23.593147304255275,-12.745568702748526,-10.160439396619793,-11.211572919268534,-6.842909048576952,-7.680044427589684,-11.443221441257265,-5.1343186734792,0.003423448416452146,-4.219872221440955,0.6408463764362682,16.44786370459633,25.454286728582716,32.15363553104785,42.81776774913092,41.99611584747434,32.30579091872255,34.1937552468686,41.20561357320428,40.19437617814801,40.80961497528648,40.710606835383985,25.225798588015692,8.114229729354015,5.657836292137858,6.720198900743347,9.184843934782311,21.220597424327558,28.17123460998856,21.098049618344774,16.97798286621806,17.773907348932457,12.577584350753519,12.6174547755896,24.40191477995022,29.545902133243406,25.53140228874947,26.72415490213165,26.45182475888343,18.599195693248568,20.138809357506226,30.92527522546702,32.38922911687171,29.994159579286958,32.3008310076364,25.06665208589774,9.948259753781441,5.788319637224003,6.782971005621839,3.221012074950569,5.886596230303893,10.545164351008673,2.1069187465620756,-6.5522146263652035,-2.7933074795380515,-0.8777049058186569,-2.94304724738396,2.4099577814872637,4.547303981730076,-2.8218103794206875,-0.8356078052823621,10.826200042599874,13.885101264107636,13.808712881722634,18.8601263271292,15.96571154282655,7.2062228342528005,9.156628179311864,13.314896353469916,8.955428031081173,10.118843317504245,18.145176563924483,17.612395794494248,15.52061107466334,21.650821537415922,23.04929675424554,19.593303367449142,26.230024258554135,34.62564059519326,33.57205943157507,34.56628667518952,36.714010694525996,26.156872473509637,14.815757847463221,16.09169511780858,16.12984778179052,11.198970588590777,13.585191830908178,15.126292190192459,7.132675455816225,3.41059521575197,3.035830181983072,-9.997578737266098,-24.92239231560422,-25.721960793430803,-23.170391981521853,-22.630591856396766,-17.067033797561184,-18.421174407093492,-33.873126763516936,-42.37827424531828,-36.84120119434273,-31.562536662842867,-23.762770671196755,-10.502987324702175,-8.252380580715506,-14.82690818887908,-12.095551471464592,-7.616066244086979,-11.957201433102457,-12.917355971757132,-11.787296372239112,-22.454903474701133,-32.79087026433204,-30.119010859312056,-27.851914009850155,-28.07311585013285,-19.594709869023717,-14.064465550895415,-20.754788923178108,-21.860252055036504,-14.33929647201543,-14.759445702582912,-17.393704348628265,-12.678080528644845,-13.782412533878537,-20.102727945580174,-15.877510889442295,-11.221414586839291,-17.753789264564553,-19.845549210501133,-15.423487177230044,-20.345319120113327,-26.271013505530874,-22.286456596224767,-22.50385396185267,-27.841496985252803,-23.993461718944815,-20.687242150570658,-27.444405277537278,-27.47989238926784,-17.92954476139274,-14.39558086709243,-11.133410254517361,-0.7445754082717189,0.5158189496358198,-8.784484911892859,-11.097852680609584,-11.290841640777444,-18.14009061358905,-17.50564268339334,-8.399528101209384,-6.49411635571659,-5.561394389809075,2.3522385107230614,2.006342947197097,-8.041966380001938,-11.417157903513866,-12.536779113857076,-18.877955976773528,-16.566092312475266,-6.431926777348471,-6.94363450147401,-11.900532881843452,-8.368788767026713,-6.535009111993696,-6.575586342652136,4.013927914874152,11.775222136153758,2.664345599517263,-6.150089345722664,-5.805841564808396,-7.274959575033004,-4.240711158129548,10.466191194310266,19.51758226685606,18.755231277531422,23.202976961221967,25.909573675424692,17.743319302785565,16.059214465584567,24.78218229655655,26.68643270871323,25.338507634654935,29.170490980956124,25.135817548244034,14.246588835731199,14.244541683435154,18.19830722816438,14.418648897437787,15.231757622975348,21.18511957507101,16.77131891796673,10.413624563219662,14.247540730378976,15.437549368915121,12.216934956797735,18.159986008272647,22.94144777400374,15.03894432416995,10.039899165021547,11.86917207066446,7.869612438534052,6.633791729065188,16.028857056470116,18.671264621836688,11.60685501109602,11.78745648349986,15.021917263993974,12.260715265494479,15.990808618841026,25.20874436912587,23.398710150616417,19.0842737504013,23.934231217324292,23.798039629292546,15.399214454073519,13.080547480778261,12.15392340687266,7.7015302389236435,17.350584991671536,40.80203047927771,54.85898828822882,58.126399327595045,59.129096650710565,50.80539834809454,40.15119101333832,45.01429258033747,52.74992680063708,44.919315486613726,32.81123696241478,24.337698199946374,13.628617845053029,11.94842913251146,25.06887241502487,30.352743088404704,20.441172634281628,11.405417033367703,1.6825030180911162,-12.611601601435797,-14.698137069818506,-4.559826755264998,-0.9475286607474185,1.5509719673391889,12.089707355109036,14.190693348472244,5.787063759891656,4.235269681901761,2.9762016867131957,-6.695235277432176,-8.740468771586144,-3.3429896900961715,-8.745486600441774,-17.69899687152368,-17.966295289254408,-21.65260778283864,-29.897222767973673,-27.243369777640005,-21.59825838703883,-27.010634988240433,-33.62883084267215,-38.790182393051005,-52.57155196409188,-62.54151457387247,-55.04057883796125,-45.55024619543461,-43.8019491737036,-41.448461568597594,-44.38017895038718,-56.247813065523744,-58.42360125762306,-49.74124790064565,-48.72687088079386,-51.09968795287558,-47.32932163888738,-48.553403996835364,-53.83477355511525,-49.11078128069107,-44.1155678876827,-49.023086637938626,-46.817366532591016,-32.973010544748,-22.808041638287342,-11.607228234626602,7.583180314679192,19.03572714908566,21.18142466158099,29.13234104717275,34.60085837000472,27.091576741314004,22.249888264060225,24.439389832812196,19.915097959811163,15.760742064492732,21.71586576645039,23.062487880325687,16.586866764955637,15.806926531686363,11.209701141040053,-7.826576352864837,-21.514870495223047,-20.719316238378028,-19.53149899857184,-14.813944420415243,-2.202369057170774,-1.2674162121844772,-14.659259754449925,-21.930367149204812,-24.21741747661592,-30.009661066848658,-27.65470693962782,-18.44571736969018,-19.12954312948529,-21.335617439819107,-11.833201898485676,-4.146074820912653,-4.393368723401162,-1.6085301863729935,-2.3664010895370264,-13.051697724300592,-16.02934279448755,-8.24316162321141,-7.396893752290464,-9.35468499501204,-3.3422076731206163,-2.059073297050548,-7.937769074789608,-5.395053793538457,-1.47216018913557,-8.239831938817323,-11.461539697753468,-6.95544318128079,-8.18235680257953,-6.0946526891170105,9.213443715940766,18.37288971318324,13.199095277740856,8.287797687267405,2.7417717792803566,-6.9808920800092285,-4.9156378260102365,8.941920526413623,14.402541022946341,14.183059946727457,20.192126358959698,21.526111402511994,14.291313099719435,11.003300133063284,6.07390802434611,-6.369460456136842,-7.475940642249252,6.424232939265953,15.68161998539708,20.30871060264733,27.513608520273564,25.347849177098556,14.91825356847528,13.334220784336738,14.231720758407096,6.365739172665595,3.0536731046213763,7.808369777294788,5.947207773161795,3.79587126745776,13.361382526839822,21.902281656861263,24.20020866693307,31.32438042379686,33.88275464939948,21.07824766845076,11.35214930718055,14.549491194133015,18.509242773022528,27.004592634321686,44.111903200697576,48.82540190712561,36.8384717331334,28.350066038403245,22.476027074147446,11.983505144750431,11.897358398715001,22.99697668202959,26.14770846980178,25.757293016523885,32.53580167375791,32.249197623806786,21.96085980240413,18.28842813857228,16.59694544946564,8.340455042719709,8.93989355055766,20.252957064286917,23.259966781247616,20.01555531707141,21.286768075967355,18.347362826765448,12.182512797330329,18.09112489840599,26.62841119302565,22.269896300024275,17.740943689929043,19.606041376488292,15.237086441863333,11.971679215816224,21.463826891912188,28.04433281829732,24.919480611239493,25.233599645218327,22.51446013254303,8.479672658555502,1.9886343001416873,9.161812261158175,13.357236137442076,17.35145069369109,29.47573434053327,36.67327003976762,38.5151183399276,50.33461069906204,63.005281694114,64.25217696260741,68.41755977497041,78.18519949792193,77.1231651787338,71.3125831922093,72.22811615571705,67.52679220824236,55.911584068444526,52.34269658675651,47.59210822625642,29.439688971930245,15.710006145684334,14.902399548707319,12.245644007861115,11.245128596285248,19.829418870027315,20.377635771547425,7.6943211543170555,-0.18869001475473524,-5.7051543731736345,-18.369785026589994,-23.876490403463624,-19.533623971466294,-23.29257846208169,-30.1896923120683,-27.350286926402497,-27.669190368544054,-36.68075739298997,-42.10660397055632,-50.30474449240067,-67.98558647751818,-76.18088247441028,-70.22326936840955,-68.7243624059711,-70.65319341540066,-67.61226023924968,-71.66524491383538,-81.77776466983491,-79.11067917038055,-70.44388388618763,-70.76044876975055,-69.32787014840466,-62.92368344153485,-65.00046017547007,-66.92235437865017,-56.325378111415844,-48.28525367868251,-49.58522830154157,-47.255709952857686,-46.30867022406314,-55.966231249592276,-60.79302027749372,-53.85376847048677,-48.72765508689205,-41.17829490058673,-22.168973788153632,-6.28560958833579,4.33363969527141,28.30423466856655,62.13035819207831,92.29832773358297,124.02530410435364,151.7729651494741,156.71336054944146,148.3841728310764,144.6244132335901,136.50894265938004,121.12874865175942,110.00475375209427,92.53701823491687,57.04294234198264,20.963758135104058,-7.0678404487145885,-37.6426996487887,-61.18993368882294,-66.91050580026007,-74.11521413312788,-92.08119983456612,-105.54116318993223,-117.57521735720408,-138.75459417996967,-155.14266408992765,-162.53541753868086,-177.43732125657124,-192.50091035511582,-191.95510968666585,-189.71737560638377,-193.5158737294683,-188.4174830659527,-179.17409351559783,-178.79757438655986,-175.9732327475187,-168.12123474064038,-171.06242830949725,-176.7870716683027,-168.43346787175386,-156.14045872818974,-145.41175998230298,-124.67281651790265,-104.9351490296012,-101.8414008146078,-99.00426827877995,-86.08532229958813,-77.13494191902574,-70.52004405088255,-58.30292541118944,-54.018063819602474,-58.28978058081799,-51.06749627880819,-38.5340097733654,-38.5452070517281,-39.5271862745306,-32.26048484409648,-27.814518305343547,-20.776998800569935,-2.1897123657648327,11.44057520028042,14.928935575892403,24.46608138867346,33.607358477385844,29.90549802642579,30.190948857463752,42.84743618643561,52.5660403635592,60.60821609950771,73.62480988856869,76.9678561435382,69.93313143231919,72.13727308135353,77.43878207644713,69.7506757000814,62.186269214053056,63.592843713132865,61.623779227063295,61.769754256671206,75.03257283491841,86.05753646655793,87.47211402534694,93.20392066137937,98.30928297247907,92.19448422851045,91.22663986354526,103.23799353854572,111.06770207477877,113.16382009315976,116.74644985472327,110.33568194822757,95.88082636441939,94.96520194316366,102.69861663255587,101.46821557306656,99.34813789870806,99.95823685293459,89.49667278679166,77.26453139891336,79.59196160234443,83.22066814442826,81.07413727437341,86.91108159256555,93.14574206504442,85.11611351267081,77.45055725940847,79.11421864531596,75.66699741683335,71.04776338986944,78.03616934240867,83.57002271959271,81.24394527478027,85.3172453232755,88.81252416694025,77.38706294780353,66.93797342089206,67.84219945046786,65.39951788536595,61.68893624450483,66.18758148402317,63.90845902238262,51.189042820041465,46.78199252481961,46.83253960443576,38.71641102893898,35.80552847204654,43.06826031224492,43.840537684948174,41.36177319073151,46.820796132456884,46.70269515430894,36.16959365240308,31.828200992152464,31.019663194649965,23.416537686124357,22.031077235499705,30.013074911070778,29.02550718674388,22.02491008873411,23.192772770794488,23.16121540451337,17.506613146851585,18.7693736366733,19.006583764653982,5.681688035689507,-4.862488863320349,-2.790101236601248,-1.2617632513659074,1.350840647085129,11.461201231264763,12.789110506370411,0.4418142419758482,-7.138912364458699,-10.303873079254892,-19.390442063409967,-21.36361669179136,-11.534079195014012,-8.82479334448692,-12.394696077390563,-9.86738384978289,-12.89724581201881,-25.540996697113584,-29.244563585293818,-25.67564199638749,-27.92264824103468,-25.47540148695634,-14.575636133444169,-13.353972311754994,-20.66973661942244,-22.720598086240003,-26.49494424128093,-33.7776532394371,-29.53681195135796,-20.237306461326135,-22.666008910151948,-28.49913827554833,-30.387707353450455,-37.53892182586431,-42.62710647506652,-33.23435347694665,-24.388962390979685,-26.578787135280795,-26.66187195719383,-26.61325016805963,-36.19721647359177,-40.95760397106329,-35.237249544342845,-36.59987777145426,-42.32630629471217,-38.90907182591323,-37.421678592365396,-43.02575924181136,-41.448882363485055,-38.67550300244035,-48.54538865433513,-56.71088637940257,-51.446698629655394,-45.50127499191107,-41.05892474596067,-32.131788883849936,-32.30201521220526,-45.47749016232679,-51.18654956649635,-46.683727192830425,-44.11502115289018,-37.284932996980146,-24.683437486865998,-21.721644508823054,-25.152593330623283,-22.77440496225291,-23.771988951334308,-30.243488510082756,-26.687268121201406,-18.618784129523576,-20.4319478809791,-22.195168433966465,-18.694978996193043,-21.60457366235292,-22.18686567907189,-6.172092130729865,11.416454650149127,20.037427776702653,31.53272335555983,41.30492800082797,37.21373628564898,31.991310785719616,31.406997139462575,19.53971309311322,1.9472270829289409,-3.494007708223914,-6.878826194791074,-17.424890565001913,-22.510128466814535,-26.626640953759434,-42.78454390794233,-55.68781531693985,-54.920654321603266,-55.57628502233913,-56.90985537631295,-48.28745819843475,-44.205134841191004,-52.739711842667994,-54.95405612703697,-48.00916926103403,-44.149043405129284,-35.962870647492075,-23.599572738767172,-27.1263145879332,-40.1613799710745,-41.15689509502619,-38.065609959859984,-39.38850551706882,-33.36086559538482,-26.52767089215812,-32.916295265743344,-38.40639302687086,-34.92816955243152,-38.00865673600949,-43.75428724658094,-37.30562542765217,-30.57956217242598,-32.86354883737064,-30.919581135677955,-26.27291334544349,-28.56616319660994,-24.00923016313768,-7.9600120006481045,-0.4307784881868759,-1.6277295643413323,2.0462046422960367,2.4907190058291633,-3.685720410679693,-2.3373395667465617,0.6317150626543759,-8.257644739681929,-14.714761868731214,-8.66379674753,-4.618734009707689,-2.812882271482747,6.231986079673489,9.338187698261187,0.6374035609151116,-1.8562137541194985,2.12036074142335,0.509140524288249,3.4812012003699624,15.029808059568017,17.349243635151694,13.01428257369474,17.8951487110438,22.076967356280687,17.760561539774994,19.6438920707772,24.57690493902254,17.70469929545797,11.18843367031342,13.764386464010734,9.769124344290287,2.711861579481695,8.573456905606273,15.07274335041322,11.970993537232957,13.933324990426797,20.62012184757523,19.55624397236752,20.167011637179286,26.971283184183413,24.03774983478685,16.131682955239896,21.022924597415347,29.30927019020029,30.60937301661115,36.09146585634829,42.777477770552665,37.712145897438134,31.708713729629338,31.730028544632585,23.007884929179806,9.996425692344996,10.95429627324156,17.53781595463275,18.830994619397057,23.691852017404706,27.24790236428221,17.65074671389658,9.179476222851635,11.975608783639197,13.338500628296519,15.711438203249537,29.618007379260767,40.40809911570089,37.71511596576505,34.61200105504578,30.097703253605456,14.853850593815288,4.6972695542850245,8.586056974004068,9.669735650954673,8.96094473734012,17.85366717980223,19.99703548890998,6.960942051060319,0.2985566892236654,4.069524395493406,5.996351991640642,13.607745279475374,26.12522109718449,22.047332977490314,7.275409189639633,5.778711274133443,11.275214366692103,12.303582075375516,18.496391083491034,25.292029873819928,20.0871438868962,17.35759249563034,25.407688153676094,25.42376712309639,16.68849651282394,14.613357148489715,11.115229787766944,-0.5240735102233813,-4.785172755800949,-2.6553059036282534,-6.937552758156422,-5.742423520197471,6.795654367209371,10.434856904993827,4.753051148238876,5.637435792569458,4.529728474675119,-3.497423960045365,-0.8306829967176577,9.721853328329049,12.101615598096355,14.495630081351738,21.105422115851145,17.14945914430524,8.462944674766977,10.625603174264295,12.118140302064255,5.246999153238562,5.629711460318121,11.37481566109267,7.986253832435452,3.7801851288443267,3.7063227430284966,-4.935679700341208,-14.162830397750863,-7.813424303857906,-0.0922543918874481,-3.0750594121975325,-1.9025701253109675,4.386531107184253,2.212555628683201,0.36776795473537177,6.147770158003976,5.582859593206507,2.1717534690661835,9.667070864291784,13.535103032874469,3.728344100937968,-1.2915067873840964,1.4099846467515802,-1.3373043791388062,-2.5605069327513985,1.1008409108913086,-4.869289855935751,-13.324997540356739,-7.318037943542745,-0.33803935349573355,-4.838202780522617,-7.6298576805524725,-8.757819993366384,-17.790217591389563,-19.139090969552033,-4.62407509632345,5.011212807504626,5.374327015919995,8.764424138738823,6.480712971948961,-6.025720756254149,-10.169380080382645,-7.094301434887342,-13.218238617197537,-18.017635121910104,-11.609786167137035,-9.393954656714701,-12.372145223366527,-9.217282179819207,-10.985085831570704,-22.4593872730483,-24.205079939545165,-15.767541627410875,-12.635481047336905,-8.720399210008074,-0.032874739385254426,-1.1216343544754819,-6.846736237973274,0.38381587975216913,10.58417361656792,10.951568577907274,11.181308325110189,9.40108449028866,-5.029285773394199,-16.493146943032755,-12.974112781244099,-10.710279938372388,-13.372772335981676,-10.860583658007412,-13.89220297171503,-26.74667290104543,-27.591961439856377,-13.30087785257138,-1.6975257385426756,8.0685913083377,17.138316771259802,10.502941868144525,-3.6925347351254025,-1.3019034140584629,12.32915440089632,23.80324244901715,38.231678867777944,48.45964926957412,39.89516286270147,25.699019105018813,20.269640799965316,14.71188657437575,10.000718249770404,16.5161164866089,22.57124598708694,18.435715013597473,16.81329117406087,16.38652105620041,3.863770541141278,-8.381349113126259,-8.447222267871036,-10.308349819646766,-14.672980314525551,-8.941495641106357,-5.197444490576453,-12.917403546209604,-14.709579878469116,-9.298204790158932,-12.190989998834677,-14.441561327816583,-7.53294895332583,-8.164119742357714,-17.19167532168599,-18.184951503896574,-16.364645360794924,-17.598490349246507,-9.612623025982503,1.4145542288800135,-2.265809256293545,-11.028428487456399,-12.818077181135314,-18.042071030595654,-25.832368221385913,-23.331620748531293,-20.794928720989727,-28.427691816624254,-31.03999233780773,-26.85490866815952,-30.728905184288113,-34.18938575414346,-28.094742642358817,-27.370907026041078,-30.824716739675104,-22.18723864297653,-12.724683572680535,-15.745845192254501,-17.88405271579745,-15.971559382754371,-18.656530144751773,-13.754864596381454,2.8428939328900142,7.596349162451723,-3.184890354730562,-10.564778896068706,-16.05188516676995,-23.471123096286505,-18.59625440267996,-7.319658973588868,-10.486046530256742,-19.754293243755246,-21.633819717458138,-26.227843236602737,-31.425166874827553,-23.701363673315086,-17.562456082854396,-27.237767951563566,-36.96714402552026,-40.86885933054238,-46.78188529652786,-41.236850667465916,-18.087448918381682,-1.7926905002595985,-0.9800722247456137,-2.244710067861746,-8.571485122101254,-20.015811042996383,-18.070296859996777,-8.074078452610234,-11.131823280050474,-17.300551529803453,-12.654073451676226,-9.237731884509572,-9.048116899642991,-3.316293471804866,-4.923846469555254,-19.311070259801937,-24.19756598653501,-16.12158097553053,-12.816615554829271,-9.818719214105457,-0.3687607307900018,0.6247571287070934,-5.988515404839518,-4.443327503003822,-2.7869414450584316,-8.68595333372619,-5.78708783644206,6.170573604401714,10.50799187993971,13.022351785439938,19.741678326994766,16.276955644832846,6.48478896290972,7.437624134349545,8.763800282477321,-0.9453613525140265,-7.2382806542212474,-7.429367125069234,-12.827845284959468,-12.389966435072543,1.6888700353447978,9.303677902517748,6.0760656776493605,7.992184361135783,9.28246522390721,3.091822283602925,5.632810878316522,15.597161742169222,14.671117826384132,11.2068500265024,17.80521233885215,23.199418019052516,25.86667406143212,34.17394264896248,34.19460057996615,19.020715836612816,11.30758550585048,17.877092423123017,22.997209973956398,27.866812197523814,34.48929049459638,27.07426395242787,10.595092399624427,7.088437208153743,10.79447015788866,10.229776408679907,16.638388373649008,27.674750270245212,27.36993892804561,26.472327445189514,36.56671697051878,42.28631948298834,41.40329124958677,46.95934397764508,48.80412475408929,38.60053673876884,33.11851234163436,33.19068568461065,23.96133321347923,15.752518292283549,19.542510089095963,20.053012347664605,14.722782982399618,17.275060510131606,19.466440299939975,12.830089382367529,12.912239440541875,20.219598329978886,17.992929918258746,13.541602448737692,17.76402912942299,17.874903357622365,14.433153193879743,24.01826110219215,37.31696634542798,39.479631057839974,39.659774573279236,37.495982498442714,21.673628120291674,6.393934992431663,4.455396142191317,0.9793415826941871,-5.240502351290252,1.2083859239781152,11.795900322092145,14.147300903016053,17.16197517834816,18.898237909758038,9.615493723799872,5.521164267271429,16.870922536900736,22.51423356172747,16.478626318414513,14.513674957589181,12.551088861543285,5.113021797181797,7.953901074994639,19.03771261711017,19.532411887834265,17.62991490651963,24.2200880345251,22.841144035210487,11.859032703604313,10.452042249919419,13.438620691847825,10.130681297136427,12.58350929821439,18.34536023500438,11.152530301078837,2.7769130224799055,5.941322593660473,5.137412192883925,-2.014648134565152,0.09886175349103299,4.546371414957441,1.7172009659932554,3.711299088119433,7.63809785362677,-1.9338293845102035,-10.91387961048861,-3.3015402401945257,5.962085563346083,9.801982612894514,16.53053180020625,14.565385721256478,-2.674899629074133,-12.932299521660559,-9.864989545909697,-8.989475653563241,-6.320480813413097,3.0590044481081122,1.6690842724784627,-10.638262254339304,-14.309077995265874,-13.853184981796163,-19.6489887589106,-19.428145067771503,-12.881350883252175,-15.273484274508428,-18.82969474591401,-13.437435479616635,-13.258033679468614,-19.5057950334371,-16.508325843420298,-11.351765280365909,-14.082664355416032,-11.44401107362389,-2.422197105623999,-1.5159418044500608,-1.4970892026455294,5.867127738772135,5.343954995602935,-3.8535206723843274,-5.38562339037747,-6.011818091242023,-15.163785711966387,-19.053715595850633,-16.79891829265978,-21.862014604933186,-23.793920741872228,-12.321442732814718,-4.928831913543911,-7.610206379914765,-8.116050030111406,-12.549450772819352,-25.187579952718114,-27.36937216555353,-18.500716181673013,-16.747745002482613,-15.956057065304204,-6.6446751732701905,-3.0942510018276987,-6.838730949012563,-4.295323459257989,-3.9881672895557765,-13.577978846644049,-16.197720451112126,-10.559395979669006,-13.177381537367522,-16.873838852554442,-10.549443972430723,-6.68944027326645,-7.362393875710378,-0.8508075690786945,1.9751249937265445,-9.969949059764115,-18.961642397188662,-15.413435669362125,-10.4443582393082,-1.8673251502310317,12.232957915950136,12.806100773232487,-1.7027869151086303,-10.283005147906712,-12.889943245075724,-16.76651799775563,-10.648197347273939,1.7810260277039207,1.794460994274334,-2.868738268656317,0.6927507912857704,1.788657423679146,0.8632467789842015,10.45250351174144,17.241791876455416,9.228274926508943,4.718882540314566,9.121244315219062,6.223053280624022,1.2134804780170225,4.162983581214384,2.2589314055867193,-3.98142118100077,0.9555312649931329,4.695460892607464,-8.079746609944639,-20.549293517748097,-22.593308532217534,-24.429362232168064,-20.64236845184932,-6.758969281502863,-3.1752755566626942,-13.916931017837797,-18.815324874670765,-19.761054391181986,-27.095869390417302,-27.908973972739066,-20.866189259777112,-23.665432542595024,-30.030602190562725,-26.867977322048134,-25.83512776196006,-27.914977882742892,-17.127141355997253,-3.540265613223427,-4.46542497050919,-9.29936831169864,-12.61370869381889,-23.732880038395272,-30.25161720013484,-19.51549984690044,-6.340134406721382,6.690291470448949,34.08953945549457,67.57330108870426,95.57325875751312,128.03768857869977,161.19312013518956,175.54136118554476,176.047360626691,173.70340902986965,158.91392475956525,137.22114861976033,129.73088504040317,127.52723350326669,113.27469422003648,96.86334737914788,79.72202298507247,48.12986161199307,14.83427175450727,-4.5029281246513575,-23.565423147740567,-44.920267621717144,-52.71766336569912,-56.175146286549264,-70.78182683895878,-84.77394813872877,-93.23312968704701,-108.51270482473828,-123.0990891329737,-127.48098342924881,-138.60471962868255,-160.1942398136577,-171.7091326844237,-173.73191935407425,-178.20618601771315,-177.10622960180015,-171.80843543189687,-179.15421128666333,-190.86836455490564,-190.15417738085438,-186.79261644367324,-186.28143555554598,-177.24189997104276,-168.02179538334633,-170.5322976472392,-169.54534138393004,-158.73049439470054,-151.4735548869413,-142.5280776622401,-124.36362902070427,-112.64072542377355,-109.7757820914996,-100.58027367792022,-92.13772880810546,-94.276456894098,-89.39384089215966,-70.94135260169516,-56.020044235642,-42.92028134115698,-23.897132485500055,-15.251401744992268,-19.99549225909637,-18.505090267072323,-13.387632229340985,-14.991575872054206,-8.040690472229786,12.566754259605334,28.09280856876172,37.51607064987191,47.65065879018549,45.68256603211073,32.854721598918964,31.34759970738679,40.45926070890958,47.16931810289213,58.213851973444896,72.77912880650427,74.58017391594875,71.16481079622378,79.5248102482408,90.47136957101269,96.86271999809732,107.68785413430268,113.53271641914112,101.8274732673368,90.02228184543777,89.73714710479622,89.05197020988419,91.25972173443424,103.70282252484473,109.76353234501909,105.31456058995028,106.9706230576842,108.642186669958,97.68299205429906,88.04716019324208,86.60691277907799,82.85489947702139,85.9120443091343,105.04699419937009,119.49222991342927,118.02378513736437,113.46738114268126,105.83819866042376,94.0990984124499,96.3242796120939,111.48114138682445,115.13266564045296,105.92574884640115,96.30552732462421,82.71697155966467,69.99301344717617,72.60837613680478,78.98460251559086,73.6131360364667,69.47142219749891,72.66509200882749,69.76019058216582,65.93538153896338,70.90746394907012,70.2618300118707,61.195729172574374,62.01592757965448,68.35668227331813,66.10711388630583,65.94091597486036,70.45397985597248,62.57033874735368,50.07943434767837,51.78292770870999,56.645469442343774,55.29294429480172,57.495589592671635,54.21483436012184,34.88263821846649,20.551591616736857,22.19366573948031,24.817404014055032,29.502363585519024,41.69856868137271,44.221906543758806,33.547173522558424,28.468538287401913,27.382064481184056,20.062445299871882,17.15584984365254,19.06087091737005,10.273262264856607,-0.1022872191377453,3.4299412893805976,7.438322508459138,2.236152614025891,-1.727504901474991,-7.130817554308006,-18.27128686796952,-18.087020305126,-5.121204814038379,-1.2891123583868254,-6.338291272796486,-7.532383951499826,-12.53322954178439,-21.94054294331599,-20.5699012063853,-15.410997605554202,-20.068316472132892,-21.869814295443486,-15.860235363132096,-17.735045365727487,-22.098772449091896,-15.219581257919348,-10.452761239668256,-15.983214165452448,-19.16614168394015,-23.737058372706205,-37.50524469718034,-43.23385276223201,-34.1314801425463,-28.155353505395134,-27.104042094169376,-22.791472333653363,-26.509513495055522,-39.42667521819696,-42.167729521773836,-37.911350297750616,-41.91664184284572,-45.27740447821903,-43.08755084825336,-47.06960328154747,-49.27432955475899,-37.8897551923761,-30.438941655004868,-37.88421688326625,-45.3190960427342,-50.78638596068883,-58.945598894242806,-54.69376913957797,-38.35717180605003,-33.96362921991835,-41.94698819923326,-48.9882874651526,-61.41384965377904,-75.50222767943447,-69.9720530752799,-51.04637459822534,-39.01604492999361,-29.89070721402187,-24.270958599253873,-35.495490761650125,-48.49104149007962,-41.81179791292214,-29.075137894760687,-24.852426734854717,-23.368550713386593,-30.645898579963557,-52.03366655022288,-65.6846288518699,-61.700282330100315,-57.395700875054494,-53.153989329623826,-40.304512778737596,-33.443048517172976,-38.372087740215115,-38.95826632432977,-36.75766383680107,-40.95608154741445,-39.17289343775258,-29.122549113883483,-28.617028410269445,-34.390831785432596,-33.21908579761553,-34.37945818353604,-40.10738739219307,-34.73890508194762,-24.047492335526442,-23.726421048738047,-26.362443264852278,-28.249587803106785,-38.53074558352057,-44.38821218277235,-31.097403351962114,-17.22032047848482,-17.472297547473232,-20.70951719352484,-26.316196901737285,-38.12493107281315,-39.97294910732239,-30.31447209475504,-29.315482105478065,-32.59410568469388,-23.5176565540279,-11.710350008695752,-6.2081256367571465,1.4336975545406183,4.641078565546324,-6.232615724620052,-13.798556236216129,-8.752121735758898,-6.655691985118045,-6.205036428903813,2.7664902086130234,6.338510447138081,-1.3252771576671054,-3.2794780095156346,-0.7712336317842099,-4.389528781715629,-2.918619795243808,5.473361104278064,3.0441267098899165,-5.222277541735592,-3.881604921245713,-2.512648129893143,-5.495008835089069,2.0115739607977656,14.504363934991286,16.827401689369307,18.642973938623246,23.917248193785078,16.86499628041627,4.97765237683533,7.116046323456377,11.682652095022208,8.701904722062018,11.454905687048551,15.714473991305205,8.710501606736779,4.6525706225232,10.509363560323347,8.063366439689954,-1.7274178412614654,-3.9951412612161183,-6.872655863388344,-14.20463441426685,-9.496434540532483,3.0170773290222574,6.350942410893733,8.381516767494148,14.730116509216586,11.654586736503077,4.28732284623022,8.341200129971023,13.399458290249378,11.398490346813718,15.326147139741794,19.733118944839887,9.654606510384165,-0.970188153601272,0.026950715241053302,1.093734173367722,4.7705150504021825,19.392978094214225,26.348922816799224,17.820026690131215,14.06437682614565,14.64726807647318,5.930399530469906,-0.2904880696671057,2.391122313562825,-0.35185209432925224,-2.9400037135832626,7.351521326105508,14.767616334988169,10.996128689054524,14.128730840847437,22.991278290443454,21.846502773052464,19.763778145180034,23.79100580218544,20.011885889423876,13.670395679171627,20.758014663424962,27.821119230551652,22.786977035409976,19.754433444513303,18.94456527325966,8.691364954643706,2.364843550035593,10.590966368823368,17.774993601110143,22.000367622691293,33.85898702725702,39.436513977636636,28.3339003694108,17.910766600155952,13.418317428071099,6.519931069382228,8.99171557927647,25.805907280523886,35.60950837050605,33.703091693077496,32.27354801508311,24.768326520641786,9.33737145141532,3.8502297419755496,7.014593106821337,5.374811451865153,7.955039841925771,18.855503582561525,21.435671495084186,17.641700482399557,20.786648427225167,20.346354091680094,10.028061206013298,5.500314198192533,5.8251353667905255,0.19110656036361817,2.016913152432401,17.009153523880542,23.186733410219876,17.19703510101956,15.197188760716932,12.352855384704323,4.863312290289277,8.924941600981306,20.581365750269796,21.74589332429202,20.834503566372383,26.366754353248012,24.491797300768955,16.33231876370728,14.865780039537544,11.346822573520468,1.2012840781204552,0.19518098275996287,5.333120141215354,0.9959949919227307,-4.632864812238028,-4.722605907227154,-10.435130471226202,-15.278033789453843,-6.4278538680184685,1.4269840652057568,-0.7653698850451023,2.44772135385327,10.352727860002688,10.110415488599145,10.84836755878018,18.520113774561782,19.331703923602987,15.88486793886506,20.51089212448626,21.88274308867378,13.2843902362307,11.15809542062854,14.565692484321827,8.367101283098076,1.7492107913969397,4.351794537700623,4.684124363058682,4.663212152931951,13.849378021414601,16.9561154604541,6.005700640203924,0.9088988610771612,4.13181623567276,0.3515356733487591,-2.739912637613243,2.7499321226313227,3.2067026289662524,0.43142222969130106,5.900115220900909,5.321546831523074,-8.797367142938631,-15.71126525254015,-13.327296178472793,-17.44269889162188,-20.152092146777512,-14.889782968488861,-16.42132512327733,-20.859235760482584,-14.432816498128181,-11.416412692357708,-20.32553987170137,-22.32118164706335,-16.13978044944626,-16.26764731670161,-14.619519840448834,-6.201181699473285,-8.066879921456568,-18.116549392773923,-20.3898146113285,-23.860294982190013,-32.9664506243295,-28.737934218159083,-14.748374687757595,-11.296054950224217,-12.085041713477457,-8.845189294958217,-11.638798365257136,-13.46537542621557,-1.1042421037288417,7.409843010417394,-1.94184359536224,-11.519900721622545,-14.709166021561328,-19.607700611854032,-15.732652760745394,-0.06850932728256343,7.11237766563433,5.431327696220556,9.747281434687936,10.645615008988441,-0.5576241277581007,-9.191488820662236,-13.192688730992767,-22.102910309683338,-24.73779025536954,-14.630840657131511,-8.988925341881822,-10.069916646540682,-6.137741510973603,-6.93169290659924,-19.764943653538904,-27.673669365477114,-26.38735856839009,-25.276693720328964,-15.676806663273553,3.4463001257671184,9.195828230595005,-0.3805849154515313,-6.273314162175248,-10.357968403438527,-17.388734144041045,-14.68949153786788,-6.895770156714221,-10.454258948757952,-14.151367214655673,-6.215258731264498,-7.119038757468795,-36.42880536745645,-86.44960184004663,-135.46037490711478,-162.68774059211077,-154.40805945967278,-113.17863390054347,-70.45858880361408,-60.00060525852499,-70.31861060147396,-71.030038726383,-65.3583693189859,-63.50150550092917,-55.83315439780324,-46.36838686621749,-46.95835521656274,-44.03677006462222,-30.13483843472087,-23.26172682503904,-22.768157577023107,-12.74698707675672,-4.570014021404662,-11.263182536897189,-18.404228565234124,-20.368681139630294,-24.530633398841132,-18.714692669800638,3.136681150577541,20.14808171743049,26.98563567248189,35.40667417370665,36.234244193655336,23.541023270713566,16.301114451992618,17.415611449095262,13.852254821496967,14.816958489700243,28.309262976644344,38.50786282451682,42.46796085069486,50.77158952539449,53.53235559822373,44.3229548405571,41.01756352790193,46.06479785525662,45.23910536025752,46.04021376358251,55.393735449735345,56.026828845275155,47.14924358346625,46.91782610439296,49.29779142093457,43.61339728445863,42.32271090536413,45.419654446036745,38.75608673462199,34.072851330699905,44.79999361567422,54.998150343868076,57.31831824458334,61.70163771756084,60.232413600945875,47.88662793798811,44.18266690571144,52.227968800491176,56.02432650747101,59.9981819481426,69.88826589177314,71.44943144703788,66.02602910092322,68.02629502779372,67.50429525337816,55.237306854931475,46.841300535459325,43.813174606687944,32.409202080753346,26.45481907247903,47.32489552561624,85.66096072127182,128.66391899284653,171.58788139148814,187.89686929770122,162.3744729304757,128.42513883781308,113.2377476179561,108.19383885935444,109.87780841486364,116.30878288359423,109.56259198997407,93.71148245164635,91.3588684659951,94.71728971289897,87.3218109656084,77.78644027967519,67.28488954090065,47.12134108354189,32.1935229006703,33.15293549219223,31.642436182973952,22.75257860046329,20.164190178651378,16.75303481791954,4.615107122801074,-1.5054943183087355,-2.1058853009280165,-12.606185065674282,-22.89146605956132,-20.312299318435787,-18.523592483236804,-22.846993807110778,-23.70429844392673,-29.300446363448856,-45.26679955167052,-52.77326256546564,-47.1427215072333,-42.877625001533396,-36.423418195854254,-24.65787605070843,-25.783172242307558,-39.487626005989085,-46.24180385224986,-50.15125563446755,-59.71039733336109,-62.17084507459752,-58.72097412532498,-64.84737206144177,-70.57606610945128,-63.80078886821215,-60.26230652510142,-65.14598195222327,-65.26371519948123,-67.7384943913522,-79.82428510519355,-83.01500699855373,-74.03120951355687,-70.86243312301416,-69.24080437595903,-59.67987210778978,-55.66465213018134,-58.27013114160393,-53.93615209676359,-54.005793646823,-69.5756841681907,-81.4496669350762,-80.65502973507647,-78.83028127601644,-71.74347001938297,-56.16223763707573,-50.690344359256514,-56.71299641712636,-56.446176998371335,-55.47833927811993,-63.666742430086956,-66.47399619200026,-61.041739324041096,-61.437615244842654,-60.16530957633893,-48.91373657340432,-43.72629333076201,-46.24754430624753,-40.97266696186951,-36.0879517089664,-42.3960919721109,-44.99085765110658,-40.72108800449099,-44.41026566643317,-48.933059536061606,-43.89177394971952,-43.314070631523144,-49.265675185077214,-47.66686695275141,-47.20333667713512,-56.44190783694459,-57.01926971540478,-44.93896679938844,-37.42945653315248,-32.03904802402728,-22.77197386267855,-22.877210913043843,-28.637536179070942,-21.904873421303883,-12.953929125204587,-16.15798248018935,-18.994580820981405,-17.94540819358162,-23.66200500504813,-25.306234223432526,-14.319473836669278,-9.350346486944598,-14.756285688139032,-15.783361392020293,-18.91465914245496,-31.711176239858766,-37.36025703729929,-32.861336504987676,-33.44138770807577,-32.701065107269706,-21.185186140781212,-13.850562466383078,-14.113162970624924,-7.17853785113183,0.22326587764271721,-2.8577991101853613,-2.764545469881136,3.62421965596661,1.6260745602823397,-2.217194627138726,2.258001504732638,1.2481270466340328,-6.582376561012431,-4.411471288296072,1.5174916295357057,-0.8976164194863281,-0.43171533136545504,4.068346701777755,-2.116643672130806,-10.631181533373995,-7.272509846310836,-1.8180048182562878,2.999515641162777,17.78622033191605,30.758826879842207,27.08487361805897,19.683667674439057,16.12088198238728,7.736650410804247,4.346954066068745,16.555391768305466,28.145889986530726,32.52455513490417,40.464167804408994,41.82610442033022,26.77460273338574,15.243729653191275,15.863198502912105,14.425210095769591,15.01976325921382,25.072950976809185,28.147314618891407,21.791429211198,24.187403725780065,30.382504191931723,27.967995483914734,28.34610872372391,33.94395210137325,30.7011387265685,26.678967900167855,33.99304621981966,38.032321008098045,33.462299655573915,34.89685259463005,36.67312351084844,27.79910085875055,21.802374042641528,21.9846545374649,14.336060562797307,8.169614342846861,16.503835474492877,24.41690292724241,25.871908588152674,33.90096978833713,41.126886355284945,35.48764209817212,29.90445802428205,28.90585367199042,21.41555366017255,17.541639671269685,27.65238633700177,34.015957603871634,29.466331177746202,27.872968284544413,26.014756249181502,17.700006945159195,18.062788760101906,27.899356088310167,29.454621464193107,27.917697639410058,33.647794637146134,33.3189000100485,24.88731454158888,23.700313914910325,23.956183489483408,16.280467445394258,14.09731195273525,18.972709034775853,15.73235653051298,11.163749181328015,17.107445049576718,21.67136935977953,20.56724748058603,24.98674362616062,26.252843412387893,13.274841884565172,2.5699002396793453,4.328705656724486,8.174469911447858,16.119720118277037,30.07230131645773,30.756507649745146,15.836233758082887,7.373814990009058,7.25611825246432,4.985876118327576,6.442119414527028,9.76064998651823,3.3798168447479435,0.3158624055330602,14.399524102716455,28.075484389695227,30.17716520554044,31.604264600897203,29.80617123122218,20.82432157577933,22.675675886417118,40.130721469163845,58.56783490093836,82.6400139245838,120.02790609618138,154.34071385254518,177.79904807684593,200.11432309060532,214.40218588929542,210.8934620219248,202.31337635145368,192.01903235858916,168.01820931823124,141.92585712700784,127.98417419654979,110.14825640900695,79.83704609395343,47.434859942161175,7.991728117221991,-38.0927434666549,-62.93438975577497,-59.594642849301906,-56.68696253319865,-66.10307145357154,-80.79116728269199,-106.00083006241277,-134.62234545719343,-142.8507785694632,-139.13968910008006,-148.56511851502367,-164.50408335632605,-176.82048307852597,-193.36794219454066,-205.2454020318591,-199.13559396347313,-190.17765885373717,-188.94600862369748,-184.00379271136055,-178.4966704593183,-180.74385077029058,-175.89723086236216,-159.93577693496462,-150.65143329885908,-146.21556655759065,-136.82739345917878,-133.51585203283713,-136.35035741912037,-127.35964676544317,-110.85149353186533,-100.26668999058433,-87.24079232513827,-71.68749959089563,-68.4573776383321,-67.31759140826071,-52.98237698057029,-40.458795002571904,-38.8954071796,-35.95842266386127,-34.9289088670665,-42.576796231054466,-41.5160615124404,-26.566265975939828,-16.843072499232065,-10.970642423701348,2.7349236374698753,10.928082477085608,7.508083989727169,7.67319118146611,8.326920040120061,0.9896414262680024,1.390858180582526,14.65858783155222,23.75695262978836,29.57840840431374,40.23760288123585,41.84314106915631,32.113089290660355,31.638324524577047,40.52377688590209,46.888864950267774,57.12349563688054,66.75421095706568,57.46404599660903,41.8015846768766,43.25995291606507,53.637938536921276,61.53841153637292,69.85223284894559,67.33244733173404,46.222273377411966,29.476565024055056,31.26491967715878,38.82087343462302,51.06491230613116,71.43498583981535,80.30068637074586,69.20430905832036,56.18848456544896,45.6968293147026,34.73581549670774,38.681818620308974,56.44910242516657,62.55772549581523,56.04186652972801,52.58869487721159,48.31362435494648,43.576590250140605,51.119784074293186,59.59247168717313,51.854851339442064,42.66287703235064,44.091891728168264,43.47943284991217,42.17638631059205,49.23571086038429,49.84664521898411,38.363872594107285,33.28294154446549,34.06639946510375,29.506470829078538,31.053624526224752,40.784104220964586,38.663215742268974,27.19075010416982,23.318862818167602,21.32122362732358,18.20435843879567,26.21871893285113,36.54304505728979,34.67827553512586,34.11400314493513,41.31443996877449,40.14870658013678,33.620248035705124,35.19172725319838,35.00208156292352,27.451532332295447,25.36953516816338,25.219229955293727,17.712866035437205,17.796044737983294,33.707820013443666,53.06430956340342,78.22932604342957,112.95226971086059,135.42333217120373,134.91496656705755,126.29855720914715,113.61973996136987,95.20372947095855,82.48365131414508,71.57438110961233,45.407951316513945,17.267542405923372,10.27076568556722,13.920845954819368,12.993520125021773,9.798280573497312,-4.179136397595501,-34.65383955725345,-57.51422154676726,-58.755406996205096,-54.56913475733822,-49.50820578488347,-39.29944999359924,-40.30095069104284,-56.725588711665026,-65.82469903789028,-64.99227804818157,-68.00945114051748,-67.1898432343304,-58.95455944190705,-58.92184179845966,-62.42462270073311,-55.684211583234074,-53.24444253343362,-64.00941825946695,-68.60154784788595,-63.04400324719853,-59.92448756151648,-52.666526623151405,-38.63288139426946,-36.2428075903967,-44.83616182964153,-48.18304397673831,-51.45398690740461,-58.019924563615774,-54.39978444835322,-48.01585932149705,-56.25830636966335,-67.704774735138,-70.72960942519775,-73.5474034519915,-70.3262050367614,-54.36947179172977,-47.19199144959113,-56.76423690209917,-60.867842669446084,-56.765536386810325,-58.20227962238957,-57.25221771407002,-49.058336923698,-48.12231028309506,-48.96861722804431,-35.52540165293707,-23.131477852003364,-27.74042967053589,-34.83326511529,-37.6442829810398,-42.52711378396201,-37.801988046486755,-19.773736992221657,-10.003391774420967,-11.48724744379742,-9.332629897006502,-10.05250925558964,-19.051504326902588,-19.98499230417574,-13.01213478476414,-11.413723511014313,-5.619065678292998,8.462249524239567,10.950324137191926,2.218900175656853,-0.7551685634961619,-4.327056414885358,-12.176421083593244,-7.001309708787228,6.811561959581995,10.06712655498739,10.113041576890403,13.383029263900163,5.422718257322211,-7.408120105982155,-5.012334252919443,3.6044157044082015,6.967775897289068,14.957162233899444,21.84586266310957,13.188965506945305,3.885713700213752,7.083313525091727,7.828018242357274,3.1701952438647307,5.0736564174207315,5.284523720817037,-1.6869471307763875,-0.021359005052415725,7.2112564929776335,2.7406369480892394,-3.2817128919559413,1.4005116080754356,5.391828184931276,9.087574583063233,21.97198880778957,29.290049095876658,22.185187019009696,17.591706101049144,16.714220516593997,8.696706674718225,6.09100471337931,16.113284835438034,21.164376804196515,20.48555670761148,27.654420945115337,33.586215245975225,32.08495083203407,37.36741846148648,43.459845862877756,33.92242555711155,23.5331269362076,27.078226363576704,32.05528494196087,35.46642880441703,43.46316077275592,41.18281608465252,22.865508705846658,9.427662474191049,3.6440265096504283,-7.182081034797669,-12.496711928757968,-4.587244867497051,0.8399693408662416,1.7989027782443698,6.732552085107843,3.7643012281245065,-9.644771396695326,-11.21594154806613,-1.6127015745093773,-1.7991882791458575,-7.191793294120733,-8.163512616043946,-13.376310470994088,-16.51994104371773,-5.377990457411093,1.4372574750507594,-9.001108029777807,-16.17040612429079,-13.060842365996225,-12.069580613229848,-7.342229411802725,3.262675099157042,1.148643176252219,-11.02257544719083,-14.670754375499797,-17.796181030437484,-28.762757748651033,-31.708414319704623,-26.64013869933536,-27.186751951004904,-21.865565173083425,-2.725727694413166,10.830313382512905,14.003466059788543,18.24347434717403,15.690191035411686,3.371336366340062,3.0887504448585408,18.784521900044833,32.463871768801674,43.72969959072082,53.45304052462298,45.5830940664846,25.90760266315406,17.89837068245676,17.401912810508783,13.018791399585819,14.23347043612885,18.552411419462306,11.782907276807332,4.332120729896232,5.869313963293487,1.843790690813961,-6.337269322092163,-2.507456353156054,2.687985933576272,-3.804242279013863,-9.584722856038839,-12.808922477308675,-24.85545020731498,-34.79907596610913,-31.982635140229128,-29.621397002324116,-28.218005558422327,-16.244089095426663,-7.656835560785641,-14.966803407136801,-22.405363904816376,-24.62666092409434,-30.893219883219032,-31.69359491902011,-21.437681222908402,-17.136889373405925,-19.633249528193836,-14.829367839494877,-11.516701885746158,-18.52733546779256,-19.86751423552446,-12.278383644068509,-10.271984498219844,-8.69375531158396,-0.7654235648906704,-1.0198901915059506,-8.55502003268105,-5.233982952435074,3.1012819178664435,4.547853614328197,8.525741505515665,13.904236137019742,7.457321041830947,0.7026069724773787,6.339021013782807,9.553939452713914,4.943548651710458,3.9458295293256107,0.08359306669257927,-11.631711303338921,-13.718768010663032,-5.687764460206626,-5.71842792714873,-8.539362813162468,-4.277583800894151,-4.847294650415607,-9.14192986273237,-2.220094531498281,6.124328165634448,4.653330960638829,6.793407673869181,13.062265609651696,9.521177093328573,6.208652590823329,12.830089980290758,13.237263336356666,6.282110833499374,8.248280869912403,11.460684632835545,7.154890298593839,10.457061264524317,19.34882899747887,15.591493418776555,8.196743971682398,9.188334008137568,7.180512435961905,4.216260381869121,13.661350681398861,22.417113953662287,17.66759329227074,14.86372227977604,18.992693133395413,17.399577404788864,16.694816164324898,22.898899486738248,19.538052808262506,8.806908542974353,10.5882890390432,17.19707001263835,15.768808478885436,17.7189783803864,23.464330538394456,20.230330969043916,17.79444554218165,24.259179733186013,22.936307622725323,13.699878229238774,14.93294686899248,19.96349948883516,16.842167441894865,17.099586020987953,21.612059281536034,18.192090536544306,17.55928843772725,28.075744383484917,30.625385237113115,21.70374460623535,18.833192797856046,17.51419414779001,9.36605127266653,9.19237050714324,18.03340866530528,19.990097934896223,21.701728192804097,29.31507159793559,23.97558218757109,6.1189916555648995,-0.987091400767953,1.0404026877425363,1.7942397225235527,10.480078949457395,22.264608708096524,19.07368172332351,11.437079904890702,13.770362105041965,11.99497445736055,1.9257387867548643,-1.0609587072263507,-0.9528032193660806,-5.298194021422906,-0.7437636890747839,10.72381310722665,9.499915217416628,0.8585953391189203,-2.50780721507964,-8.86611348033855,-16.441953124811498,-11.60555290817727,-4.44875189693392,-6.692363237763128,-5.931346173614516,-1.256990325340019,-5.488405338149977,-8.083910867028615,0.804564632509273,4.641568429802543,0.8676293736897911,4.625871521269584,7.874666343898747,0.5756608573949147,-2.6144137175324857,-1.123541504064688,-10.528187192949217,-20.087144558991383,-17.279443128339814,-18.831438502560776,-28.67536851178742,-29.5599843365722,-26.39505160964675,-29.304356694560397,-24.999302891195008,-13.586438833758859,-13.093222590818524,-15.640941854093024,-7.931282228336731,-4.517847954344162,-9.26780057187085,-5.735139121935169,0.5187748524113776,-2.1683336437216747,-2.0760271835949378,2.176278944874362,-3.6725810952784093,-9.76989578551569,-1.7731263982280967,6.051517117782672,5.742517918062369,8.632347322724298,8.529637523056506,-2.622002896276084,-7.520969992165968,-2.0801417403205003,-3.719590232413425,-7.68310962522092,-2.2673956422786423,0.26254809589578304,-2.8745000166336894,2.1588099314771907,6.7772305556398615,-1.4857079031281568,-8.285103518349946,-8.10365474030638,-13.649008451793488,-17.314072923028537,-8.600708488653451,-2.8051189511660253,-4.891644316082492,-0.3578758884442039,5.39206808945227,1.4146758709357177,0.0730339758457729,5.034788351150666,2.7671639777198527,-0.48724164279252125,5.121038704547018,4.290541103857397,-7.212271316456288,-11.630601291531828,-10.726867419355864,-14.879347946256182,-14.449957506732513,-9.067670209345394,-12.245458956178386,-15.672507716153069,-9.12755986342536,-8.248020952675253,-17.923780150756564,-21.435145498914025,-19.758142134624617,-21.135026649718355,-14.689540512958242,-2.8867920647547196,-6.42946418899407,-19.253674299066354,-23.689300991686842,-26.595631005209768,-28.578769543706688,-15.96017569028776,-1.7512816174899646,-4.388594972970727,-9.427132161922593,-6.032624672074805,-4.793283472287242,-1.4822206044703299,9.617675252898117,10.016807315649526,-3.6366580128462687,-10.50421264474287,-11.798701665561655,-19.5338039460675,-23.145707815596875,-18.645773914536242,-18.59935897673488,-16.97471988507802,-5.889549067782832,-3.198408820801917,-14.272672975948044,-19.759977475385718,-18.538256439952026,-19.667026348035765,-13.405296342776413,-0.4842347500915798,1.875387601087679,0.3993301373614486,8.831134943922875,13.806182465017361,9.01764770932518,8.522653247167478,7.980666367117136,-1.552729660517358,-4.965471759080611,1.3448259132117397,0.5494260238992368,-2.747055597055661,2.7784076395524835,3.3473434476907267,-5.147122023203165,-5.625725508795012,-1.7027937493390244,-6.233804605896523,-9.077592495580204,-6.600371856200223,-11.004588186251917,-12.64010408118432,1.9506680813740562,15.018354496206221,13.108612586231954,6.901779439568443,-2.427156754976818,-14.961194697230857,-12.005091399286052,7.235566757025774,19.300423083269802,21.995104376065893,26.07227929991927,25.009732331371964,21.607054081805167,31.890507362291395,45.57752795103558,44.902268512266296,39.714485597373624,36.60694342808411,27.04207563696707,21.37988149108598,31.43873845169137,40.09767552525247,38.09669413159358,39.251188515621386,40.260372726590525,31.17610183214765,25.338015336635863,25.982611507516665,17.17090620054257,7.024020062328636,11.831648357698649,18.71265210527702,19.001188811672215,23.208121466094067,23.81873878967926,11.131071884143342,3.3311812312004303,7.996575406864111,8.020952498876754,5.455611638694256,11.697283483077056,13.051974795923435,3.1416364403228423,-2.3002313601246915,-6.1685321701349,-18.062439859568162,-22.294630561273884,-13.706278494789327,-10.059929085267704,-9.275156482465594,-1.2510688159536496,0.8795600018033549,-6.918738621772427,-9.090498558856716,-9.687136823156846,-19.05148171729328,-23.963227229367618,-21.580592740970815,-29.46526682204869,-42.84834718718419,-46.26690714997123,-48.62032661663069,-54.248905643989126,-49.9354122306451,-43.34593749228792,-48.74928433382098,-51.0314553838035,-40.445221822803475,-32.35788321227921,-26.103560453309456,-10.606678942243219,1.8623723343030023,4.25118953936216,9.895905390110693,14.826456253784537,8.765445033621384,7.731837564065648,19.43509198091945,24.47711560344622,19.236447697306076,13.778688533658848,0.5458181618473303,-18.314320200443518,-22.557572747960087,-17.947895314505818,-22.248158068512833,-25.60796179512029,-21.34152900070996,-22.687139635023335,-23.97802073174894,-12.332177498868619,-2.752457990509868,-5.275768266639598,-6.64799966592839,-9.325333219504035,-22.64514740648158,-30.524546186089353,-25.238759331820617,-23.90860997311818,-25.902008895660593,-19.867752078955096,-16.949501203658734,-20.777066267645658,-15.940980791768819,-9.034467743556695,-14.830952750191718,-20.707709591822706,-19.093752485973486,-23.16702375914922,-29.230780340077473,-27.454968828978206,-31.089145076928077,-43.197479581432944,-44.33521539791768,-36.191030551828796,-34.46029702715047,-31.817748820265052,-23.868405797446176,-24.687582574078114,-28.332785514708416,-20.886955409696093,-17.202836998815588,-25.397895540687326,-26.49950231445367,-19.02448027875007,-15.151303384275469,-6.655989071145231,6.520699199998191,5.231492430222271,-3.881221723418618,-0.009000996125696048,8.18631738489246,9.968718901988868,15.62745887795107,21.20635803489118,15.267595136646229,11.861943758353405,18.838851949758627,19.864901556975493,16.377189877150087,21.65258944597955,24.7424056783652,18.027062953726,14.843184399644354,13.067524380050912,3.530840601215175,1.2285757942937994,12.818462765352992,20.057435910186022,21.409059038539212,27.276633765717975,26.770409745945518,15.21466211870803,10.042663164186386,10.629214776864965,4.094709715182358,1.9251751208856995,11.763766828752448,16.384101993182515,14.208777708696749,18.027090626792276,19.33317887100838,13.091138994502685,15.498817341557258,24.17380874514943,22.94060602390674,20.485347861454237,25.46763807396118,25.363956990441146,23.115627660677383,32.006178699411386,40.56744043247252,40.61908801971994,46.13911211133956,54.68712072856213,52.70986781850977,49.46854929671777,50.76319923797652,43.468015559949194,33.7126318994819,37.98917413902921,45.67426605866866,48.90957695570131,63.67787869977705,86.64527767818238,100.98154198302161,118.95618535149165,149.92358769597215,177.1805047879388,201.97263264926582,232.5349002069421,246.17402284667176,232.07347565057722,215.2325435827298,205.60844374000217,193.1888939300331,181.60097376569271,168.56687852503825,138.19354127340878,99.84657381770896,74.6691383382511,55.18908611703063,32.36207473888356,16.90245970309707,4.234551714347785,-19.459377826415565,-44.643227339242365,-65.494476078011,-92.90662618969161,-116.46446197961106,-120.7569952567977,-123.96635527008755,-139.76734292368673,-153.07462409926083,-162.78960368466937,-178.2343070325244,-187.0005835367902,-186.71258711513298,-197.40850342260913,-213.81557831990511,-213.5622024099571,-203.56307265400147,-198.03551468651457,-192.26046876558877,-191.65780197084138,-205.2627467179069,-213.72685521635646,-203.74761784560584,-193.04184086331702,-186.16677514517673,-170.9191831607589,-154.854527889231,-143.5895129432613,-125.09246353954961,-107.35885134365266,-107.3317010781695,-110.8893332039469,-103.68727752637352,-97.20462678058267,-90.47932626135649,-72.49866412021123,-58.081035515873666,-56.38389621841649,-48.67000996647174,-34.85411078167072,-31.662173306607727,-30.271521778874256,-23.181651480030887,-26.000146021476056,-34.601007246642425,-30.749208257928547,-24.291384796916255,-23.291473300158955,-10.574711464253891,11.513575991504862,23.749522011534612,32.898478778855214,46.508298027339855,49.53527207859735,44.23401879483154,47.67223335117656,51.608508325880905,47.418230127805884,49.79199403150305,58.68624153215907,59.2344026305023,58.04791843285476,63.00628040413598,62.96066889796752,59.6598154429754,65.19445395509757,70.2351259289149,66.89032687877791,67.3992481533887,69.86464229497274,62.15505614002022,57.55637548487837,67.84752755433344,78.45241092300677,86.86270554216284,101.64452553165799,107.38004310338962,96.00279326450726,88.34336496174224,87.13458629734694,77.21564417584082,68.45672615072608,72.12097071923561,75.85975359112376,80.53457027988192,97.60294384330336,110.82089522457869,104.92293986038155,94.60497266013675,85.45266776766334,70.15138926798468,63.677818817838805,74.74677702430328,81.76337615281051,78.60257068567412,78.2536667889123,72.46767403131372,55.010971516131335,44.869066157136814,44.84673020877753,39.80127170150918,37.691567297272094,46.828872715615375,49.03550561518148,40.468028171621484,37.13513097989784,35.013357365146476,28.68193351844829,32.45128039288274,42.9731561969542,41.42525263372699,33.77911209586014,30.38240087174014,22.265646781554935,13.64021802535539,18.47556486965253,24.92091045611345,22.031399196798965,23.446668006425494,28.92102832152278,24.171826301008217,18.500647612938355,22.392507973769522,23.096251930026355,19.54950231997783,23.2678400239279,22.60443822866913,8.106664322257075,-1.985230537123764,-2.2299846601158144,-4.753661109509669,-3.253458256386419,6.411146068735082,7.4827981194041016,0.05425293016027277,0.161837670379001,1.569286263561702,-4.12252598860651,-4.040284198106679,0.7473896254224344,-3.9239456275472318,-7.147592372927665,0.9304732248451599,2.854252823132788,-4.998725739134995,-8.367339934613344,-13.30960509163119,-23.569939114498478,-19.390782038950995,-0.8125403999952212,12.222553130751926,23.65828996821363,39.580327409908456,43.514216347554544,36.6953419706037,37.97364059660826,39.537788552037725,29.098773399384854,19.182897688000327,10.53996335082392,-9.748847816580842,-28.807730840905098,-32.7521956912872,-35.92460284917795,-42.27268587021216,-40.57664124112611,-42.43894855096609,-57.09054359296873,-65.0300186132282,-61.27552915666956,-60.989743907398044,-58.82492263403835,-48.98221792063545,-48.97186206903983,-59.554920551262335,-62.47946001765166,-62.96464073463727,-69.32112156956318,-66.53251540097891,-55.62724134992016,-55.87264755653357,-61.04725168499251,-58.886115958335054,-58.655881389647305,-58.58089176405312,-47.10779374798781,-38.36320078627973,-44.70411719745379,-49.59280863071114,-46.34362899810422,-43.37941863409695,-30.691142229512877,-5.047320634374591,9.34028838921304,6.747420383244834,5.211525393957359,4.276740725662345,1.2284460966288098,12.197345495010008,33.7378662476925,44.24202413560471,48.14798723533141,54.90001751259502,49.640124665896494,30.50765267074658,14.937018322913882,-0.3473222785285275,-21.425954923088714,-31.479763129652074,-29.858204695177847,-36.24779830964149,-46.44848979848132,-49.60087882679069,-56.69563217770943,-66.47038056009232,-63.06124135584518,-56.86035954270279,-62.79771556864938,-67.99456133839917,-68.11139968325912,-75.32138200303945,-79.0894610265444,-67.25222091020731,-56.22559726688114,-53.42457601677946,-48.45613887144623,-49.64358677320133,-64.41563439683058,-74.10693352984504,-73.11539429451135,-75.43169167756793,-74.8967666903862,-62.403673024692296,-52.63266076368109,-50.4528110120997,-44.94325461167444,-43.278631419360075,-51.75946797376241,-53.69098641459323,-46.93691848863273,-46.992567902444215,-46.78588766153431,-36.425011556015846,-30.569639025619146,-31.80282789592058,-26.518770649238064,-23.536114143871195,-31.5628080512809,-33.439524815946115,-27.673137380931443,-31.704406165513234,-37.861662776316905,-34.18439787912126,-33.6320414806918,-36.802949872963914,-28.197096129504782,-17.11146638462844,-17.443300385122264,-17.51264826558281,-13.586840996881755,-16.72834617026446,-17.289164264864347,-5.733837915164171,-0.48704267882524444,-8.350431360724102,-13.29153864316838,-15.774691553677041,-19.704247465256287,-10.315620327661133,8.242336231580618,12.669885511915524,7.248717683216443,5.916169062120659,-0.3422225820471714,-11.254333031841929,-10.48227329489768,-4.021281810478429,-2.6708857215592934,6.608389450369987,23.870646245543455,28.92343350515325,25.370230783170086,26.358616285014346,23.538538456949965,17.944156439662706,24.67325228051003,34.574560960362724,34.179802289087135,35.184273939393876,39.57795382857498,33.901874638187074,27.342206084059335,31.271788994945865,31.19473130330697,23.959114553057987,25.278429721206553,30.031824980190265,28.439464900869922,33.56590344339718,45.00697009699209,43.283553909535854,34.47128234631434,33.289093937755396,29.732788102633457,23.038624753327454,28.94418459914303,38.965554245665196,39.269528391089764,42.01208790638566,49.44362890746099,45.80880585189644,38.208793743213874,39.950365865974106,40.43145293930572,37.349980991229074,42.1452137120623,44.38801121313594,33.09969983949288,24.52362190805618,25.372138193894706,23.399769824395293,23.78374694390716,33.74990959902894,38.39582074133372,35.373321652858955,38.94942939987444,41.467632303828864,32.82959348100991,28.89814762811735,34.520982340807535,34.465782630536175,33.66586085397829,41.61024362056019,43.154687772349355,34.46137841182727,31.83976130574724,31.470367444829776,24.689635880060997,25.554005610841052,35.22674564947934,35.51041712857216,31.521627052946315,36.49666473438567,39.15496839884178,34.89252268502472,35.2205498691675,32.32610439363764,18.01485461625084,11.262612057328669,18.37258067772781,22.155150857114535,24.31718813530333,33.27811191144078,35.5864407344606,29.135642165324747,29.967295026469905,31.46187132709021,21.408794901260244,14.633234503792163,17.732643686571944,16.188464180708813,14.646786308176846,23.537703429334318,27.925011015953302,23.53090436898318,27.4140462263013,34.16836725483188,30.373626654639317,27.853025598961167,29.827730449729604,21.941971907368746,13.077215015373536,17.24020163430886,20.120076699422903,14.731109417941326,13.826324947644604,11.726826210172527,-0.2052298783743458,-5.586757038062391,-0.3993195207009217,-1.5382054082197159,-3.5240763521933496,4.95519115299226,8.04662369995453,0.5325027261961952,-0.4064187361065683,1.5721288052369833,-3.0439918518977755,0.37683086354992024,11.963484102081239,10.578343741274729,1.5293176742284174,0.7009461656209395,-2.4147316573709823,-12.611882383707265,-16.017573462818582,-17.18378239141605,-25.13148961568555,-24.985342196634694,-13.920713930303567,-12.048846058541411,-17.620858916170153,-15.648119669507308,-12.021776157378996,-6.368379893793786,15.855620597599446,41.96178806284462,50.15578026030663,49.55431457011018,47.82510596969488,36.07827486665445,25.981710239810123,31.56906214447152,35.84235983165553,29.818357693969023,29.488331190368267,32.82584393187302,27.37252055544105,21.73647744845075,16.747416188264705,-1.6207240049150382,-22.465985142813626,-28.217303534115434,-30.346322893330086,-35.47961496292213,-27.682177611803546,-4.40610238240629,29.397292683381593,81.61560659992772,139.07110150688194,166.93545720921293,161.1316472481986,139.23732997295167,103.43360492978655,62.56478187859804,35.52481785865134,14.869455080336746,-12.361067544753723,-32.37167124118187,-40.02838754657995,-51.48655800270586,-63.88052077688167,-67.07485905763065,-75.48912796328918,-94.75294957881917,-107.73690567054307,-115.01393798457303,-124.95213868817359,-124.20725391423166,-112.31135924680481,-111.68454273790071,-120.67435573457871,-123.10726388982775,-126.35013278384412,-134.01961273191236,-130.54418792020877,-116.81429925816613,-101.3091105504974,-74.93538522039044,-44.21252497186089,-37.443169595798174,-54.641755113374884,-73.35800995381025,-89.52975566471693,-100.64010690004518,-96.36635505300558,-88.98108663732307,-92.99303762910752,-93.15304060064356,-81.68835070370305,-73.26292989939782,-64.41937623148868,-45.31343038085349,-31.317987777363257,-30.73072500187833,-31.823148002441126,-38.45169326568165,-55.77924795065153,-63.84658775142942,-56.81788983014545,-53.93244437126019,-52.91361989083572,-41.03411993112089,-30.84060144541491,-28.876164865446704,-22.43071404842368,-18.027364292872026,-26.141526167219375,-29.69424152059596,-22.63632595800732,-23.110246093230344,-26.92899868726538,-17.682259696160376,-3.9922904098979464,8.139526463460871,27.742220026248376,42.66091869138623,37.16679456331746,27.34486359467493,25.09310592808781,19.673811450830776,18.07399157570048,36.35441649032543,67.40579623853183,110.94714021886747,179.574854569227,252.90506355157996,296.55984052497433,308.71713585551026,294.5169643973385,250.01405875385262,195.64611748814457,155.5390094426634,117.86683357352902,74.3124383647473,42.07479548706849,18.07630416831094,-13.1977795290796,-41.30851300967573,-59.446349935608424,-79.36220280535213,-93.10119424846707,-87.67161989422387,-81.59856605038968,-89.57832996031607,-98.95175813129151,-107.90980067300302,-121.4602409011985,-122.6285060950465,-106.46555506192675,-94.32814275311196,-89.21260339269615,-82.80459799124728,-87.88772297032585,-106.31268061747943,-116.23782154725114,-115.49696768511376,-114.95921542586065,-106.73483515942537,-92.14292450540552,-91.12944447627518,-99.26544284233512,-98.49620568386257,-95.29420051395293,-93.99020363137348,-82.72619440507795,-70.70800844504737,-73.8995824401151,-78.2858757711798,-72.01635585462222,-64.84659473771686,-52.32061086047348,-27.569397288682715,-12.64797561671078,-19.019612820406127,-26.304373366621505,-27.342676093707272,-28.203098180779584,-17.919044757112694,2.233159337742098,9.129053175547643,6.068810901202925,12.470187155789239,20.057769854492964,20.496390955204305,24.950779171975295,27.579114665888998,17.776996137459818,13.26912904315632,23.94022776055664,33.635995904568986,41.128226644737424,53.69874244679521,56.512442858146585,44.499416853990525,37.69893076183023,39.321715665110744,40.23418557873945,50.43897803437709,70.23456514224156,77.97448336119909,73.87051641419464,73.30691887354703,70.6731338862176,64.38391730777097,69.06829717570412,77.4443502831504,72.34712883241546,63.255296582887766,58.88332638073665,50.0989234619883,44.187837274807364,55.072346443007866,70.8651754455253,82.61866455602978,99.91396726670591,113.42050051055843,106.6519891564244,94.16669996216656,90.37930535405417,85.1843351061718,79.50982972131959,80.9299055284149,74.24903140139486,55.40932939394633,46.52793750118862,47.24092454534214,39.791382882407,31.549467468113885,30.32716193634787,24.34179899812268,18.4817118362919,25.140408454153352,29.142711521144427,20.862937163444712,16.04600351759629,14.332181977245575,5.256814079468155,2.4337817677878166,12.842330470866042,19.032532157407356,19.682479694126293,25.193959332057428,25.184785842814808,16.289381424513376,16.285808736049216,23.32521323105159,23.85795486057814,27.86158590551596,40.20980359616034,44.39522955083079,41.55944001418311,43.75284910668821,40.796251725833656,28.653563921938904,24.403981421293587,25.967879288509184,20.471103887336607,19.16167719859094,28.44142245673481,34.669773889122304,41.665196680503655,59.132505624580034,68.95371738469514,59.28913797646416,46.51149177277467,35.6777472993296,20.66258163692924,13.67491253789829,17.919845577137558,13.941421729500952,2.543724949328142,-0.8663892627062371,-5.120272416545849,-18.04499731636576,-25.478785989094447,-26.51472170288448,-30.674483571233928,-27.967786683567994,-15.326441293221052,-11.318657995472801,-16.121657783978357,-15.504140659778471,-16.43571427941318,-23.530601859105566,-22.838291524783372,-18.42027911449721,-23.552047443108705,-26.404471869100433,-20.48350174372014,-21.600364798547968,-26.595666486846994,-20.939924234460022,-16.206245090974285,-21.226092909018348,-22.442046265197718,-22.869819762999573,-34.39900947373857,-40.80025796828785,-30.71758234058573,-21.420077011031896,-16.21200604160106,-5.866644926960968,-4.257640238943013,-17.9198160963592,-25.461307449960138,-22.979452759160655,-24.343034819500275,-22.843472704109267,-14.567755769252605,-15.5294914888707,-21.34640457921921,-15.471616034549097,-10.274312208617804,-16.873002723760646,-19.40630415237066,-15.377326468581513,-16.535632106672555,-14.950653620746653,-7.6327767956179535,-11.463244084014292,-21.811681151467326,-19.86646611165234,-14.827650901930832,-18.672452034909366,-20.41535585088276,-20.459428352053102,-28.95683392755458,-32.652637941801174,-22.276351676516903,-14.096567806563147,-10.41941740119513,-0.43525819697681456,3.492502339356433,-6.968343269528692,-13.361401500999351,-11.979679143086939,-14.509762785475987,-12.492587996212354,-2.2563573374931845,-1.44256354470663,-8.276141203134149,-7.84830955642366,-10.683637695473378,-24.26742814644134,-30.957307166641666,-29.34726380140185,-31.795693670797007,-28.05431187345289,-13.893501621488902,-8.602063320182749,-11.004682749984163,-6.310679035366286,-5.864892409413762,-16.637410234856944,-20.490673956900544,-17.320215269355963,-21.03914006564674,-21.82206637202382,-13.01371097228072,-10.411881957550456,-13.52305237512512,-9.86634908579099,-9.631663232132603,-18.518283560617256,-18.472598958318713,-8.265338539626214,-2.484231492116863,5.7755391626450425,23.871037717043105,39.94225212127701,56.61562681071493,87.19039453170514,121.17009786556974,147.24602832451865,174.24723320316926,197.78883603441915,202.7095399780982,197.44084600515805,192.33688678823492,179.04025602393565,162.4067712752068,155.3901051207578,144.0000707745532,115.15991328680981,83.12008814351563,53.7886531038659,22.321408268553554,1.1555086113259572,-9.586244202738719,-33.301293378319905,-64.37796299008458,-76.55183263209287,-76.0154222297094,-79.90684407839125,-88.56116912710465,-110.67350485467443,-149.2753891712204,-174.84356443198587,-172.02953910475304,-165.6840463559657,-169.96091430926344,-176.10645018404236,-184.24552083865638,-188.29761449634918,-170.0615578207761,-142.27664510550937,-136.57424873939829,-151.35493141730694,-169.87636754750827,-189.4705008216948,-197.1758877637527,-180.94361298406017,-163.6898577090463,-163.90264233448235,-165.16667002620656,-160.3290382160832,-157.99060416075974,-148.852212786875,-129.99622575359763,-121.28572380053417,-121.5061946229471,-111.50895465801494,-97.19344482308992,-88.34828292703064,-74.63565836987495,-59.67824324105218,-58.54910914078512,-60.77171174194162,-54.315038072223075,-49.61977454974786,-45.082640789107955,-28.888439226262165,-13.822488104602805,-11.148393034707086,-7.470436665367165,-1.1031295391415201,-1.2864789480947123,3.151947056823163,16.98798339581344,22.565718933429707,21.35472659868014,28.60645372217513,34.54602129819547,31.81068724043063,36.47974109254416,47.691451746645605,51.41450693401575,57.88969724397776,74.18523107492418,82.23963135283996,81.07630152130855,86.45443414569354,89.62990870942288,82.18147247374631,80.96863277580763,86.19447406842201,81.16292486374893,75.17484023881124,79.55346849050132,80.13717565385566,75.52248133779503,78.50394057342075,78.28597002237673,66.58479155954686,62.088085191509904,68.1290631373055,70.78889892957812,77.80477654560045,94.44447012754135,101.52608606734223,96.42061612572603,94.64865219069495,91.55102103290108,82.33456446836543,82.14144380577774,88.49662818066186,84.37536921020515,78.74550159846382,82.35290719986821,80.83746709079712,72.60781725990748,71.68838665255721,69.98868475613251,59.49023416698358,55.013660612332764,56.70083630107612,51.04840422163895,48.14501274121347,55.905620028860746,56.56632436612519,48.37813262302795,48.502895003004895,53.33479599865079,55.92397899078717,65.88778449613025,76.88681888424941,72.97665679948179,66.28273438375132,69.83525895223472,69.26494500896293,60.59810090248436,57.15072758399386,53.35530035541271,42.29259782860511,37.28484962995756,37.18209917260867,27.95822656776756,20.221413091800454,24.393626356156492,25.049903552592735,18.951837526166734,18.430053960403075,15.990168496321235,6.691830886786292,7.5854720052831315,17.33963889784459,19.093326981106237,21.200586695195174,31.98462254755308,34.9326975518684,28.460035892115503,26.5833663571608,20.179219665757216,1.9642255140725515,-8.589458609623563,-6.716229056478291,-7.19454451378287,-5.610213123577745,2.494462329524046,0.33981735733295704,-11.361822937529382,-14.316634521738303,-14.552994757764148,-22.18511111459528,-24.113882974878074,-19.42019264897273,-21.75855326870749,-21.91136016300095,-11.375245557940723,-6.914759885076191,-10.073710567157612,-4.306027568888792,2.8627828647771594,-1.237540020070298,-6.108271109008736,-10.573993356234444,-24.062776907230113,-30.89002451658979,-18.25419708495175,-6.16958503566319,-5.257470000179872,-4.723843162688228,-8.807749331172992,-20.759245174864642,-23.3813600974354,-18.996451711495773,-28.67102562665516,-44.86207196394398,-48.975160793432565,-46.36065066603628,-39.92855922792807,-25.012032819925256,-19.908920541471097,-37.35314523938618,-54.990985930984,-59.84885421301248,-62.214091138160214,-58.970246960357535,-48.73690963532279,-49.57408280323325,-59.557047331159815,-59.28855094042692,-56.762014850036195,-64.76352495053486,-68.40392477655458,-62.8036645636376,-61.31383880384458,-56.6211608150165,-42.15454857490208,-37.27716201049027,-43.28850584186751,-39.63303872434189,-31.624470516038354,-32.6372705146242,-32.169061680232346,-29.053231588682515,-35.67655998235971,-40.528195429852694,-32.39281717172936,-28.754413918763728,-34.63958903535823,-34.87818162314532,-34.60763044155176,-41.48697454002443,-40.56902310070764,-31.383344534578974,-30.750674472576556,-32.722498029426916,-27.60631952670951,-27.473842244110784,-30.891624706894294,-20.653543467811907,-4.957300617671099,1.5217398969187295,8.221017284201084,15.195391910664782,8.6532837516515,-0.24897040191044928,1.6546161511325803,0.6218217428014496,-5.226739178654272,-0.8520756135926821,3.985293442675875,-4.7933843177867335,-13.075832720455013,-14.404931631705761,-19.627015441872658,-19.785261427036538,-6.7798111983089155,-0.5708415000973088,-7.30180245764214,-9.729108173039368,-10.810500434364648,-20.059113465609023,-23.43671357104309,-17.51551019333347,-17.34653428302256,-16.482602054830654,-5.931123584695156,-2.6881912727513444,-10.312698155964595,-12.04870955722157,-13.185990033298483,-23.995141592031022,-29.784107172660587,-25.11242614224308,-22.73252697886832,-17.301972574156576,-3.831144234474494,-2.6620664255258335,-17.41895127326179,-26.778625550072363,-29.292138303050614,-31.56426347323003,-22.82714337757521,-8.404766430853899,-9.054523816214015,-16.56322249835647,-15.089319038252047,-14.347467427878168,-15.890132361076132,-7.993455524237597,-1.9727635590244346,-8.018594339113633,-7.358774444029944,5.8752630556803265,14.806970646264649,21.265563593097145,30.684474436680993,26.522339099773212,9.957302312760804,4.699794343423249,8.81462503077103,9.479536518949955,15.246693764932575,23.665613315776078,18.33385866494981,10.80648194537799,17.197336708358353,22.486649252944304,18.814297943567823,20.170185487074093,23.078089022518025,19.326268909542165,22.354493387168603,30.95752388377249,25.94153477551198,16.71371945768105,21.039863687770225,27.036445179636743,27.30663146278146,31.118013630636238,29.14423430946065,13.64708824646718,5.564019397813496,12.168308702226147,15.636697765563362,16.059024599419466,19.547282157329313,12.652674187501379,-1.8375341153296265,-2.1375238766857945,6.28489046526916,