66.18776697526927,78.16437237806448,72.15546995917443,72.29643072020534,75.10680841539101,67.23730870163142,69.36147643122216,80.62364637742257,71.6719548810515,55.31992745125699,55.72726675978963,52.22125335624329,36.65192124557881,35.712209605578536,46.27552386767561,50.81010103231413,62.93403151716764,77.80390558765717,65.89907323383233,43.14113335048985,39.68827221010413,38.310002893441094,26.48753689364811,22.209716877525715,20.227240677447544,12.624156886167778,24.85618001931332,54.734779466975944,64.66152136816422,56.887264743786815,52.59127129833169,40.49750521636826,24.230397217122075,27.4093980352152,31.841570591344006,15.186902087664276,1.8468194438766314,0.7964125179676735,-10.848397363513094,-23.12022906185632,-19.086245230332466,-20.889897608584263,-30.452582376114183,-19.81157851278008,-2.900982120240557,-4.274367105398085,-4.338154602047447,0.2538875694386502,-16.048408505532223,-38.05721694424074,-41.72546828958691,-46.752578432510724,-55.91567143301676,-44.57702077203726,-30.897651963634864,-40.138103878181234,-48.1824847368907,-44.79802731581344,-51.5914476304795,-56.121768138721826,-42.69071701129775,-39.84125831317368,-54.04568997726449,-55.02212200277951,-48.797942623838296,-53.94396285839383,-50.969840689324165,-38.295658304107015,-43.17385191949738,-53.81485736022482,-48.65134071974388,-46.811809719927844,-50.59905028155508,-34.78720314125309,-14.658362594791466,-16.405862160386704,-21.692490976374295,-21.345485853933646,-34.28180841751359,-47.23760810627504,-41.53492031279396,-41.458349640603885,-52.18551151061969,-43.399690053208545,-24.095424915738548,-19.859080440647293,-15.191326619497904,-4.270688438363155,-6.723441627673487,-7.654190912614228,10.369001121809209,18.639564396524815,9.363141524852994,13.930516708284403,26.90528552115139,26.412429382971325,27.58381114597784,32.19747182128388,19.193850260094916,7.189497994777378,19.013124977133383,26.950928462938165,15.855965992970017,8.22895224733727,1.2769742210246244,-12.463812588658099,-6.459638989309996,17.452644898009094,22.42133732428552,12.202160977940746,8.444696494103958,-0.3877980639844676,-10.065973062376692,3.99609262129964,21.311860595266342,14.282834190274514,6.2067753284589005,8.780076228967252,-0.18433475300088276,-8.929167048950486,1.9783948463208576,6.3196548621188295,-5.361500558871417,-6.9295731305918595,-7.83027642749261,-26.83712147709563,-37.43983658762735,-29.3083095326555,-29.259025041643092,-32.26071706650884,-22.79817606197464,-24.79196646180612,-44.71023077345191,-53.880040316153256,-55.34298977855776,-65.26820350180328,-64.40852897822063,-49.98837255504516,-51.73091894174191,-63.33305330199019,-61.696021554854916,-63.98635258082283,-77.90555017918567,-80.32886902848655,-80.65970244339657,-97.3478552728582,-104.93568814467055,-93.1298253567821,-90.39104021385194,-94.12483489340778,-85.95701568192885,-84.91419153766094,-95.68355371482002,-91.33172473621586,-83.28202402168299,-94.92930310786264,-102.29864645746002,-93.95428704493337,-94.69384665771436,-98.10673607950271,-87.89598605853112,-87.04424987950895,-100.35442563635345,-98.87662670255179,-90.86591458661552,-98.39511223790208,-99.95558269526552,-87.34699909205635,-88.64945895118254,-97.29298455931122,-91.51579589035583,-90.55545913174612,-99.37915638653143,-90.45775547741258,-73.95246663525184,-72.0618700623585,-63.09611219488163,-40.927004546390066,-35.80884626394272,-44.303652762472666,-47.343645450062695,-59.00688685249759,-74.56273786358265,-63.51129764635846,-41.39018885469976,-39.880395229666945,-44.57639553071188,-44.87194448720622,-55.225848545500746,-58.849603004646994,-37.56979538928156,-20.963426746765002,-22.06241122405914,-14.18431845050986,-2.179147467597948,-6.438593325316937,-9.117557553564023,-3.44176487982426,-9.436764174948859,-11.139615859461651,13.024449763379291,35.35877284984323,38.74631964129884,43.232825868809954,44.75454215001031,31.35696568839618,26.955126474116184,36.55976562697634,31.430662195212246,18.592412075718073,19.495330253102264,15.589436409372674,2.45932770050287,8.602082260606753,26.142004073335308,31.077964445652736,38.583491878917705,51.575083445725184,44.14573064851966,29.014545344784924,31.551444475904674,32.78941485396772,25.272279679065498,33.45498900002463,47.09992568457033,43.62617184457969,41.56118017620428,48.263855172715914,42.39388403928849,36.822758671305166,51.39609534777242,60.1383261729513,51.26188636118182,50.11964654594852,51.68432721885341,38.03232230831747,28.564667585673455,28.540802160482915,13.408833331891387,-5.3431978428845035,-2.583246472262339,4.306808510341148,4.245744300568996,15.084741580286648,24.05052210690524,10.153195402950692,-2.239444564546314,1.0814319738868625,-1.3056510817650469,-3.486061915172631,9.550776822583138,14.100085287812185,3.796582571958677,6.799729109697086,15.092821970451233,5.888130415319798,0.5533716136050564,10.78169459583027,12.769874802661809,12.008766597257106,23.962438174535812,23.619948537897848,4.9987527383384975,0.15718185760622272,4.7899441563965315,-4.168307730596416,-11.164656098432674,-9.40741835734359,-19.11899405464793,-27.453831440811875,-15.30511633056177,-8.325101055117663,-16.97824818565045,-14.125373573693835,-3.333829513626024,-2.7459338793958836,4.259092132374578,17.83624782366078,9.838929532599296,-6.362260278844159,-3.0346235807815978,1.3914424074484733,-2.3015700871645755,10.057435233362332,28.448092639573066,29.07333632962382,30.585630666504002,40.35949420071054,34.13046916857514,23.84335071340745,33.21215764659669,38.259028386292,25.69189879384262,22.035594830643433,24.985411080926333,17.17338526791967,19.11411569427609,36.056488241196824,38.19675249616109,31.712432381246934,39.054879774356365,41.00496952518306,30.892157042676885,36.35612593731576,49.33936035147999,44.99885219705649,39.07781991972101,38.626368936543855,23.225286216111353,8.930214121823614,21.090859348322823,36.69047792719075,42.22252056179429,58.974969844121674,75.70712868897469,68.7485333618898,59.34386958738571,59.94147231511284,49.762245745788235,39.842547921118936,50.39380796831962,54.89724401362044,39.94823530646667,32.8964186078488,30.813753743546133,15.069037925572406,7.377333401769442,15.590045234020344,12.27942387468719,6.431744319175338,20.550307869675304,30.33490482737713,23.22390418789678,24.178127533215253,26.632979120238755,12.379515613268126,6.352096108246981,18.490024617732246,18.797668437868793,9.923054321213193,14.220061530660487,14.992647684714338,4.9672882027689695,9.262847924229526,17.543265192476603,4.880992530365599,-6.378038367798026,-1.9092256100046847,-6.446791702616803,-16.293608982413808,-12.651205274439054,-15.364007986851279,-29.85778823450168,-26.75130873556882,-13.727330558384974,-16.557513161488334,-17.526231486634643,-7.544321410166026,-12.85189083118333,-26.122609066045705,-22.9001008403086,-20.771071567414133,-28.15019763577004,-20.34571193131553,-7.1693526043005,-12.941932320075335,-16.94617341781055,-8.22127798923316,-14.5426006520233,-32.535352100903346,-38.186647725721805,-44.16234400160105,-53.9945279973965,-41.70623622467697,-20.72773415402769,-24.07794004191557,-37.38494504181728,-44.14040574001241,-56.838718832757976,-61.1448751671264,-38.10256922173547,-18.466791681615682,-21.737457685669792,-22.650998712112642,-19.985964940098118,-28.087943096237503,-25.900745800706986,-9.58348286260332,-10.602940753452263,-21.662813830571913,-17.33275771555177,-17.211374343210508,-30.535192901500672,-27.81715870428949,-13.175368651143987,-10.130233362639917,-2.3186102411260836,14.619805372778783,10.723355973968584,-5.74868218074868,-7.001471709486488,-9.367146605032463,-21.7935331005738,-17.3322162196946,-2.0424298419207654,-1.1347044287844699,0.7525367322720511,11.122802609410538,4.770429744488557,-9.762643408969897,-6.984055277946556,-3.1576542997509716,-7.810524206280727,1.5180247541432585,15.536308099144199,10.879592265982785,7.241315032201626,16.38758787072599,14.955135627047927,8.702514929681115,17.139908131946303,19.320965509889035,6.992682005067931,8.77715869647805,19.01511511666565,12.68928642897647,6.895297264486677,11.305359650176868,1.4027119155921994,-12.094947069904833,-1.1189734417564692,13.31389301034015,13.05107251084989,17.701881312833493,19.930152961065893,1.371488471123195,-9.621084736733982,2.1802431680387686,6.21517242212681,1.6515866029457857,9.657151816123177,12.586771616162613,2.5405164288363844,7.008582981175021,18.50655799010485,10.874590862721902,3.2793629550900336,9.2965368487436,4.6915120287316014,-4.908686837208361,3.6940095518348404,10.408967954200527,1.961176921704737,2.867257072524457,9.198491445584509,-0.6397655517599494,-8.997373202192394,-5.255038171110423,-12.616496433227454,-24.667891225057563,-18.141066611477793,-11.789694443372639,-19.95338405690932,-19.49411620422252,-11.524805948987687,-14.828406405377423,-13.190202330847733,-1.482203374314281,-8.516576968134613,-26.699200814121014,-25.9282572028193,-19.505938193629085,-20.52744328877134,-10.562972584165806,0.7078686671998597,-8.592747382089094,-15.539322124789884,-5.922866654563961,-6.281768081286159,-14.833976877004485,-9.924224488006463,-9.405866098022853,-23.033987928505038,-23.318223725998465,-13.533003326861742,-17.687287681207426,-20.492775469904156,-12.484638163113756,-17.36792120615013,-27.085939025984437,-16.635060214266332,-5.582298470184661,-9.852006815238136,-8.428608163381853,-5.412672993335214,-19.268116437168473,-27.45043067723953,-16.892753577843642,-13.109089535264616,-13.47304570325381,0.5946495898888591,7.491501486125421,-3.8749355470728233,-7.081298001366569,-4.439563074910321,-15.08886475188282,-20.19633725175441,-10.926521120517116,-12.46071937488702,-18.61290570069323,-7.9977961436153615,-1.975735060378647,-12.541729912504369,-11.84729149008579,-0.7005631712127078,0.10080527418549456,7.224278085127978,26.04758027960978,25.016583707628886,9.64852196593774,10.080899846036202,11.356178232744174,0.043791449043586894,0.9117275200891286,10.599279429854368,7.794448536538203,13.090782809125445,35.10120146619584,39.930724113807685,27.148511227631374,22.91597365938056,15.746591025671634,-0.8112410713966858,0.07168636646613935,12.686251827477633,11.362371795927054,11.65513253183518,22.019932857738716,14.55326692032897,-3.6977175047347837,-1.0812285497320615,11.004443582755822,18.51471206931188,35.833475403721856,47.8268688653313,30.383134183831785,11.06467646660428,12.461705011203756,12.186539838323583,7.701465326737333,15.561679375679113,19.39127089685084,12.144694204196064,20.028855643934936,34.851602724268474,26.718269599930984,12.025608099030604,9.777875954274366,2.397354244789831,-5.174151667082026,5.305767555397402,9.457540298596516,-5.189737303900036,-5.884872837634543,8.923717122898893,12.10522377925211,12.800712687442893,16.87115022056346,1.695226202411905,-17.2554062602152,-7.702133168152641,8.344684275058583,7.101244566328011,6.959783040687575,7.340401915426282,-5.5472242818156605,-8.06185712094454,7.950057338248057,9.259034076643523,-3.529655375628641,-4.69319136776698,-8.370628520050543,-24.18226107593118,-26.083088431665523,-17.44903724322046,-21.10337747903481,-20.955809893048404,-8.856770919543674,-12.355086358439214,-25.189748117828174,-19.195045693015047,-10.748883550845491,-15.239804529760034,-11.658684758179074,-5.331762587751619,-16.649797050369493,-22.303127802042102,-8.65103405389391,-5.935008606531031,-15.262739086284244,-12.561491767186082,-11.834775610272004,-21.422304819252798,-13.767598539581874,4.547255783069205,4.081249528908385,0.18253023151557346,6.818938639211649,1.8881743884181836,-8.128499980754878,1.4881701660015398,12.378815064780394,8.095355490520287,8.932312523026207,12.091930298900976,-0.7897795894755166,-8.192554886444288,3.359217146237694,6.425005060721022,0.37702299287240937,6.982457779567099,9.097933935293764,-5.4191090399707,-8.79491030427112,-0.3287378687988318,-2.330535639074407,1.5101446047831841,19.873351342346623,21.289389963595116,8.06378987209857,10.34213008799621,16.058291850922835,12.141509451735573,20.479525921921446,35.357109655805786,32.29632405972485,28.982405220385623,39.61558631924368,39.90402345490949,34.02388500602483,51.77328878708702,81.56382534338658,106.28475340210436,141.9349997956339,177.5417574618869,183.6227138864635,181.89213235385677,196.19204156829912,203.44248324812423,200.66347567018758,207.29848083091574,206.35104514492082,190.965287312404,193.83970666111264,211.31443933409577,210.03234347099036,195.0809305657055,170.97824186616688,116.15598955797608,49.43126726511366,10.493443474264634,-12.690730657990224,-39.88911965457824,-60.15979778346251,-87.30018587840061,-141.04374956585136,-187.42251626562253,-200.62874500121154,-208.8268856569921,-222.01644237257955,-225.59320755221583,-237.14160598542784,-263.2912458787097,-270.4283565388264,-258.7106214319209,-257.9041556299638,-257.7515458328934,-246.6032916963543,-248.04467702276787,-258.2306652299751,-251.64497892817604,-243.60083601709715,-246.19665874450573,-231.91483220825066,-202.16544901118078,-185.42068667026027,-172.7464532821636,-156.49938735564413,-159.9239951742164,-172.04880612737247,-161.5475114967004,-143.33474679970658,-133.9440398502544,-114.83893421794167,-92.12169960299119,-90.22644380589193,-93.45047419547126,-85.17058225881482,-82.28026734615905,-79.04477546229018,-55.35349424337685,-35.586924993146056,-40.24979735209447,-42.86761111920724,-35.000933298834425,-32.05396253577949,-19.029209600542433,8.74202485780223,18.39110944119922,10.836995173026551,15.707673657202996,22.69659238071539,12.127045670290654,-5.670226202542643,-20.055447054377627,-28.763564928274448,-26.29937756241654,-7.093480400036898,18.055457183993617,21.965204656358697,9.609963662199176,17.614303961993507,41.914681570150876,52.62256347599201,58.90464015964838,69.95743481730142,65.67285733753401,58.09190176933262,74.91284909520665,91.72667929318811,85.82817762154104,84.07725380368083,91.43619072799704,86.1640108257651,86.18027452508223,106.79223283491967,118.87895963673184,117.52646006424281,126.80780890890755,142.44127811249888,163.71708858749687,201.59958662591868,226.46216324356428,213.36183619621002,187.22010860745416,168.24931409249248,162.34299366971848,178.78024915876824,193.92505639733025,176.95003738212785,150.99256502641626,143.72364299829292,140.1465926039676,136.16258893255576,142.06316578261274,137.47653282939186,115.70039806455935,108.56598847947596,114.0122306508434,103.06739323926199,89.86310957082884,90.51755847680722,83.64046130921433,73.27772607039577,83.71584263962676,95.19044797805108,86.43802374614695,77.57446017641857,71.87100629540585,54.87028146648876,48.48411911345889,64.52736170629865,67.66664476401868,50.04792594337705,40.1859600271812,33.933404145442374,22.327440436126093,27.666496144199257,42.52819115469123,34.90916858243165,19.316748579888085,16.78229086190004,7.083527092633398,-8.169260435598895,-2.028124358962148,10.317202974713503,8.818139289628093,12.223463944230355,17.499120887691102,2.858281424247954,-9.315684687462575,-1.0314289884691794,-1.1812507648074297,-14.312329956436463,-15.906569710837882,-17.51265868181434,-30.266834464903244,-28.669122730155134,-15.643883687019194,-19.1255410971891,-24.546723452648237,-15.844740744074787,-17.757201059174935,-30.958992856640428,-30.001806698468542,-28.105468049018263,-39.81973153976087,-40.821115264970054,-30.68532657126125,-34.29683496046712,-37.38904209449642,-25.431241060642797,-24.683209408055667,-36.067978362584306,-33.65352460865379,-31.75976630526094,-45.284186083147944,-47.85020078104998,-37.93165834700106,-41.294065364437834,-45.27506129680506,-35.91630608829263,-37.40735176825803,-48.837553551060616,-43.950241520163324,-36.082756291254924,-42.32718332521844,-43.27749128563195,-39.74137501583381,-51.26359850312391,-58.87501213940997,-47.41890084513938,-43.33852613928022,-50.33950479592584,-46.699537482004956,-45.439715216888466,-57.31381938980502,-56.659090152979864,-45.52808516905784,-49.03318859379263,-50.2205370592622,-34.99760475199256,-33.23443374670233,-48.21316813054986,-51.92858088508169,-52.50442143594349,-61.30345700224579,-55.27441225306857,-39.63874986689022,-45.290230319430925,-57.670588944811215,-55.65853643559254,-60.52177092919588,-72.62584148467316,-64.93259788978658,-50.7774766950801,-50.19188968124912,-45.07185294088778,-37.7171840858133,-50.98171675257567,-62.449161150327264,-48.13001199172031,-33.15033613784532,-27.381610864177862,-15.140104826152724,-13.724732556571027,-33.77661288854775,-42.71271106215667,-34.8448378497319,-35.481879560250356,-35.095453383903,-23.811826222134926,-27.771485177878304,-44.845309679431345,-45.94506557887594,-42.997791861493155,-51.059598053839956,-46.21363758814419,-29.830531129946287,-29.36131300384553,-32.103721590200195,-22.8858011796591,-24.25124795565476,-33.98468338579118,-24.536073363908713,-9.621159565951235,-8.711770682842701,-1.6935640066994164,11.520124588235994,5.576554971247255,-5.337852065033387,-1.8506567459055665,-3.819313211883444,-12.121632741693473,-4.712489721041079,2.5834854801799274,-6.73177238354795,-8.342219449100456,-0.3848097295127588,-8.59283269261318,-19.65469125525147,-15.51348068808155,-17.035866055109615,-22.813875084551245,-8.475366990279387,7.155901636188674,3.291744773642563,2.213793428684495,6.191090035204934,-5.370854946957619,-13.252175160865201,-0.18509451245761888,5.069285901998871,-4.264132364480521,-1.9273411183692177,6.035194273324573,8.268601197242516,23.44614000886405,42.38674717326734,34.8751025554452,18.57619223477245,18.589840735062545,17.42636895035514,11.877578313951911,20.932072495507207,28.744101663339368,19.284019147487317,13.666296788237243,10.977709914454998,-8.591182818351488,-20.62400634864425,-2.574091579254172,17.069667632111685,23.725804299011806,30.853721527462717,25.198657789709976,1.7601009155258556,-5.02849894372266,7.580949299003735,7.86930898713445,3.865734799430185,13.755614235586625,17.552159887529253,13.57665793996254,25.28023033141243,37.363391111326756,31.629159967875143,31.849543950772322,39.35361122584715,27.89591422761553,13.455677395970527,18.097845252736636,20.84604354185382,17.457331663812397,27.035757941184194,31.188676212484626,14.14389172268811,5.159324590998239,9.62212616183617,1.8032342300478237,-5.192648386615127,6.308906741580596,12.041764077546944,8.293851872920364,17.83837582491893,24.51144409604495,12.129758192573654,9.788816901538894,22.80110235957144,22.25249467072015,16.127241666358163,21.835161411082648,20.82678196324651,14.636268078743722,28.014894568674148,41.47494112041956,28.78849244519975,12.994206010338232,6.853401858397884,-6.030347514776015,-11.851919058363805,3.3825482672774667,12.184727602251977,8.899615251939679,17.714382891365528,25.43353628919407,13.977699078948497,6.847285908286111,10.769554560449953,6.730759559920715,8.113987687081712,26.82168977134398,33.49220768535407,21.184225084579765,17.04751069931987,16.69985769124347,8.453059409332745,13.827185556648798,29.51891303919806,24.21337562890816,9.874162921717872,11.397491918774303,13.445631205915689,11.554014688783933,22.661511934311992,29.039436601472868,14.158174378333129,5.994485745662861,11.231311496838224,2.6607585436592665,-10.779563980981004,-9.641518024650178,-10.946723339681729,-14.182036647639249,1.7387243756362034,15.723237748418267,5.76364189648041,-2.2367116019521633,0.8325888840615567,-6.004410649626244,-10.150283182689805,4.505254555878312,13.407727726692858,11.143816978163676,20.6275391333835,28.744506695758044,19.599357376616197,19.247243937120974,30.8725495439813,25.64801577132655,12.841251580015182,10.812989404145135,0.8834175109487354,-15.153574459391308,-10.74709673276291,-1.1127551640623108,-7.117414463095086,-6.750703608264725,3.1352137051190714,-3.0577462576584575,-13.191253746770677,-7.940408696350586,-7.986856588995891,-16.007802831657457,-7.418284569027289,3.614274065922615,-4.097249868483468,-7.8964477824249375,-0.4025414995808765,-4.220083270706637,-8.189213326546389,3.2271923357456362,4.579271931173713,-8.1376972661562,-6.79881383890081,-1.206254392251764,-11.103926636666632,-16.096593133483864,-11.723175362364334,-19.8107359771599,-24.981955998314056,-9.889016112921627,-2.976863285104176,-10.960421860432508,-5.735307475702655,2.8447998579462523,-5.703882321485718,-11.942203546049292,-12.293914779473543,-26.826245087528783,-35.69762259226235,-18.902456303845675,-7.238676250481174,-13.602209125857087,-13.609073634959973,-12.7300914986222,-22.361330833765617,-18.13468814012628,-0.4706996609596903,0.3666122656072397,-4.316876769894466,6.153912308191969,9.948694702479823,1.4980141927150754,3.762974090112439,4.247057016501788,-12.673807601922576,-19.36539082567552,-9.923060133245915,-12.960976895558032,-20.076148726842895,-11.981756112220497,-8.786054065423095,-14.026814620284306,-4.445735245680826,5.090696034680433,-4.46769216815756,-6.681528977869213,5.504341166993706,4.148500192176999,-3.271267369909787,1.8853765811692216,1.189887266815092,-5.8596878784585495,5.173731682416982,18.43208258012992,13.461277130744666,15.603631830824007,31.908138536845915,34.29292145752618,27.959189613598802,28.84967876591564,17.607109885817383,-4.577184375026131,-8.279447774706536,-4.93043232541628,-15.854285090105355,-19.219644559038173,-8.4835051292102,-8.15339078278857,-9.495262232159957,2.9747984979993882,6.691384340469733,-0.04290807685660747,10.239558395034464,24.39275075552049,18.468260853089173,12.053366771720484,13.535403940484715,3.9982151782387962,-2.7637279500346397,8.548732384265396,8.953237813110224,-8.203311602185334,-11.801868581663918,-6.585228168446749,-10.891491702803656,-6.3297456503998335,7.473093967985355,2.338642047434674,-10.798658799188257,-10.527453490071341,-16.037855702526187,-29.684688902774486,-25.556852288309923,-17.293363328769242,-26.71503150591714,-30.753490152537488,-20.455639727919383,-17.552322143468157,-12.589678378352733,6.257304077463371,10.33679606495108,-6.049495598111882,-12.475040899689184,-11.109074306448843,-15.378195616300335,-5.551132846842473,15.59675653407899,14.977835457768116,1.8285499360236601,2.0729302529636042,2.072939521936793,-1.4496470421385457,10.833209525267767,20.364594375179806,6.413098460345154,-3.3880090949602257,1.6131465823383984,-4.181991166859902,-14.079014258124666,-10.279660914739766,-11.507376273233422,-19.649945599085616,-10.314312783377929,1.6922247030717439,-4.982879772545328,-4.90740749543175,12.153884560224842,20.19193716773627,21.874398808012135,27.358431499427667,14.765598655061495,-9.878446809323844,-11.058436104258675,0.7019334536680244,0.036777140656489404,2.2255133893943486,9.967375349292972,2.160901380374015,-5.132085711775467,6.706462009154189,10.472627426828371,-1.4630895140976428,-0.9937318670287059,3.93410650691694,-6.02200009438976,-9.745586616999205,-3.101954130669186,-12.105482341335216,-24.672307085492697,-19.85339037542339,-19.641175990430924,-29.065628589589632,-21.3337863094048,-6.706739126683225,-6.987399189733567,-3.735348490075484,7.514497395415042,3.586060207365868,-2.5285339992476725,8.474825450022212,11.610111456904972,-0.256257486223352,1.8037035556286884,11.458081822905639,8.335503084037391,10.887358942048502,22.72914368751943,18.535489160831652,10.850857635010218,20.801915681247987,23.492600501204574,8.807510915259897,2.9981165634713065,0.6255924505633617,-14.900263003602166,-22.30302533313173,-17.673622103531333,-25.753482866102296,-32.86766795253437,-17.781413727903516,-4.7284916429882795,-5.099366070786198,1.6209044760944216,5.887096161670003,-7.729715453039323,-14.876639066379504,-9.714943687820764,-17.537590749385572,-25.61337629856948,-11.57012338842689,1.755071053144352,4.6668883279028375,19.13800940931391,32.87000168901926,26.1578206570004,22.58580229624907,28.64267228866473,17.88310033104521,1.9897196430967234,4.693814848830529,4.97701553213739,-4.849116748204932,0.670737107054129,9.766888765122197,-0.9424752757889587,-8.836715014760308,-4.477096721925157,-12.328584642703264,-22.050449232649257,-13.990899831053493,-11.499466950909156,-20.060656540815614,-10.428074683690719,8.25098563251705,10.493663665066066,11.592021004302799,16.957304262500422,5.134668697332313,-8.670155891518906,-1.0937675637746258,3.819216283255805,-6.1127493807640025,-5.452555482994048,2.904345042021977,2.756150988981635,12.159338104815218,30.859960427203667,27.26450476997698,10.64848847311337,8.721192239546195,7.061105167296315,-2.115607476115142,0.5499622074810837,1.6133466267778156,-16.728706945953466,-24.95705393588831,-10.010708131182424,-0.1483142451705718,5.209951973526217,19.771289113908438,20.72823561582834,4.627513905800107,3.5863454136161055,12.170163297355664,7.825967241783744,8.50643794087932,20.2690706190337,17.61717524616494,10.89400819419923,22.826170353457893,31.76341035241452,27.29669590777415,32.39103740645556,37.47679874590117,23.57103344041278,14.550431124486437,17.971528718084773,5.214382480935192,-15.76268580879242,-19.312030799835725,-20.3019682972746,-24.41759659586509,-10.423640217733587,4.331322178079075,-6.104512152205266,-15.852264419732315,-8.740137355020417,-8.32627512441256,-10.117851477301294,2.633985226325642,7.351825840363862,-2.3546399661061717,1.8683471256061779,11.470049652532358,3.3552287718925773,-0.5887075669182351,10.544678319441267,11.520548760324933,8.644569067600171,20.14309868186204,22.78684246505477,9.391824790236909,8.876676130040243,15.048587850711657,6.388286255287773,1.5719048974077654,6.2643480782457,-6.188773812378966,-25.316977080846353,-25.16507451610047,-24.20668657099474,-31.3009060200897,-20.91670830583829,-2.4331886439908446,-0.6543186945386941,2.0700370842410782,12.058950810773545,3.660257831637379,-11.678117790353365,-7.872718152962542,-4.159609302165919,-12.175783673027418,-9.03680747191012,-1.354085771438473,-8.032565879055152,-7.586997451554359,7.533704094599715,8.91583477102642,1.1693288298727786,4.941928237245751,1.5495782744603432,-15.761231111491178,-19.90085305623516,-16.444151732557632,-24.76251894429254,-23.271463515852222,-4.735997230909478,0.9053297081689136,-2.946995114828623,3.3823021111436433,0.37003628786499565,-17.25745639784847,-19.72209296015702,-12.772431957663791,-18.72375342554618,-18.175641306134487,-2.6723386231437765,1.5570984625469844,0.24751764212303695,13.032868554606381,18.978196678157786,9.590323440061056,11.319894827234535,17.575744073646554,6.318451851386815,-3.8115373281791842,-4.639980904399145,-18.932284836981744,-34.05179803541603,-25.596896320308055,-15.116113596066793,-14.885123565743626,-4.050022747418176,6.118887651128678,-5.185848758258359,-13.691186130150939,-6.915710272078022,-7.477135841839176,-7.558875246844192,10.198207231279511,20.572523245030673,13.409614527140041,16.382620144405834,25.10322320772483,19.670721138824966,18.998120503209925,27.931854482546527,18.80408265790436,1.6671778861987754,1.793490345438392,0.6149194994838232,-11.084476779043346,-10.235526560412833,-6.526365647158178,-20.40095988915103,-28.879407599905456,-21.79926646977007,-24.17953777296862,-29.038962202952213,-16.973217883547477,-10.1564931404691,-17.657667228939253,-12.429608613341191,0.4809194679718951,1.5025841721763407,11.389161367374268,35.270414244201476,40.95326376547592,34.118988657798404,40.424696406663216,42.60296803047562,33.22365641933948,39.71593100709472,54.58313792564584,57.019675144991155,72.05165572506374,111.38835853064117,145.64761944799267,172.80634763826154,204.6365142807815,217.09084899090934,203.35104011092102,194.49225078429154,190.72612126201918,173.73781810736622,160.98030389343617,161.8551477576929,154.76061388588494,146.10276888378837,154.12295611080322,155.04909405917158,133.66965718705376,113.35002047950704,93.70693561555667,60.25719422662091,32.63298714627846,15.846037344009854,-17.2554523842448,-58.46044527193495,-82.7377133827982,-106.29881872203119,-138.67783686045934,-159.20629802551522,-177.91150502151626,-212.42940403824124,-235.87328812042995,-238.7470324688887,-251.127471326249,-268.69242147602125,-272.26780200761766,-282.2174837291976,-302.4165995729742,-303.29124993837695,-292.12230517300134,-291.7790896423171,-284.18177222531324,-261.46574238348916,-249.7158072969961,-244.0660136614774,-223.72907457561638,-208.17346500308574,-208.0837326561955,-197.63490679505784,-179.97250808826357,-175.45911361434798,-165.82821473681577,-143.65385771136525,-136.9459896489107,-139.99818839935668,-128.62827870827073,-119.77663762596985,-120.87445352080664,-104.56064709182846,-78.15784214080263,-67.31672084763755,-55.43929076309496,-34.749739965711264,-31.737804801655376,-37.622450667744275,-25.24424892838455,-10.493466260012465,-4.29564838187065,14.349262873950568,36.04608488036859,38.22670829251781,42.30966569510017,61.43369358342112,69.32461372909765,65.6010729863048,68.08473164524956,62.74170683150008,50.48634440606456,62.54018545996836,88.54343916448988,95.7420691362112,95.35493590905135,98.25575977881168,87.28102501267239,76.7950185864559,89.40538310112308,99.91569603723991,96.12155132157028,105.3527222882955,121.62699998756906,121.90449697886322,123.70265217194677,132.83190306608103,123.28793281890658,107.11683353005691,111.96674391822503,119.71159422978435,117.97330579115214,126.51917386491124,134.7255047124293,120.12763374964916,104.90688601709007,104.67445298484918,99.12215905022664,94.53724109604475,109.86945536131034,121.31163491249782,113.85080953469836,112.76514689072916,117.34919316474607,108.20324964988572,102.76807602156146,107.86154584012527,97.23256793945028,81.43813478550493,87.81189812440137,96.56916346634483,91.69938500557544,92.48689396802018,93.85331066267756,80.90082585852028,77.71272942641747,91.57043343548672,89.47874518177912,73.35577445448594,69.95526598731993,67.17644723715344,57.271177544129934,62.63028623752112,71.80280727628211,60.35062511815424,51.260346287308565,59.23189669770038,59.517420116783214,54.25729989530707,60.29511837485205,57.18753378412737,39.40672417493971,37.4603195924515,46.51017588243681,40.607097910998824,32.71993288423808,30.607533700922747,14.03245416522444,-2.807891600284246,6.7154807823132385,19.8174074995576,18.49104499401785,24.15355317401709,30.603350437480444,16.019059136561257,3.3013004836510933,6.528519611519301,0.9945374309666719,-5.772331141826955,9.116009624773671,20.90879176447527,13.183945636477235,11.617126998515664,14.502515232208903,2.7435465550781393,-2.982050054030771,6.222192028370683,1.6293643424277495,-11.607225840847027,-9.185212984947174,-9.760845426833171,-24.32854205164075,-26.598895492835286,-20.982038411199206,-29.608088247717525,-33.1876623709341,-22.165680080089327,-24.319420180311173,-35.09915866362174,-31.80478210176029,-33.30967312635354,-48.5705973916619,-49.195552209341464,-38.841857595223935,-41.111520625197144,-41.09717531015332,-31.705782125924838,-37.51636973245439,-49.20850781425629,-41.80995040292396,-36.24450459115775,-48.243936298507116,-54.67140624672395,-55.78990438034836,-65.4060028971387,-60.31412877205405,-34.295520461419024,-24.586057885073007,-35.14120267744664,-39.907166921991184,-47.124817808255315,-61.154082732942065,-55.85916402754684,-40.526260111231196,-44.55138520214899,-51.2729454894655,-45.54489168209223,-49.671967091603626,-59.66344242468808,-52.60980523724488,-45.69914124480748,-51.86269676648639,-48.42338924298831,-40.824808292772275,-51.67152719956011,-60.20946831190845,-51.671032636683975,-51.44906684870377,-57.689671847207656,-48.60072171775215,-41.89559835689581,-48.41720941457128,-43.27817766628527,-33.118990828958864,-43.32820929804343,-53.67470204041825,-46.73237145601792,-46.075044207539264,-50.98667806059122,-41.335564829474414,-37.07928305626711,-50.21733169886916,-51.01681571301086,-38.67500307317718,-37.39985676287571,-33.98923232257236,-19.817882707718333,-20.93596621311003,-32.010381125791454,-26.92577089831329,-22.602386574420308,-32.85396934701951,-33.12027991420436,-25.944848268269343,-33.62568924162086,-37.39172932099302,-25.127927158499258,-24.634083853552823,-33.72072676567448,-28.26771765668252,-26.66571011681193,-41.29010226253043,-43.46988948136503,-33.52383834282733,-34.54430422049746,-30.055073651368648,-10.218512714398324,-4.263796485205489,-10.86362000212764,-4.18588174151753,1.2614594810294535,-6.757949322738124,-3.705507660159418,6.154516222932113,-1.5303802550355057,-7.288760783313915,3.3371087295602493,3.79465211705688,-4.03405356599758,3.0104228347029225,7.229073632964117,-3.3837153248875094,-4.23395220480419,0.14430647210596703,-11.884774865722285,-19.818680368967613,-9.874052693918516,-6.499861027277421,-7.9613246393790975,5.183045133574508,12.722695563216682,1.3047848373556272,-2.7189877433482175,0.4715443203464602,-9.703510647590413,-13.120477116677126,3.123276765438928,9.496724209519344,5.065045680421678,12.848452395983161,15.399991510832205,1.4731221848942528,0.8958107239872093,12.505024635488875,9.589769915057284,7.278685475420182,18.33178504846927,17.129380119685656,6.148265336760831,8.83446178236271,8.703961505246367,-3.6745000413869455,0.33253719735797693,17.81058342018396,21.603960922831128,22.50843253659847,28.833841565345686,20.292231128814883,9.04857006628723,22.06368555653589,38.823328244573766,38.77191566879854,39.36886167505534,38.07826965474023,19.13734415486625,7.196040536402985,16.502716200214067,17.63224457231442,9.362446294979577,15.620154595558803,21.458201033462732,14.434963497423428,17.563284166124923,25.726405056146834,15.739975373041768,7.504141954368121,15.643609137192756,13.745218237083463,2.304948431324257,6.5972132140136335,14.778879628979412,15.700474445466845,28.876074735096672,43.76097195731458,34.347779295887264,22.201276878261883,25.713002969469503,20.276910150816924,4.762727423458436,1.5283677796408552,-1.0937723670398918,-9.326228298682306,2.2412544360768,24.334966499608775,24.424132965886074,14.95330104504215,13.740129556027746,4.8815981273718165,-5.429147754164498,5.617911578980274,20.031127918309757,20.00980265344013,24.401524744384773,30.648106187009873,17.707788366611187,3.987176285365417,6.783553331038614,4.546567064069834,-3.019353882809173,3.779185313636207,7.047493146265792,-6.142751015137603,-8.954182979927873,0.18951002247945592,-0.7789623136716761,1.5027109860336207,15.790634129775668,15.223586497897099,2.4695044495551057,4.206411032041549,7.868629845496765,1.1955012237169331,6.152598722432125,16.604145439701675,6.653488112404804,-4.695168565726204,0.9451166013898726,0.5216603048018023,-4.818092805108706,7.144626909476131,15.96648054999867,5.177556103757999,1.075644398020325,3.771208263666151,-8.96782540174298,-15.987298609414578,0.3512282282392398,11.813860743456058,12.988606749818409,23.163589135731037,24.298349466924385,5.638684794984094,-0.5055084945705755,7.616350702861904,2.006444585205843,-4.6741494159804855,1.7169798818712363,-1.8524711572701777,-10.084943585236843,3.6798858098357092,19.58539112359258,17.56896421599929,20.526877623816368,28.79045362249038,19.79337679860324,10.725158089308607,17.46819137941186,16.016402348786386,7.456091273549202,16.632385883002282,25.839248873726596,15.681291984769603,9.790663498506303,12.539465865304496,4.435834709844606,1.540194023567496,15.99192025273043,19.48090202397983,10.03861500777182,11.998985461563356,12.399956776235337,1.25274696597553,5.832473947524594,24.140356186236655,28.027631651850392,25.525257010684413,24.73773953361242,6.474621854832605,-14.721445532019278,-7.92620722384738,6.258525497391978,4.37950172088711,4.791043491238349,6.944755176899828,-5.933120680329234,-10.858423818533035,4.836306878551302,8.854429017225314,-1.8276698767923119,-1.4182356102689888,-1.6025652054404333,-12.310166317699677,-7.82602866574861,7.068727842708018,3.0998138508261293,-5.953652087171369,-3.3490498401635027,-9.901718539007117,-21.87093187482724,-14.329519018177205,-5.435483638120483,-12.546181546109919,-12.312956156593629,-5.777813484106119,-14.886611815772616,-20.692658914780544,-8.568279931900998,-5.265965751069997,-12.719659657297441,-8.649959378629124,-6.911629411288163,-18.128861633949217,-15.695205553940708,-1.0276927059914378,-1.815078607747958,-6.785543006747693,-2.895679513326354,-12.654242133448696,-30.69920948772083,-27.332665026383783,-16.558060640356544,-17.054730690229103,-9.442541477445664,2.4575227838347113,-6.727133439975466,-18.150836160271272,-10.779812139308344,-7.475896478403891,-11.512903347971557,-1.6127323980676067,5.3591224653866085,-5.420624403505667,-6.050258443692369,5.187203430120322,-0.36881513674800637,-11.800276818562898,-11.001067174063786,-15.589965978498876,-22.220890089415896,-8.097418771038367,5.956726971930735,-2.0978506735187477,-8.48037870329991,-5.7574370210564325,-12.640828391011347,-15.935866402661915,-4.329522431989819,-4.0341274457665515,-15.256198474811653,-10.322819449800646,-0.26133463785751854,-1.8654687079700651,3.1060672263547144,11.000932692334777,-0.3822718481728131,-10.263492365629343,0.6359818388633833,6.79511972117178,2.134088433499562,6.128171841138733,5.045591788306832,-11.077725527852172,-14.148242684049205,-4.065667054977194,-7.853454862758195,-12.798717279277184,-3.017881202450183,-1.699556140439276,-10.355613623789898,-4.123654883634208,4.364994754157703,-1.490573216240548,0.7955858229038357,12.357980668595058,8.079578698242557,2.317358972479334,12.399302417492569,12.933358610959315,1.0075173014025118,3.842452384149692,10.194584684022198,3.218548471089812,3.797685407767209,9.171373576564564,-6.325291263985998,-22.937075330536533,-18.44405966016656,-16.72130569987504,-21.80536689000553,-10.148534469435846,4.088676412389841,3.837588809583621,10.365457565245283,21.669848486095656,12.784497361533937,2.241109224473214,11.072308613850815,14.633674128295295,5.8485851405173594,6.739963319678756,7.045234029636635,-5.657198061356899,-7.938004416575773,-0.4882641349599166,-8.312169902074098,-14.759972822326546,-1.6642263685066956,2.8846304857227008,-9.487716623727216,-14.00567539794516,-15.87030889226473,-22.810637648009678,-11.34737409568423,11.687815272544274,13.484954355400529,6.271001511610499,10.845018903882924,7.871897729578285,-4.05111930625088,-0.6241445048513645,6.005392182479882,-0.10470068313968373,2.470610436955212,12.239957710957986,3.074247390262887,-9.71572241315381,-6.9689542033462075,-10.395340473075683,-21.187503106028377,-15.335549813416232,-6.358475066639877,-10.753623745290694,-7.3157111692105765,3.9966970258839414,-0.8248194869997332,-6.821525038466922,4.536846337535705,10.04010291773883,4.580082269003267,10.254380704968883,13.983893843462845,1.6687152462733499,0.5437607691710402,13.667777134344819,13.46073058842854,10.177416281362751,18.62280294217747,15.058610365893298,-0.8427483761085623,-2.4274968153791763,-1.846303204028788,-13.522779672242255,-11.92766915811453,2.787438181969903,1.4237280087630984,-4.114495394487363,4.01492903270295,3.745144462314141,-5.772561851710331,-0.0856154866456249,5.334550881157144,-6.458135222241998,-8.742372792613482,2.4734809581978334,0.5127737350274622,-2.907748630493665,9.282048794094832,13.078272418388387,4.73100454307265,8.35606761839245,11.248420586547752,-1.4580925360646457,-3.325178582982612,8.469509484574994,5.221258851443795,-4.0017802419005015,-2.0704119462689237,-8.690730337821192,-21.833130140576735,-13.610313702540578,1.4161484960369997,0.41145282687726015,3.102344702004756,12.844162366809934,6.488431775969699,-1.0894188651963173,7.647980672048051,7.785223514410227,-2.6078799320499075,4.216171513268933,16.454350269821443,14.108791191061684,14.78281388331205,18.284324326553342,3.029383507182886,-11.936256047951401,-6.125472407295332,-4.5911555870452005,-12.959872808586933,-7.379083431827752,-1.4910313863894888,-12.849110103492489,-16.804627701972258,-8.936625713394527,-13.493332775207497,-17.70989159862225,-5.0147007033886055,-0.7440945323321736,-9.478978172465304,-4.585285373211967,3.793297515770214,-1.89606514571229,1.0424081582279254,15.999596322730527,16.16960852148648,10.86331123980508,16.578430751049552,11.646723467415404,-4.280056998695446,-3.6390723439062516,0.6290447467228837,-10.991117583398314,-15.408043360170307,-8.544222233469709,-15.1288501349523,-23.319649226551917,-16.939078316239694,-18.105817216812177,-25.92502339426688,-13.784220342256711,1.8879064539163513,-1.2789788772347928,-0.7579757881401259,9.12136745048192,5.6487223968977975,1.4741954978036826,11.065208051466742,8.295295163508744,-8.301134701259043,-9.12161064309882,-3.5846505362470586,-8.60714633297231,-2.1219133560652264,16.288926946418776,17.552450136266742,11.057630330720162,14.586496060210688,8.200694851585872,-7.687244993072673,-6.734481744690752,-2.80884393679188,-13.891111896172509,-13.922696209255385,2.0895712940891675,5.135672019493388,0.6981846399661822,3.1504181106952442,-6.0634615181991585,-20.57384266634127,-9.219969702135355,11.480618602673385,12.448389983073682,9.752133070447384,11.363621291908684,1.8558764542405202,-2.5515484458458046,11.346086129595587,13.640634898661755,-0.4910751308893806,-0.3257115629210223,7.697608018690832,4.609313147113777,7.706682325068415,17.62336707979702,11.399260204626941,4.809406390871934,15.321103001710977,15.34228838811433,-0.5982704028749097,-2.646334536584524,3.1976601102405464,-0.4404593753448567,4.524929368745964,17.24591006644567,11.660308073579554,1.5021906936609555,7.0848053880080535,6.048662163192859,-6.530895801442495,-4.172893630482405,4.935346637647775,3.1189247908869766,8.914960027687863,21.307942129104145,13.28971366970525,-0.7291758678607092,1.8789397196778563,1.4387114014110798,-5.291335089195375,4.44525350458327,15.019208754108664,6.221127595465542,0.9859184637022105,4.989098302865832,-4.5136293964569205,-13.236555548704125,-2.3557148612179484,2.0423433730636615,-6.399687005982996,0.49390169751500057,13.523893926281712,11.887685184322972,13.572687321758748,19.192504439859135,3.0859400565123867,-18.27089299586471,-18.355811250766607,-16.897424535928142,-22.366636512046004,-13.12615658803362,-1.5029265303981014,-7.102770793242046,-8.122350730220298,0.3512829554278012,-6.076194012821686,-13.956383036089878,-2.050218956895347,6.341162798426771,2.7121309096481663,9.309673603838519,13.560071681304336,-2.3804034854127947,-11.122960576262766,-2.5054838332643663,-1.6862765235751986,-1.3094108636307331,12.646990785482169,12.68355154404843,-7.153931651136184,-15.558042990905177,-14.23555980901152,-17.721672020963226,-2.0020705551759344,52.57526424433724,125.78010615719889,186.65364256634308,217.70130779661574,212.69155674670137,177.13582418181707,144.62432260914898,153.22686979082695,185.4452750432625,197.96448682889257,201.16619762095758,223.54215526826215,249.31124311043553,265.81930337627733,282.37792103966206,277.068838298641,235.30802882403762,198.40671061128995,186.22251596357071,170.2807793331641,149.96660322517488,138.1756613358089,112.90281463013352,71.78651056219421,45.429787490539255,26.485390784956227,-9.300177848958226,-45.145671947203795,-71.50946299937542,-106.5693783578342,-136.83406129345929,-145.46495427869786,-161.18694054636845,-191.98615067340944,-205.04711818109104,-203.07211410053804,-210.0590448403077,-217.63915638867573,-227.7117897380649,-259.4457739808091,-288.35898403429434,-284.45100535834086,-272.0068810218661,-270.67122170737576,-265.2572469525186,-261.6694665016761,-269.5140320159322,-264.11345840729473,-244.3538813607025,-241.0526500029772,-244.56804207436318,-229.84751691066575,-213.12940738598007,-203.4636687832685,-185.84929637808793,-175.94352971551362,-187.6819120038501,-188.2220619805529,-165.8696250463812,-150.61297301605293,-141.6447050903418,-123.90149846775014,-116.0957104193331,-117.49296462648338,-99.57021216651898,-77.61563474946752,-79.28960879192873,-83.03077698863368,-75.99210256169209,-79.3845652544238,-83.35031815198634,-67.88420843528881,-54.887230055889574,-52.35895040374987,-35.246321991948854,-14.035929598377027,-12.171418323924588,-9.179335358064204,4.125319638252521,2.2391263443333473,-7.234687586553426,-0.8522441091066995,4.940298790779523,2.482082439056546,14.253108066208979,29.674026163722537,26.666015557507613,27.215465504735043,42.18359112435711,45.9951934880172,43.418126275418054,54.06291488936027,59.30433417234484,51.201192155374684,52.98365999961879,57.33343804839814,46.613307234163216,43.704480736681376,57.0467765940262,58.77414705184127,52.703057403418285,59.218351871046806,62.31427311289766,57.34466023978098,68.07269910366317,82.01327291516603,75.11569430761826,68.63955096814624,73.8159267075939,69.13018145926355,64.96253467337884,79.81491156856104,87.91243250797538,77.68128481810807,74.16653636228547,72.96698219850275,59.48930931685826,58.47280858722499,75.93779160926096,79.5089753133265,71.73538996958422,73.6321545209417,68.3660822976075,52.00965723012504,52.99843761611177,64.44317725523433,64.20684569868794,70.12312773933189,86.432795000081,83.7431368165718,69.38845883895007,68.31813093225038,65.9790444008952,57.41949854459375,64.74132137550824,74.98154798333869,66.71243003874739,61.27954661805855,66.97815171137901,60.205567559180125,49.61579064480809,55.253334747160714,57.448407802990275,49.4305133627659,55.53802130585219,64.69463495690019,55.09924230646057,51.10247708922037,63.4473350472839,64.39683406312807,58.511378027622115,63.64983811102868,57.33116345185056,35.15021574639459,29.813399844923556,36.539623404116206,31.959546913122367,32.01627241911934,41.35642443862557,33.63779135867087,17.444324251540664,15.999219818704322,11.643210393601418,-2.2172491953902735,1.1694627753157159,8.514768013126897,-18.48342925694599,-67.44153365859673,-113.75872961354486,-158.8711838232778,-177.29549230496127,-146.07552044345536,-109.15691193199808,-102.30488630583044,-100.53906616401437,-92.5761245689497,-89.30285664224067,-75.47583901036717,-51.90008655349011,-49.44472414279852,-58.8129344892516,-52.03811796147281,-45.75113743950091,-50.923956108113686,-44.24160305644708,-30.899476677538935,-31.47835047318027,-29.85831385511142,-19.16325053433385,-21.47548274369869,-24.97664093174607,-6.1626066772150185,11.150075869876526,11.25483771821533,18.825647336235775,31.84385325161301,31.270396788428314,35.262160702739656,49.353265369922674,45.18847688399557,31.502903571567245,36.326717821321274,44.192596432835636,42.86269770996394,51.19550426284229,60.64539602431116,52.15441036593642,47.807583414582616,58.542049027288265,58.05217072636918,49.26433131722806,52.35914804474751,49.873836303832185,36.047629557321535,40.22634209487457,57.21791029130003,61.9362888811921,68.27464864370002,79.65805892799982,69.0078077361056,49.435753029945225,50.09736576146022,52.44746597425008,45.06785726785839,51.8510623391831,65.36041034957333,62.42345136698095,59.039391565352844,61.1398554430881,45.41931362507775,26.94284462917588,34.79919243659505,47.38951878687148,45.92339139244793,48.060803408523725,48.38291363737943,34.762572822525954,34.984600289504,56.100487812070675,62.56903579728905,52.950354001970446,50.20255146893635,42.8491041463077,27.895031215892843,30.4045543093119,38.54597077867209,27.464954883786568,21.201317876544582,34.778105426119154,40.613376911699866,37.45201734912146,40.55084274623653,30.274175721871885,6.013307773267452,3.9035448866613587,18.783925150460217,20.543784765812045,20.650908435446024,27.097699217455965,17.696251329257134,2.795803181158827,7.208029062910954,11.622060560161854,2.764682298997673,3.057018646879359,7.514999968195933,-3.873326277580631,-10.63411616696656,-0.7090867064765476,0.44296551164923903,-5.4829225111959445,0.246234729150987,-1.593663810594549,-18.719870395770307,-20.79143862989874,-9.864673615663278,-10.000563032919986,-6.3973278414805845,8.014906350279558,4.593811584411201,-12.198078254839066,-15.127337281193956,-16.9575655493376,-27.1201881595832,-22.66231901140349,-11.957974935454907,-20.60101727211658,-30.208608901241913,-25.74558519639871,-28.483122295615537,-35.24594939749228,-28.076788954469333,-25.610187496310868,-34.42014628743088,-27.18584677450525,-12.313017688295385,-18.119388559000242,-28.328714982903247,-27.899774273992307,-34.840002171354904,-40.29587162711479,-25.66646710486495,-18.47615283234271,-33.34804683888434,-39.58968984854314,-36.71729682093956,-47.739614268494705,-54.15315512369628,-42.77090875406937,-39.48146934545983,-41.662547232437454,-29.899848856950467,-27.896179180606573,-46.896038260853,-53.96142886122182,-46.76144966932882,-47.91641251881741,-44.221596023215824,-28.959655263261375,-28.170574520152456,-37.17830783960739,-32.770766895347045,-30.857311427573592,-40.32110609994415,-34.56719821777247,-19.20698302714953,-22.660258574918686,-31.817878216513755,-32.78398504888043,-42.15444997556862,-49.3043966218389,-33.27079490134618,-20.534370935655343,-30.216250017083688,-37.0874305687954,-38.301345437454344,-49.30392514681444,-49.31979323549988,-29.95267179322568,-22.79614103487937,-28.294610826724163,-23.699196438290084,-23.720621852979296,-35.49964154115046,-32.2193762847067,-21.309349788433266,-28.895355089320265,-35.538342891811205,-26.60185018653778,-26.71990155577679,-33.39392550838719,-25.822737082382943,-23.419993998485374,-36.06517441834824,-34.82260804011624,-24.22227793919673,-30.25455033857226,-34.10550867914547,-22.44081453856727,-22.300486426850092,-31.823022577670066,-27.06270744161475,-21.786890637737475,-23.6956427937538,-8.221994418806666,14.422168684997922,13.600082698171697,5.296076503235315,7.117687037925234,-0.040286376192508744,-13.205005965915685,-13.32370827716543,-17.13066102208102,-30.848001031529915,-25.001735945449806,-4.898206219322711,-1.7717507251121296,-6.233983339572841,-6.718607310556386,-20.686821643390736,-36.22750438430596,-28.50147840348988,-19.910228918903897,-27.298541817146393,-24.913376276755926,-12.318098469861484,-10.523751752406376,-2.8217194135320596,18.09918559673088,19.94589477006765,4.639609002451359,1.2647174149519034,-2.1055895584591102,-16.18914523880312,-15.678960373762092,-3.701208155608661,-4.89115405281314,-4.318494336711918,8.765476572596445,7.226864790846912,-7.973470452896352,-10.591730697724618,-10.478999134376036,-16.48955661072112,-7.422114275553485,7.70119465943158,2.9113939305787695,-4.053218776395718,2.020697577478547,-0.27490909800272556,-7.463392855427137,1.6090139543938466,9.760043761763344,6.2149002888771765,15.671243302823642,31.97744823945998,28.103750707335948,20.076460193243285,22.391290451532164,13.210376282359768,-1.590229060039845,4.077414508141599,14.60972081716711,14.907126888039798,24.37664915043173,35.884252396078836,24.89036088401154,11.263421251136977,13.483047000667451,9.912842907916858,1.5087136661727003,8.378725673085228,12.546515971837042,2.7629398623683663,5.464595089243286,18.098498341396592,15.930816719668982,13.138565246492385,21.199921744122943,17.560419221851262,7.507576247810043,14.13219967571699,18.348424267583248,6.323190188218285,4.824065298071905,14.298602756583573,12.211201851513808,13.175099023799278,26.040775810812686,23.122337154252314,8.181134582499286,8.723010605686502,10.851945420371212,1.9594065107809109,5.873332265873273,18.472020101233795,13.680299088764729,6.6221481362215755,11.51773698777992,5.766315490217714,-5.8405700260635065,3.1471613268755494,15.932299310036726,14.64257359228596,19.173303890276973,25.59401924244446,11.753051089934367,-1.1817765909011566,5.282494649083876,6.728335781125706,1.1562818484991872,10.68079860297392,20.3506743567334,16.07351472811114,19.60465279836907,26.425136480747305,13.220530384243476,1.6701092715073504,11.071466032676804,16.69268830288226,14.512816485536293,21.808695832739772,21.026588090003827,3.4909219270909846,-0.1927165104412385,10.00458838142658,8.251259179788569,8.73718939626007,23.82878464184239,25.74694827253557,12.964747185913005,11.391790535822286,9.940169126754288,-2.2928733661332545,0.7820654075802445,15.63593580664767,12.091949975635565,3.899295085961527,8.240567095994288,2.5246745290308286,-10.741282991126138,-4.668903392344547,6.249404271879951,6.308389897298966,16.67170049896003,32.03948609908129,26.425974173154536,17.359666141518538,22.115942790907702,17.675896639910682,3.983116684168979,3.8500330200240667,3.4175016489921313,-7.99208854019977,-5.064904994910644,8.071412418417456,3.5238742422199554,-4.545852302860281,-0.7148089762641434,-6.881463878628457,-18.974264908274733,-11.230937655974213,-1.596378384894935,-6.814526094906813,-1.2322179404622786,13.883406170867831,11.655753419588253,7.747689070575603,17.39779754595504,14.588745551914553,-0.39879329140290576,-1.1524611586070157,-1.0036612727876453,-14.04343014113974,-15.44492810070435,-4.809424221780936,-7.201544715096206,-8.816171035768338,5.983717203199685,12.811570951366662,8.113206299830958,12.605537873164353,11.666799512929988,-5.997216621087827,-11.934425873261779,-2.8178388572600586,-2.7953754262063413,-1.682289538540865,11.411650917936264,12.73343438536117,3.507961861414244,8.740033750341334,15.00225809352695,6.891842829848457,5.47915633565159,10.267492473150178,1.1392053351898719,-3.8024948423085916,9.843897532781027,15.217284945780268,7.8292323970659154,8.825031096515692,6.607257710480302,-7.3779214949136955,-7.102624327190485,4.793810198843083,1.5989298256357278,-3.386783518611871,3.879412153804067,-0.19379250964712602,-14.681190379695774,-14.12004972316009,-10.63222760116177,-17.160737737556314,-11.313000831261348,2.600001858723794,-2.8039339976892306,-12.422960501672184,-7.778500394053422,-9.306586423117496,-16.758840417411584,-7.632390280757468,1.3331788163981242,-7.553377301400238,-10.73314675148047,-5.421723284427847,-14.002292910966563,-21.278666972035126,-11.691691946964038,-9.296737064200858,-14.38351311233497,-3.339956599598321,6.587106656395361,-2.7965415074910522,-7.413666026183011,-2.9962667670387906,-9.90175911878303,-12.855787676291158,0.26513044152176946,0.34665592210910123,-13.961352607508354,-13.205885282913481,-8.200179694401527,-15.991346324764644,-14.950172035794605,-4.81526994676012,-9.88547611366036,-15.06255519106091,-3.870085468487915,-1.6303425148865855,-11.035317756283895,-6.315544883734042,0.9426067537933076,-4.639407150378112,-1.5280041298610572,8.278315787838087,-0.2978243330185615,-11.02356331236143,-5.906588121205726,-7.441591376274277,-16.919504393635677,-12.412971594699165,-9.530516665006594,-21.35397497749893,-20.42007364615455,-5.830386148121446,-5.496435815567212,-8.740523478753772,-0.25184837419018,-1.1395860843893595,-9.326004742810593,0.6464621686227581,12.537834530570667,7.474200375949063,8.4171041080675,16.93078706603183,9.361140185602173,1.6818528555211345,11.173668541512944,13.211466159442898,4.611677586194759,8.27475489438443,9.99155177425135,-3.8644346666237315,-6.197445496384567,3.9645915596528,-1.3150351951483863,-9.171519452995382,-1.7711424953069308,-1.821787915588858,-11.596245195062263,-7.375911017486542,-1.8590046147612815,-8.81802595383977,-3.4135007203165184,13.682964372951087,12.660026919762835,3.3025713762046527,3.476110167953024,-4.347694576263193,-15.702650060651898,-4.546011464654249,11.1809623533124,9.922133366914908,12.438315205144677,19.57550726301395,8.480384945473968,-3.6183310027015234,1.9183642065624582,1.5370245790574562,-6.35482178234694,3.4390739532494035,14.90655440336409,7.09317199106037,2.737378111967716,6.7883323199119125,-2.219151158543524,-8.131638901651133,6.217776782273178,13.798340463077572,7.953463644791791,11.342389978882204,11.657669035649695,-3.8095069960312937,-6.603370992294637,6.742440727589175,7.600283324488207,3.348562624159564,7.589877036481005,0.47360719902427784,-12.892430010798497,-4.92031069652339,7.465863946832888,1.50425814168322,-3.1731589382525485,-2.6636897580918193,-15.381617580029982,-21.790240627440184,-3.6269417110523197,10.52544063534197,10.354416334676245,14.9324799825471,11.253656996283967,-10.661863222719806,-19.039212515904214,-8.348869261264774,-7.010565618981209,-8.622044377385642,0.19650186191037822,-2.600467953078157,-16.55616816872305,-13.937490842858011,-5.8337493377346785,-9.713701497811106,-4.25722305741719,11.343656832710145,11.743898054525687,9.668302090947192,21.07185166380992,21.549555804049824,8.514286561226807,8.351538449439188,11.184406872003514,2.443679945113275,4.02036772460411,13.110709851876948,1.1935608853772814,-15.636129373419898,-13.945407683213382,-14.735901770757298,-23.028866742308377,-17.394627003341384,-12.420708732383506,-22.591030746015,-20.284092886972147,-4.271076749857848,-5.387456616250839,-12.660643003307463,-5.37096074620235,-2.7645010569008495,-6.209773855576364,6.132035590597179,15.651087177130643,3.3653462802795997,-3.2424080622824274,3.2003352508907392,-1.0511000083440747,-5.014439829186624,5.811947258192574,6.78581637863629,-4.079858490904305,1.0537527949900443,11.897524367996013,9.584580964396668,13.316587202885914,22.9240502292467,12.530815191226438,-2.170076736138609,1.775867019183056,3.8066592897050824,-0.5693898656181102,10.334360882349191,19.8921032131437,9.3310765035431,4.886801916899447,12.077822418232325,6.369748278964641,1.0720927234413336,12.450755510261931,14.084304625345881,1.6936608062066982,2.116291543272005,5.558706736372736,-3.1107290472673648,0.6559677795140053,18.494155683564042,21.48063213750792,21.24542975594463,40.050962200189915,60.64465088752253,82.119887909834,127.13691827300653,177.0367543819584,206.9498196585012,234.72674796524404,260.1078268467465,256.5525055779797,240.01735895321104,235.62992535696998,226.237260415018,209.010013805413,204.302904953732,195.4226031676576,166.05981702040086,144.26548301841186,135.13087023960884,108.84452113958022,71.04424959307161,38.469826278621724,-4.574363110428477,-53.20191196139174,-81.67883723657424,-104.76261962008246,-139.040917816569,-160.57679742415087,-167.44515955731595,-187.0691320300873,-211.24236579660482,-223.4963478728098,-241.25350220962082,-261.9315413568016,-260.58814383766855,-254.06199940582087,-264.0956232407988,-268.45999594177414,-262.0539570365768,-269.07317059211886,-277.99244637166754,-268.85569585427703,-260.67874221862877,-258.66930302470496,-243.98790898226247,-231.59939215114068,-236.44421359718362,-230.9231233397841,-208.85707202004122,-197.19811737603297,-189.98510647649303,-173.47880945823357,-167.4699917914862,-168.58684755200485,-148.6457337279813,-124.20098910930278,-118.5236448396725,-107.93983146188363,-86.71566114718708,-81.26250706212994,-79.66107282540638,-62.101947570550664,-51.95006915590219,-53.4696568866528,-39.765899426905094,-23.01137681549148,-23.399611796996545,-16.873607342938016,3.2943148947199417,9.841096898117053,9.981433573714076,22.199895705720643,28.010473504406132,26.705089486368564,43.82900808513978,63.84474330317191,63.28582466307568,65.14474083181271,79.05208518553745,82.32862752239129,83.75409652030854,97.41919946873466,97.07758795248292,78.9104900416305,74.38673293236187,78.15898715098794,72.7173212956725,77.64444160957669,93.7357329873121,93.67747270858906,89.24930923104242,101.40249517107449,109.01965066465533,105.45791098857039,112.05855682887747,116.46039792277573,104.64022684622665,105.50456893488985,124.90484305398763,132.22437235515275,130.0199348588062,131.1385701675723,117.77439136980215,97.7691019791624,104.1596628111713,122.34138215756819,123.79730662234569,123.9157118294624,127.55994804522372,113.93924353788628,99.03911838930685,103.91942425351539,105.31078221297875,97.26258701022189,104.35851052417094,112.73008806714581,99.14827967217336,86.13627527065682,85.86251588550365,79.2464872646956,77.2265928679605,95.35465315923321,105.08735503482441,95.35393449156587,92.22664586715317,90.06467277298201,72.88553454863683,63.60383631664227,68.88867205899987,64.64416489542846,59.13992454574739,67.83357842642883,67.32053430088811,52.526902386718575,51.40003480047047,57.539272514065885,50.88154472635631,47.29075710346413,49.861250402465856,37.864288105879375,26.543378303965746,36.26635361354948,42.30448770418814,33.17899597725145,31.65232831141771,31.930444230132096,19.893320286945155,18.42650970499792,30.929681967800473,28.2390799390329,17.277141801993686,17.742625618837923,12.479586904480414,0.24762506680296514,6.355587754624766,17.309179631067597,9.30837454375554,2.0427815306238273,4.689237190607253,-3.00755887226609,-9.66087319884367,1.725496119007544,6.074511197955892,-3.640847392160948,-1.3908205710437909,3.324823471938285,-8.090158865819395,-12.735903829460902,-4.6258730730181785,-9.242311300083067,-17.340728343357313,-11.54031371272741,-14.029102759510645,-28.405048626580992,-27.29915162772854,-21.32847820629232,-33.305777100170964,-43.35773693323279,-41.936853040432965,-49.02007577857946,-53.27101472523975,-38.133046813032436,-30.493134440521455,-39.344915312001184,-36.34628818521164,-26.746777783348044,-30.499073903963545,-30.410334152298557,-23.632299191986476,-33.71331819193609,-46.03114449572644,-39.37121366672668,-37.84066827165579,-49.35652299425613,-48.049171982654784,-42.41076101476939,-50.60329527411746,-50.649314395362296,-38.15065607991039,-39.83956494590738,-45.85211509142009,-37.10493861910966,-36.43711975728083,-49.03848497397207,-46.670675616200775,-38.62190370535493,-47.2719875543272,-52.947271384146276,-48.083812261181585,-54.39356991034637,-59.74240549967673,-45.81755165189456,-38.34977852399266,-46.94127017001861,-45.91201679464192,-42.161458479936485,-52.800699791362646,-53.76293114457621,-37.52999425518378,-32.008373242341705,-33.05467722711793,-26.375232881448998,-34.864394185960556,-58.784981122257925,-63.12637704773431,-52.756997805522815,-50.54051959818473,-41.977071195639546,-26.247426091870206,-29.13491063291645,-37.84756770819503,-30.460511481380806,-29.10612187264196,-40.91446232064873,-39.285237523550194,-32.52293071125814,-40.539744379243196,-42.054604090326904,-31.369521724254227,-35.00031763794883,-43.28371573110016,-34.705718319289424,-29.119011068523168,-32.93469032573378,-21.534626560123314,-6.060403732525819,-10.794871626362742,-17.280168005908855,-15.043299535794727,-23.185128798770332,-30.077794382892648,-17.597431279293296,-12.345236401855999,-25.649690441732535,-30.31052359758128,-29.526051868120348,-39.04388684989542,-37.093045942837406,-19.77947775374786,-16.32140293895964,-19.69370292073407,-10.302550658155138,-9.40709460278227,-23.513931437495895,-25.53576033654063,-21.055152268212986,-27.46105791253429,-24.154723156075086,-7.275085971795768,-5.3788505828883935,-10.885110387365126,-2.725434232290681,-0.19445928986659716,-9.355599746810814,-5.3542706075389095,2.232375698128667,-6.239520155652725,-8.659326280798098,2.0588124342552083,-0.3193720060349645,-7.70342604379183,0.3781825880104588,3.474405335747632,-5.6502869887390625,-1.4226755176865842,7.403532683002388,-0.6871865127449333,-4.557287263496986,4.5969529887822755,1.9052131124526541,-3.8464019813912786,6.972134145185592,10.454696788436884,-1.290545129037918,1.7937521845606734,14.394908036742105,13.533139799534824,15.778228644555448,26.19526069139221,19.74188716657031,8.74603257011069,17.338912496329204,21.872050091248802,8.968160715675408,3.6636033815551428,3.183467485480104,-6.5354458235013215,-1.7318344644289922,21.58654225542661,29.176957696338008,21.784946790719115,19.933041682628886,10.738221055514686,-4.3569803464878465,3.1956315633800187,20.69349292784721,19.707471210114033,17.403700095483927,24.54652611528648,19.270113056152418,10.02533730530196,16.37056469038177,16.39734549962586,2.995720589770198,5.230439942710701,15.70902598423386,9.23751494847684,5.037924038247834,15.291329919994551,16.476631880016086,14.516347249336803,29.057815003981606,37.308807399712144,28.174036937751204,29.332340983254454,36.15997800204664,25.874392139657672,17.972008070698354,23.07470176819809,15.989337749213636,3.1846167143636,6.6424851082397165,7.527525678939748,-1.7661481504554786,4.5781182443953305,17.094665071439753,10.596881873644655,3.4672899932778902,6.372536675298753,-1.6502376586151284,-9.192942375181843,5.8688164052820495,21.03944804691336,23.14898597900633,32.9681514052448,42.137492788275296,32.444782072487754,27.564570237092607,36.9333446613854,32.64413642407996,19.459436969090493,19.938028812203324,18.274499294494014,9.246232488902507,17.98725881933939,32.144396690829076,24.52447589699948,14.871913866949921,16.13816068672536,6.1562660525670285,-6.013071618075438,2.0902996610955853,8.488980431526672,1.4528356466612449,6.377398717090459,16.716613190763173,11.048413351971565,10.390864184435584,23.333294338223247,21.443264326762403,9.687725966129983,11.323669861659694,10.753679236715547,1.7187328086771307,8.021851471714296,19.325466364523827,13.486561033080584,11.282200697499398,21.523751787861183,18.607009571894686,8.339546096658538,10.270611655310974,7.161593841345562,-4.633197422510365,-0.2578617440674704,8.897418065367958,0.9190614569104927,-2.391563773085755,7.772376441155286,4.716914794749747,-6.063031823386794,-4.153117947857972,-6.939270774063954,-17.991215607617537,-10.119830346003859,5.650720261970964,3.4380263107222873,2.5132121225969164,14.092457380535045,14.677012877230062,9.923453937396078,17.01084225605195,13.119629801211083,-7.770125696757825,-13.014884504822966,-4.88614957142894,-6.352933625589403,-2.7339900439825726,10.323280643334268,6.000655426824871,-5.961449364434539,-0.02058763503556893,4.073540401701971,-4.922384317987692,-1.3718023378974213,8.22481325628243,0.6940238762279005,-4.102097064023746,4.92176830245568,2.3970677176480373,-5.702695527486704,2.687264020964414,7.3882072991205305,-1.2355461295325778,4.697864936231136,19.31472249110914,16.35235405901914,11.491673634968773,15.225268762594608,5.37235957258898,-8.624194712694614,-2.998832894626717,1.9879670774908489,-5.374789286184173,-0.7663919377364845,8.382311894085152,-1.5435486728194112,-11.052578698035608,-6.91633233815658,-10.051952847493027,-13.839589162610089,-1.0027916861378205,4.160328598142924,-8.434205745630116,-9.68241367914208,-1.9643173515850423,-6.207635120111439,-5.257174221514999,7.502537588504536,5.396848636912504,-5.450248515036788,-3.545369501648493,-7.710065987228619,-23.735745147487957,-21.155255376886558,-6.041918147812625,-5.72403254961933,-6.6744690629424195,-1.966080077797824,-14.501146115203902,-31.522890395637095,-26.29459781500656,-19.080016306564872,-24.706963326235012,-21.104348907220547,-12.88045681694669,-18.637259429608356,-16.346192958907558,3.438622626321436,9.856967537653006,2.817812583619613,3.479713679375757,-3.0501985888094483,-20.876071544160023,-20.96512880640746,-9.696583768405773,-12.14052960410784,-11.48496611148774,1.237514719282447,0.25884457227174273,-8.70613499609926,-3.7819367653584344,-3.3560554338418376,-15.258947259913676,-12.235154448682867,-0.5654401737086179,-5.959746334258252,-12.168069532842116,-6.67111039416008,-10.669353352432204,-17.74140068804611,-7.604169459302013,-2.2044242336400175,-13.874753957503671,-14.354511409395057,-4.122581622934432,-7.404807905314877,-12.516618944721232,-10.349386375723757,-20.034748887413937,-29.881874755682585,-15.646312610227039,0.04364840465073616,-0.4826291061907373,5.025210933375119,15.198765545968657,11.505887762563844,10.718338906243174,19.329386790286,12.140611529837873,-0.8756479618827191,6.125654310887306,12.505189307769562,4.202385650275373,6.046970404959669,14.076082616503998,5.925039833171066,-0.9196507982334228,3.640293863409948,-4.475826197430789,-17.274945063239194,-9.779325586873362,-2.6037660779975247,-11.507225440990123,-11.348620399511297,-2.291650945356829,-5.485979687534774,-6.584130037569929,2.1851410180187223,-2.519474466289789,-12.0151997010034,-1.7058116057639774,9.452666214005559,7.24578687766603,12.496349123855143,20.225364490023473,12.51902438979318,10.071027738772633,22.200705314630046,23.094581515945475,17.631988464567158,26.388334119259397,29.14602091494386,15.945460518233991,13.77493636738598,18.392196522432496,7.814037103006638,0.9968536843547116,8.094090236203646,2.2034795932125353,-13.121201769210478,-14.31730335380349,-16.297629285323396,-26.841801397785318,-19.50867886042922,-0.4078649007335793,2.2729092728745486,1.100689196527515,8.088840520139065,2.7500634195332996,-8.039337381497763,-1.3089700196074303,3.547434756885581,-6.936011286023637,-6.189863538984311,5.789614028079553,6.392066395270676,9.523056110316924,22.572016178961025,17.507088889087335,0.5174832766898616,1.870985321515037,7.23145097175811,1.4444377782960367,4.755893136331569,9.620941533887091,-6.544289184404755,-19.06960420936661,-10.235897289574545,-6.823403490658455,-9.904788672877059,-1.097253154991198,-1.3300917368956169,-19.761830758838922,-24.79817449646281,-17.833250432301785,-23.385334616935868,-25.048776324226303,-11.959200328851033,-9.488731486171345,-13.659638913971701,-2.488032578681955,4.6172168056803145,-4.936883611524453,-4.3695898369181,5.953761689586169,3.2877920330751427,1.7983852924072186,11.87756497681855,9.891013681209067,0.6457865395404241,7.758123964372211,12.932335054009132,1.6958027780160156,-2.2280407253485475,-0.6827241771053081,-13.264938066943184,-20.06182982812726,-10.147789231953716,-11.40937837834797,-20.947689056317227,-13.602575093260587,-4.765886637015369,-6.197221930588219,4.546761021349814,18.490933690320514,9.395195029348265,-1.1861258456889643,4.896312399962149,4.320794177467992,-0.48804365729620436,11.263939766354756,18.880144613273394,9.988997981622681,12.261590406029493,22.85059361279651,16.654055921555596,10.297103242545493,17.033405145820605,12.537436328538092,1.064052591893664,7.523360829754951,13.293265950342928,2.8946115567279103,1.7089813615464813,8.632330748511253,0.40376583306581626,-5.565631323767496,4.137753197770741,3.6419402277333557,-4.883169457876166,3.1284659933606536,10.565840984397855,2.838975051745526,3.6108114715613384,9.8784419395313,-1.1138076368271506,-10.290600798295916,-2.2704008231754838,-1.9135905046751935,-9.384864420122087,-2.6543615685668187,2.329731096668017,-5.896086585734279,-0.9004874776915028,13.725003284554523,10.3131405260895,3.618504063970802,7.817503372677207,-0.7862603664230723,-18.774370308112594,-20.2500583933923,-18.53553297684444,-23.95306580314528,-12.629480524519948,6.886505334324524,3.99261054880827,-5.570537077229656,-2.704477804882071,-5.610515512368149,-10.22139537882709,3.080988967324031,11.437912404031787,0.31709816805284685,-1.3860861204057269,6.472775607374632,-1.1325785950346425,-9.328115285145852,-4.550277498967768,-9.024034093447693,-17.312408435581176,-4.442788451786321,10.114982526691739,8.000632749121927,11.352472526915205,18.602505052057595,8.220437430925022,-0.5729834707482213,6.9859100166064385,4.663551438597426,-7.411582963207728,-4.605681266294088,-1.0518484516540103,-9.128377125261547,-5.378435798323808,5.212561858398171,-2.3827262873351165,-9.314783933741593,1.0134830558553451,3.197325568146181,-4.465598987986892,0.8166261548686835,5.403386406540819,-1.7634011450289235,3.8272031157357294,17.32558020730998,11.596654812770247,3.785911201190117,12.280334686417891,14.341622395916684,8.08461916558248,13.279099956626329,13.374447011875388,-7.780190504428294,-37.607429684209905,-80.01159637965793,-131.99532859205618,-156.38517228047942,-144.88395720832972,-122.09908654723164,-96.25574371040327,-78.72904122009757,-80.59951927351945,-76.83987417352836,-55.84327533767299,-46.96137883603394,-50.21451386357293,-38.98295824121074,-24.865444322390022,-21.630203539541313,-11.232173180596135,-1.237612926240907,-12.984429607637644,-22.317772223884276,-11.879120187720616,-9.653292351976349,-17.74729751371164,-11.899658103974414,-5.761646425698464,-11.667913199520479,-4.898913729646687,12.502099852107639,14.992139282553946,15.677749273346553,26.24864851718177,23.04675108134753,11.960435612812788,21.61806598503557,36.32284298279795,38.107144948298426,46.835506452719585,58.29561804333443,48.886313496808214,37.94227614279816,43.694601244188355,42.88768946396961,34.19672618045999,39.421583794224425,43.16094198908864,31.54806929593842,28.84240566348491,35.574689700636604,29.972781682339303,28.39608101240261,44.2923674595294,50.32734615531891,43.99034390822893,48.894987000226,51.21425521650812,38.72895573485984,37.46876686681419,45.869908809622416,38.91885345695605,33.81466001051255,45.60204582369852,46.94025649714452,36.24926763764762,38.29894636749127,38.68221709215065,23.935501945727346,21.48435159215498,36.73902169269316,53.59251981396661,88.23019512578598,141.8067001383562,171.16506534087787,164.41223880437073,149.11997945377834,130.25590002296912,111.80949214708784,119.03666216478652,139.49860908447857,138.3949512298769,131.7212689632835,143.74498832612912,157.37697559234212,173.10628253019192,210.10302876226606,244.14899127136266,252.66615201412185,258.96699337540315,264.2230856374753,244.96763245975256,220.84799473218973,212.33643453450975,196.02436218329532,171.45957703443307,163.45469002406043,155.6239457581174,129.928843553673,109.68268079576796,96.24871360810386,63.66214010487526,21.092045914126814,-16.218631561237785,-61.28460679152278,-102.08440719137394,-110.50843525808314,-109.47064343694733,-133.25318750948344,-169.87083934905283,-205.24197541630116,-237.8116189329829,-244.27388521634313,-223.73414190489865,-222.0934775807524,-251.35752572853414,-279.12466613331617,-299.1720825401758,-312.54963028770624,-300.6499819809428,-278.41145555853825,-276.8969670673015,-279.63332077846724,-268.5059143264881,-264.3409904291989,-267.0619778745579,-255.7193398336284,-245.41970344262924,-246.71512113699768,-232.93117393772636,-207.55677962920558,-198.36305771887913,-190.4909865697688,-169.71481055347135,-160.69315429649276,-161.98738548919738,-150.27443932275023,-141.9483329647465,-148.66147495211237,-143.2676618146629,-128.80452172686805,-131.7311206005273,-133.30888587800726,-114.91277078142846,-101.95129303915968,-97.75674310682483,-80.41051584075922,-64.88991611341527,-63.18463266295173,-48.00758507235777,-22.571089215339995,-19.26231124171094,-25.471855298940866,-19.26864894345298,-17.133386734751156,-16.816694619604046,4.433435135663498,27.852978273357145,32.135781211693896,36.871088130112454,43.58041195656845,33.62768519540706,26.90194621785506,39.997124038182804,45.36096605768529,37.61743478101305,41.444841785844446,48.168206856701815,46.50905285635841,57.70033245005433,74.74213093504153,68.12566224623114,55.03647618645836,59.602576472139376,63.81888051794509,64.92507829719035,81.57233747678785,94.74336380276306,87.02677661671589,85.22129567539483,94.210901104225,89.19868943116094,81.21905044162283,84.86214722784915,79.53276396044618,70.01990797786598,82.49085888010353,96.50217683857436,88.25583400358141,80.83205988255119,81.67398772139697,73.33288060082802,72.21932562777329,89.32820481817791,92.72655339706488,78.7112996272225,76.69670470544267,78.24492209414134,68.94308058537128,71.28175372667414,84.62681799896288,82.02309474458974,75.09529365826091,80.33813818463928,76.88568800533524,64.73371329953858,67.9926046931562,72.29117951310296,59.35685990360257,51.13371675020876,52.425008460435784,43.15548229092876,37.698999827706416,50.634653420490324,54.84038666060645,44.98252188715058,46.36116342649379,48.92650922992316,38.06056276764121,37.356542313958705,48.6081746907231,46.39367450893688,42.376928728010384,51.876367124736575,51.02943815046002,37.34403479542456,36.04146935358842,36.45764316402332,24.834877990910222,24.77845891355123,35.5277062186817,29.858414041898463,20.317830881570245,22.836780070111512,15.615790264044275,1.7207537668500725,7.6875529270056315,16.578564721747508,9.007767067829679,8.559744242702454,17.802843104140127,12.771302466403704,7.567795090513525,17.588889089457215,16.196730492313677,0.31549774163783173,-1.5498061530198939,1.66977688832621,-6.3974236539232034,-4.243972759586159,8.572725178295277,5.246115850265996,-2.089821996874563,4.176950080698933,0.5334483294447958,-16.91778705357665,-22.72649731262076,-25.30764270252651,-35.87617893786695,-28.81411770323104,-5.682788336545514,0.6306029099420889,-2.238119643683371,2.7601042607704795,-4.889970517616701,-23.61000820356137,-24.033052354742903,-17.38257875438641,-21.93781473771699,-15.783644838741967,0.5655391083536436,-2.5012400875419436,-12.984810819460218,-10.985630186545826,-18.037089520550783,-34.831716570002165,-32.476778964421676,-21.876270679525824,-22.668550441062585,-16.877654801933943,-7.175342164517332,-18.959573862023497,-33.290784497849884,-26.597583714799867,-21.345196954418814,-24.104982139225378,-15.232907969509103,-10.054349518815734,-23.01611155707516,-27.25701095985954,-18.984540717332514,-22.817272367647913,-27.187748394872415,-18.285780363166566,-21.051286887254648,-35.63808578879254,-32.72569998527494,-23.389832897630576,-26.73126384656957,-22.723123909217477,-11.50426121492789,-18.082806026771326,-26.166772226699166,-16.384526410987654,-13.743062091503903,-21.699150757194033,-13.080966097144962,-0.647039371703495,-5.2008924046757565,-6.6219238601891846,-3.0948384274601333,-18.486222987428764,-36.485642749581004,-35.94201903532206,-39.41146575307379,-50.974719841646966,-45.48192014613214,-34.8700835471444,-37.45733067613168,-32.8087392286846,-20.269615710546837,-24.395259331955483,-30.440117932752376,-19.707047153818323,-15.861437823474654,-23.423316849256953,-18.37829378802967,-12.33468050611216,-20.31772390910473,-18.582135172338102,-6.205986528455748,-9.851598620159447,-16.648246740163376,-7.691550352943972,-5.505876615876164,-14.240224617119427,-9.564958415367858,-3.8241551022874085,-14.275546451968813,-16.737514791831043,-7.837293080410639,-14.836161330535422,-26.60104449630503,-23.028146415666637,-23.58133217767546,-30.331937778148287,-19.328155552260043,-6.749276477306654,-15.944672206422496,-23.627767971517848,-18.52510952470297,-20.0453285447782,-17.680987235066386,0.04410605287705405,3.7303515432841374,-10.23297128736429,-8.498755853545244,3.995846512735193,6.932908092345521,14.974417625472032,25.37786387601376,12.963957054671418,-3.8557251194216247,-0.6277859027641499,0.1801356755233694,-9.422168997796787,-7.74772616793665,-5.987643042593229,-17.55293690504843,-16.049150123188248,0.27386136829136287,1.2295161541207187,-4.8257316547055265,-0.4618363767764806,-5.001258320309366,-17.054782448213338,-9.81962626277059,3.277506147886473,2.1883284682412216,7.098385450720807,20.333399559957883,17.719456724300628,12.517210676592885,23.481171462787263,26.187118485421596,13.391326222733383,10.962048662901173,12.937375400724706,6.041526883590202,12.345142732098287,29.988169061797688,26.445469719706296,11.10811568608845,8.868922006514895,6.04460106381298,0.7722369607122204,13.552727558771867,25.844334261720455,15.091610411865704,5.813246821743343,8.696161187632148,4.203802684064634,3.8639181194283796,20.363286943951312,24.712620709036962,11.011029467659965,8.755898351245378,11.93510429596135,4.140082575613775,6.152397446248491,18.281893602775163,12.489806949706727,1.3054015001130854,5.927249187307984,4.587810120392468,-7.535499884614367,-3.4430308422796165,8.324798653706623,8.86117040630396,16.894058880650892,32.11569339253972,25.99312437985038,11.136804791019431,12.171451454681819,12.009799556637152,6.124301660516127,16.42527929459005,28.240848276731334,20.87612987558133,17.74934077923268,25.45730539997109,18.22521982293997,5.836985391843024,6.975628096388492,0.7813091306244258,-13.615244324308833,-6.662667771681401,10.304215071301503,12.813876720983977,16.765595981206353,24.288606133758286,12.27858389590667,-3.4425601037188196,0.25945403107923504,3.807136882467776,2.172967864387867,16.494710909633568,30.157501809415283,20.652433460754263,10.749146401462054,11.047839879048555,4.146874566758943,2.5879318410175935,17.600889947478656,19.244061161690357,2.2753202599323723,-2.5862630087734626,0.37521629920923316,-5.8026183308971016,-3.711671217949003,5.56996729476322,-4.669634006463924,-19.518919797914858,-14.044396701361993,-7.532117110640348,-7.393742589219661,5.957926818639617,16.837466667477226,5.389149831364468,-2.682989180750588,3.2883091810937786,0.3518651842253391,-4.065913986529814,5.717322279534379,8.328100136926187,0.5227009450151803,8.7077529333184,21.40974658928276,15.280956786610528,8.652235025254303,8.850255032487253,-4.373660336685717,-18.544848943801977,-14.890163408994896,-15.389468454976663,-25.88897566836528,-20.57593050949992,-8.643912516068383,-11.149698288067645,-9.145049388872105,2.4521616265828214,-0.9848595857282207,-9.002015880969328,-2.0189849551449806,-0.9679574580519925,-9.804669472091044,-1.979514311067616,10.799856303610538,5.367900437170095,1.122388700370371,5.756212238964729,-0.39284767165148127,-3.5256683844628167,12.21022654683096,18.076306040044766,5.7630202568794875,3.5007498198648412,6.183125453429505,-2.4156647547974237,-2.878656759193796,4.856960734996732,-6.198196681211482,-21.445331474917065,-16.715330427682872,-13.307747656525809,-19.106512786985192,-11.37987192895838,-2.0693806636876273,-9.32559114002271,-8.419420686020612,6.668318901883982,8.39947332461394,4.442474399647457,12.140958740087681,9.7069890898474,-6.006395336199684,-5.845644750959208,3.4677617322152776,2.4936855808075404,9.580574735351922,26.233034502884788,23.117492009375326,10.113519880399235,11.26808952277323,8.460716128331448,-3.5766043496102684,-0.4482893632579752,4.393944256754047,-11.18537116772788,-21.72359135186312,-15.765163962819924,-18.168048088698164,-21.78481862210539,-10.181271092840493,-6.808249763233631,-16.489359596886683,-11.849818495404586,-2.688654382321061,-10.270291350795858,-13.873269718650732,-5.668961911855588,-8.616934223938433,-13.310929316256955,-2.669156681893634,0.148714895560477,-10.478671906967488,-7.64396075223061,-0.11456066850121394,-7.376693233816146,-6.567476348943087,9.406828688003895,12.542104551845888,8.849213091296715,16.286955975015182,13.1142275762592,-4.1697417778987855,-5.261143493219409,1.3106785416937434,-7.3679865837723355,-10.500702145822007,0.23519356514374667,-0.5269277565679773,-5.0365377907549345,3.8989189194723295,2.0941833453123153,-15.79056052371686,-18.839868499724965,-11.851335740348317,-14.777468690007687,-9.89849133890149,4.362036082307298,-0.2525690900694677,-11.832856506993322,-5.534153234315137,-0.9362763342132682,-5.930490431853816,1.80669987287498,9.616961103278978,-1.7344553943400411,-6.314901914336856,5.22337532294406,6.333230671568417,2.9021608871882085,11.037000828318497,8.653372481508551,-6.8486920120913455,-6.332023340165117,0.03791115530421152,-10.325344059677525,-16.573332112614626,-10.306129512169575,-14.065871064308793,-17.226695260902606,-3.7071371917150433,-1.3318506418097842,-17.197279099365968,-19.326044191933754,-11.775196619373695,-15.233925454564883,-12.070647274709883,1.1463304042037548,-1.7307986833318076,-9.34340676991955,0.27596970562117296,4.693302827619803,-5.099804982233853,-3.174281317248384,4.261731268072838,-1.2891981396325534,0.1878136471068157,13.50816430064374,12.39113802158679,5.45595472479793,12.093719471583032,11.35577062791409,-2.0200776107998575,-0.7943039902997553,7.448797979463896,3.1841539763236297,6.098468864699142,19.55043272631856,15.277662206203178,2.4035006495489006,4.1109396625425205,3.502872492966943,-4.228267436737223,4.008961170320445,14.950542605280686,6.606609574594543,2.573488087788013,13.915331630232085,15.444014394426706,10.815872672590388,15.07903882513328,7.88590918111982,-10.981569829084002,-8.511274696357162,7.725804988135808,10.383205556772394,12.10840900491834,18.24953676385366,6.904144267120743,-8.793271887070725,-4.439333460910646,0.08252730870418712,-5.140747822660446,3.2639668077127144,16.091845906913402,10.528549744200738,5.367959717224776,10.091172009652082,2.975820747964705,-6.016131185145752,2.9224783750252046,6.769230676168574,-4.048604290087111,-3.922197194887665,0.19639022784889715,-10.430968764244433,-12.935466587205786,-0.4641464952200245,-1.8070558405531063,-9.437647739637685,-0.7267161273434466,4.5337668558746795,-1.7129743201036303,4.963931282716169,14.075588656310515,3.817352828928065,-1.860890876451967,8.921286346223614,9.44978683253807,2.7455686770577734,7.423865889907508,5.486640233657754,-7.937005528957105,-6.90260022919645,0.025161227403891484,-7.937294091568656,-9.669570689181116,3.241040830856991,4.02487955266923,-3.294860395521755,-0.8034922298414471,-6.097315702290571,-20.207113111450756,-13.99231571100984,2.0682377402534806,1.7206226101228577,2.2752721118303634,12.749507460598668,9.76725400947016,1.9429050068472185,10.791039840671031,16.360295713183305,10.119699071371665,16.864491523051665,27.32030133820008,17.336706595283953,6.690755294472016,9.093103220892369,4.576610639810093,-0.4185086295288669,10.075855805637175,12.30940863236809,-1.74592962177982,-3.124577625213316,3.7693360670954426,-2.7062099648968085,-4.7330615996680265,5.217014092121028,2.4908192662148645,-5.01555497132952,2.598811544389858,3.3825258026082503,-10.60872097317366,-10.628160363594148,-1.5954541976150889,-5.404767556228955,-4.2960075126571144,7.633767880583749,3.426567903755385,-8.45138092278688,-4.4846242082341,-3.8850053958610458,-15.172120260434932,-12.260239015496937,-2.161567143154894,-7.104930583478973,-8.758807098291479,-0.1897043540454293,-7.209903465915535,-20.281073555198518,-14.364596990576832,-8.510062401649733,-13.957715097403211,-7.387661275785919,4.007198417131219,-0.21156532012818285,0.426626176548939,13.349104924057304,11.076579455657761,1.0776068737623374,6.987501722867277,9.814399382176779,-0.3344731506846301,-0.027653529942231803,2.3830114586525615,-12.913149971970457,-22.16099129354621,-13.700327779644748,-12.971652503327581,-16.179287890625165,-6.583066782077388,-5.668595437378719,-19.677021472231708,-18.997754025297922,-7.431934515089092,-8.051772848281212,-7.607316196950038,-0.9709725578332775,-9.603471186694096,-20.109801717766107,-7.8649571619375624,6.473295099375284,8.011508007502709,14.804085824005503,19.560484834521713,5.710264974641334,-3.0096732574339873,4.82357154539522,3.2760258615220703,-4.511932975707576,0.32938642469243096,-2.295378807000122,-19.664640136016747,-21.68088138446333,-11.257117691347839,-10.78467182766639,-4.609438337662343,11.613192874135418,9.43467860492416,-2.844027496602258,1.3695379736741335,5.337558662710576,-1.9514267675422627,1.5807751847272686,8.566910544595723,-0.2420094316623107,-2.1340746571682376,12.972562550110405,16.691203113553804,10.656419643754596,14.319710399599384,10.325247826779183,-6.863740422804831,-8.387053510366105,1.127330511346993,-1.3079102333539954,0.9959258824988819,14.506480855295143,11.187635877379961,-2.022019680046143,1.043742053687267,4.482706251341994,-1.991039618519621,4.042126666104362,13.923871889003633,4.522726173857103,-3.7511445456237644,1.910747349276058,-1.9587286945255022,-9.570640220891594,0.19793126321604948,6.645186324856524,-2.4174146760252784,-2.7231400177805627,1.2263101975991362,-9.531109998997469,-13.423155652772031,-0.7951293246156226,0.7890365689205965,-4.849382998104183,3.869357574751242,8.636903737149163,0.0027597158343182215,3.4044066222652063,12.409626993949535,3.8643489187397453,-2.635167268523586,4.555955400861082,0.5485270217601754,-9.428881072265424,-3.463730356152662,-0.11161262884347012,-8.561398211682459,-3.367397545014814,7.616892650247235,0.1389885810243232,-5.568346411142971,3.1064529872001034,1.478002320755599,-6.2645093814346655,-0.9289184758857489,-2.467357291994849,-17.11498820381592,-14.55412980049806,-0.3951419125062836,-1.4525173579517743,-2.0138298961020604,9.227044687523943,9.198228929398688,3.108807765099307,10.241665132816753,10.010673796326024,-5.283159802958006,-4.918782955906488,8.25296159750804,7.446691478051907,4.602175002053839,8.380339527451792,-2.637843647980298,-16.501840492450526,-7.341271620627065,1.4716001124551796,-6.980888316436991,-7.098209251406998,-0.3888229140966639,-7.150326508701369,-8.111061846465008,5.040429001350544,3.004107822682281,-9.212234702203686,-5.657426215423924,-2.22316670418933,-8.842885072610759,-0.8944699805349003,15.39539888599554,16.113814909520208,17.83190037604315,30.602055905255828,31.581715202651473,29.40195479249727,47.10932824520988,65.07070455990042,75.56118792020531,107.21265744467637,151.59573691166207,179.07991914159456,200.32867399040146,218.91763206795468,210.72098661240824,190.78227464308355,189.82853092042313,190.24053303371446,179.2325116281117,180.5625020872834,187.7968516732741,176.44714401280802,162.43036689891431,154.27905036616943,123.7945362600109,75.35348233200241,39.172216044692135,4.757307396009473,-39.21839176164766,-70.28381054850458,-93.63306353542981,-130.85709945590332,-159.6534914271557,-165.54427565697603,-177.86515517554122,-199.79075722919907,-210.02233254845007,-220.0816349006606,-235.94736318999708,-235.7644216542875,-229.64593464970778,-241.59111373775863,-250.47702211402705,-240.7981247091971,-238.04992610871923,-242.25100447703068,-231.73567149587373,-221.80516080846994,-222.14646196940828,-208.8829400700381,-190.68638186400165,-195.16305373958204,-202.68898536388906,-193.86275444336422,-189.83207777558314,-189.67708021439267,-171.69437505304404,-151.3067380907239,-141.51902613396877,-120.64450084961291,-95.21388131144623,-92.46805793543564,-95.35433466382055,-84.63606347296553,-77.91418719137243,-71.12781125995923,-46.656109737809835,-29.253735528967304,-33.47609529760442,-28.839633475917005,-12.337131488147193,-6.4842449403553335,2.7091286817222624,22.602830072641595,24.150962609703463,12.473989966042682,17.110694688695098,24.186340469829943,21.27571033739832,32.92272292695896,54.418486262752474,59.7745740954948,63.79993587129083,75.78803364089886,69.15044776910213,52.616641494301696,58.97968124555139,74.50217142871541,82.80350803940752,100.8382789651227,116.37853622474829,104.86261936668137,93.04808200799924,101.22489776650944,103.22469063672085,97.96231667627845,106.30009343378431,110.53450515846777,99.84183714619382,101.0678838805355,110.29667474555828,102.35064752930553,95.16939129860513,103.63641552556842,103.57778720369613,96.24721353007622,102.83473856587521,106.45629356402469,96.34733835722551,98.00128097445982,106.97528936639505,97.99176239356805,89.89160164518023,100.79085492006708,107.94909137832336,108.85213442511449,117.6588178539275,112.85948106290638,88.00765851723291,79.55072369482343,89.73134474508036,89.46669037233086,86.51508494234747,89.8114661229782,77.08344025642378,56.18613791088285,55.104066507525886,57.69305060580899,48.90362247282064,52.547029097120316,64.80154180050846,58.93854344675255,50.47429875713327,55.085809668648196,51.638053335621116,43.44824428080298,51.17005058403141,55.240805588624674,42.30331980293808,37.939251695902975,42.10683088606079,33.966818436772826,28.90546438142201,36.0743445196483,29.19969957480614,13.062165672390973,16.015020023619446,23.929239917609078,20.043795955781896,23.1462014545379,28.980337149549207,16.441540797452337,6.352691863820624,15.377378725006146,8.250481866561177,-45.12722107135416,-128.20454980539068,-203.79000322654227,-241.20352986092638,-223.11886351760552,-158.92961953288037,-102.14789166500654,-102.51967067094292,-133.53473732764368,-141.7634880584281,-131.45921732323578,-120.55574921648858,-98.4818060640228,-78.0597780425812,-80.72656365604115,-81.34682704169221,-64.70975106809942,-60.30292823718583,-66.44241655609636,-53.4620262991006,-35.11604376662528,-29.3031525829138,-16.39171799036414,-0.022368844667333576,-3.5470152244989457,-8.73698570490643,1.042678036334344,4.431479909249124,3.345663642215992,15.979692015446284,21.44558419750023,15.529777164703031,45.7581685707641,117.82853771126891,183.8893321439747,227.80196939009107,242.3822889502908,206.1926751418738,154.52691899545957,143.67822708863028,156.37787560959393,157.04259009417632,156.44747272390006,155.0684817223254,137.33850858975558,124.18342466122415,128.24914900865997,121.3833466853913,104.61110164269306,104.29648416701039,104.49905069812979,88.06580953337841,78.43334105332208,77.27163281524038,63.641176599691704,52.90878839911379,54.3951681761948,39.00803374406007,10.903583516207213,2.503053883010695,3.0000070476743605,-2.3185942441648755,5.923821651256469,17.523515949821938,3.1270803204242075,-16.5615830013003,-18.160577431370104,-21.2032351882189,-26.072534348339747,-15.16394110777302,-10.257394245011486,-25.566292670568657,-32.41881571360738,-28.989073639794228,-38.96082399900388,-46.94921689517836,-38.838153207597664,-40.06435568835137,-51.322879349512434,-49.165488141871634,-48.6841344352382,-63.14698323314211,-66.38835123852527,-58.437519184180076,-65.4614799061728,-74.67113724464531,-71.66503130339127,-77.90193577424427,-88.82219985616084,-79.26663707256085,-66.84941301424202,-69.01825847335131,-65.39616402678367,-59.24735902967428,-71.89044114542708,-83.6540226158104,-78.3075489092862,-78.57445854032949,-83.32728118327663,-73.21542924670331,-69.90539746536153,-87.32469848935379,-93.32913059694972,-81.49136237099007,-76.26671327821327,-70.86012464027124,-60.56004319759088,-70.01741195312745,-88.64697547543305,-83.23527240044645,-69.72587851596909,-70.90495862899644,-69.21841838746535,-63.38228162791012,-70.53065350414283,-73.17065386674302,-60.73798684694888,-60.48378452859972,-70.69837269006216,-64.40600162344805,-55.689179110780074,-61.44547726122843,-60.40339293953433,-52.61969587699197,-58.45078676920969,-59.939714826050476,-44.95151757600576,-42.94448556895826,-54.58767493598367,-52.084248031740245,-47.49563214515254,-55.45153368021951,-53.064261639046734,-41.52334482040819,-44.48008460001431,-45.30684362365742,-30.155785416665793,-28.632452366489055,-43.47341095499602,-45.93193657921437,-45.63478679878937,-56.115004311122256,-53.673663387326755,-40.389054384538085,-42.01389963234839,-41.1067184707847,-21.908943767743743,-14.569945918123107,-23.556415326595925,-21.614852712013153,-18.122988793088105,-24.308665875687065,-15.617371316366308,3.067283696836814,0.8476777110807561,-7.9789983312228685,-3.12279104294144,-3.9759569313641223,-8.907205085848254,3.9317554423029772,14.444376283930039,4.765551737389533,0.8393692581131915,6.553143839992955,-1.0622795702516754,-9.74562236309521,-6.392818533964116,-12.991465038235138,-24.5167950632999,-13.155193476641164,2.9192437421341735,0.42394440283107393,-1.1650535591197162,0.7232169166229621,-11.903317752931363,-18.210973269230752,-1.1733663998649648,11.026794648948588,12.837319912169011,26.42105251070651,35.667439930461725,24.211508749622883,19.27695459723465,26.422673718909056,22.467339284311592,20.056711330087804,31.49087619267541,27.944247724274895,7.700985441124149,1.8759997594947655,3.6723461240459754,-1.3824679857723736,6.9226033821926265,25.249967405237456,25.455566246513428,20.358311205579362,29.2994402776739,32.73911930368566,29.305167733206314,41.44293151684866,53.326116092630585,45.45511719141519,39.86548849841593,42.10385636141381,32.70044245050293,25.42247875256497,34.41393561864158,35.91940580281636,27.71538217281487,33.77641771803786,42.38532860779175,37.12157128912744,38.137899995364236,47.26686770776013,43.31303200148444,40.33948506251983,52.3634534721174,53.64411943469759,41.804538850990554,42.600776301886626,44.316969104863844,32.1091623800134,29.194060606712174,35.299460106094294,25.767122303783488,16.982859255447597,26.91267434139522,29.77542942368737,20.29249432313695,22.102376119139297,24.31491961643366,14.810431631819869,19.376141105362517,37.557891899383264,39.560082113671584,35.80126824742669,44.10702734422291,43.54807280471734,32.91248416025205,36.109213790826416,39.814383694659405,29.932051060082696,31.63738563839622,43.85475003299173,36.91426467100155,22.59034771123352,20.057448608951994,10.89993411316505,-2.473820700287644,4.27665793204797,13.390246702453492,5.483516270762155,5.325889878610254,17.117447345882375,16.021125534066627,12.863997166080374,21.076986086360826,16.785501955648026,2.6113686514448773,9.331403982557863,24.920763678122782,28.24007340750904,36.370377143515405,47.54476220277443,38.20249208782447,25.298136065246236,26.719548050495256,18.521174816373854,-0.10930801351622677,-2.4458764094704626,-0.6481738648189312,-10.286242393688738,-8.22998419812289,5.138768275127479,3.4966162730089447,-0.1729061848083402,9.240855129833683,6.631274424677482,-8.071196120405647,-5.528276042457622,2.813731770348422,-0.7917622376216578,6.007476450141931,22.552641301517315,20.495796743722263,13.838140009776518,22.454709021589025,23.546911855519504,14.995989595022948,22.372806960986296,31.567141477774573,23.910490143858354,21.964297711013742,27.574272967885406,15.025032112615097,-1.8724286620082546,-2.39753972151471,-7.2909536508924955,-19.414498768236804,-13.797547646576074,-3.8218514327053326,-8.799428077839586,-6.4433189972349725,5.426071392034357,0.36051969403224016,-8.189136159248907,-0.0293778340076134,1.6137379636558151,-8.153940655264929,-3.7034893340934376,3.6816573881544707,-3.0307960762747457,-0.9216292636774925,9.722857199534042,0.8685965945087419,-11.820305707847904,-5.590766455845665,-2.190264475607404,-7.151078629720576,-0.10729218952845354,3.146849951931562,-12.7880044995606,-19.921517180594723,-13.141549079343832,-19.07073754237087,-27.17049720253205,-19.625403354749604,-17.401057634598054,-22.315085610314192,-10.963374957057797,0.3503772389418822,-8.558711090191307,-13.665839523898754,-8.390308880324772,-14.350333810367008,-18.493047627105458,-5.446637287444466,0.26410332187680857,-4.9077729586741405,2.4025823784191394,8.110663397997538,-4.484188742219852,-9.88049904380281,-3.095141744557651,-9.244291974743561,-17.770905863460285,-12.239971561861411,-14.189626626041298,-24.14863498147619,-15.72369583807859,-2.9923928001384374,-7.683779226353488,-8.999182006572548,-2.64317617492736,-12.742699196803379,-26.37890253214872,-23.141904348183004,-22.168399828216472,-25.257018728343603,-9.598860886187335,7.385470267575049,2.7682673138644205,-1.3735855322010007,2.8096089900445347,-4.816344754525003,-11.386232665125652,-1.67295458181135,-0.7236220025716322,-11.842555197822893,-7.471046444844271,1.5863148394542628,-5.52016672760889,-9.286068875161869,-5.003229570817025,-13.725531726690425,-20.903450313223907,-10.50795462277608,-9.784178077377701,-23.698193444374308,-22.993997205478543,-13.910308871104476,-13.446825968036517,-5.122656044428882,6.66713822607802,-4.805267741524334,-21.28325555072887,-17.264506488767058,-13.446500320823525,-16.533357348300886,-5.296657235138183,6.283983577650865,0.1610204451611601,-0.6258094650849342,7.332896324930344,-1.4523353183149332,-14.108792115894373,-9.827811520281882,-9.41861185366475,-17.40330318384596,-10.225743644892896,-0.9657389097288851,-8.456729585362329,-9.209327766701218,1.7985237343139202,-1.1974343529259404,-7.800158705035304,-0.6919265998785766,-3.0423720098388802,-17.41615060720581,-14.483880243188363,-3.5373422864397477,-5.452127783157882,-1.746158849932164,8.74861277177453,-0.7020855289114403,-16.288040302926962,-13.650186779754616,-11.797707733330833,-17.147140644945342,-8.172956563773166,1.6984952686457295,-5.628692577155931,-4.4767671121904975,12.01183549181108,16.254197907014838,14.261729143178322,21.518308097386555,17.272634168853102,1.026621750981903,0.9108286554090954,6.216844239617201,-3.15297364629396,-5.288483126803108,6.212758867221174,6.3475125029321395,4.0504025103216925,15.992462803573224,18.172731789491607,5.270654515804733,3.983928903747974,4.669440655049394,-10.620401150201257,-17.37700633394905,-8.239942182723569,-8.428440939278179,-9.788808161883152,2.366298567952433,2.799725426051241,-12.222345513762992,-5.894793472815784,36.61988343151721,105.88085691153549,181.87289369430246,225.03795887839686,214.69405177318146,169.90502716189687,123.84504120233036,107.07483133558398,113.83700906745847,102.92080147891836,72.17319314336225,57.74113009351123,57.88403286445677,53.36084846854213,54.59616374220169,56.38462956917288,37.05298297527187,18.79111485542127,24.42785045640726,25.528964499320036,12.484381472851766,13.628891574504706,21.193114367367937,13.571563162646566,9.629521165082567,15.05162652004481,4.499711735438865,-20.55561990929374,-52.974539817914234,-101.70605880386493,-141.95969873154104,-145.508398721616,-132.47829959202352,-121.4446214706832,-112.79437755145237,-119.28097309176643,-132.6084735874471,-124.4792960362883,-107.7618904311492,-105.15076566356149,-98.08393554083703,-81.71974518658065,-79.10863448846604,-80.17571277198306,-69.73731642584886,-69.76459260700139,-79.93862268421815,-71.1832143942495,-56.4636046029812,-60.27953973963025,-62.55756380492255,-55.91680502230646,-64.51850792937462,-77.36029263914396,-73.33602362680324,-73.39505902741213,-82.7446587224668,-75.14063939142804,-61.220335347591885,-62.02860901855413,-56.638457214157285,-39.88588803121296,-38.907540254534425,-44.60912120602514,-35.43459358152992,-31.074454990349814,-37.27753650424391,-28.117826090031354,-13.739527086080553,-16.319678118344036,-15.773995554471185,-5.587367026203953,-10.84861348192068,-20.500724208406655,-11.985952823952228,-5.6389247577440536,-9.957364768449382,-2.976881636264559,4.939192570617257,-4.51383352493984,-8.874056337670034,-1.329369670831813,-7.362291094107528,-17.455908516418543,-10.045751015457228,-6.309295490307241,-16.271248360040136,-16.07714868530952,-10.554800291026654,-13.88547026894734,-3.691822802015709,21.37949506744213,27.403852521297576,19.26471762253761,21.185548481586306,18.97890478404942,8.889640118783788,15.908597938714218,29.346976254525842,27.173979402683287,29.723657295686017,42.823729599022116,39.21094795865198,28.49513625361115,33.540135444888726,33.98513070890265,22.00789643075882,23.420317577945557,30.4117929287388,22.252458328484273,19.25486492224078,28.795492407033535,24.866147556376106,15.751595318349262,22.731172488961946,24.706345486490235,13.972356276227753,16.895319695249842,25.489307935973283,19.17934804252983,18.221394235231156,29.236931638377875,27.220927750786956,21.59544707211146,32.80474464874326,38.77403791226088,30.434381789032557,32.41299910239181,36.8982982825136,25.158822342728246,19.933247690565963,29.52714789252483,27.343633363516837,19.70487020500385,26.1776020147586,26.21576426353046,13.404804026393306,15.263536701158833,24.76727795000647,19.692130258249428,18.60631472943759,29.76843983832878,28.587027641471835,22.882005034896473,33.13338175466557,36.473365962254576,22.689067831218644,20.45846207257112,27.540018728579202,24.723911140975424,29.539124086135306,45.68880981852615,45.34728200647308,35.66978188942209,37.07649037492773,31.22220021042618,14.659817521704614,15.856441265374034,27.573768891471804,26.046746832425505,24.799835241731415,28.546950043686365,16.620001686712875,3.113555077956679,11.268011402645765,18.413824406760657,11.649868573323811,14.634566452545217,21.51762134840199,12.994239584820463,10.861375679150209,23.7443166916066,20.69977155472413,-0.27415282527588847,-19.48074013694205,-46.416407027862306,-77.03857135439529,-77.84316616696937,-56.6143122835267,-47.31701903846964,-42.4895619141354,-32.27064753659157,-34.83274696995335,-41.344585020961,-32.43618804219342,-27.96890616232483,-33.809256713720295,-21.450025772999005,2.613624647738445,15.472976501773744,36.30353887131497,75.56012479442644,109.1651846806615,140.5356946077298,182.8821777859674,209.1503775112837,209.57041269819075,215.0130695675366,223.52724758369806,214.54476676720117,207.42954223845027,210.3803401181487,197.09443963137494,174.15163464980876,164.30697504232506,151.4977786600991,129.05436988749437,120.0785622330111,113.44233402630233,85.31406950210426,57.66347769014746,44.55771520420588,21.58220846919864,-11.21421845005414,-38.48636081424481,-74.85232090237736,-117.53940476491164,-134.1452601853877,-134.46813826163344,-151.82874761868675,-175.18336575477358,-190.84807506434652,-214.7633565397943,-236.56171268460946,-235.86952458069075,-234.39369392989207,-242.14698482137618,-234.2082250608152,-220.75698959219847,-229.34175654013228,-241.7300264513889,-241.3027214048792,-244.29815729425417,-242.39287520575832,-218.82389086293387,-200.29537895615408,-201.40980450192023,-195.69796324917485,-183.7983061421882,-182.42787202508947,-171.43351467904557,-145.33454133435492,-135.47062095467814,-139.25706416465542,-132.17441517109143,-125.85892824411204,-124.57735749101693,-104.02835726307185,-76.10841305915551,-68.78206398298052,-63.87196609740826,-47.402542485896745,-41.076545265578886,-38.3607817843153,-17.73015744982169,-0.335635575723884,0.5628156969680118,8.756892578932598,19.34160866001276,13.943531110797206,17.854796342978062,44.5239838813703,64.47705973289794,74.47704590179708,90.10388286925534,93.51273350089917,80.80047549734972,81.31227422711497,90.07317743966992,84.89068026923435,83.28151730501696,94.57394941161418,95.63028271080665,91.73352064187938,101.54863260139159,106.62025423917294,99.10167651549283,103.67817387553822,114.82253419939308,112.41250109988877,115.84673841097874,132.79117690252616,133.44821190871352,121.31783356815984,122.08326870060083,122.03206771371526,113.42843527080748,120.82329612913409,135.3712940356749,131.57319118505384,127.60942012614838,135.3148100902151,131.59349421422547,122.90790155091705,130.55459104509225,134.09323782558926,120.48870827203815,111.71396448752523,104.06113767755366,83.0420862094589,73.43008360984211,85.29831643074706,88.26174225825247,80.72154639008201,81.10389776085003,72.90212881710701,51.939420733171104,49.29933632034796,61.45859302590535,63.47585441236503,69.44357769381324,86.24692343622172,85.78336155366122,70.68706554286382,65.17396458879679,57.26200650154388,41.98828807580453,46.0073553808868,60.4920435013904,55.76324483591187,46.09803505674287,44.87171363409833,31.405054615111702,12.375698126280358,12.275245491387421,15.238186443947061,9.388317031107036,16.425451848310885,27.05686122108368,14.236386440108728,-2.014462903526957,-2.6849625797701133,-7.710772297335807,-12.878809212267184,1.7763843890846989,14.485570173275605,10.283517829359699,11.292250859904897,13.213085429616658,-2.1543069842177323,-12.399792684715006,-5.487776758419776,-8.468992876615564,-19.808761108829188,-17.02872668841125,-15.504330998710431,-25.87160075034076,-25.985149489100994,-21.603314033123294,-31.57917015367448,-33.88506173668718,-18.578391142107527,-15.174604665788683,-23.13865700839949,-20.377773121274267,-21.852806536917804,-37.00030447916943,-41.40926889209683,-39.14647137087513,-51.78034131377158,-58.66401043901586,-45.0860380920972,-37.657834834928714,-38.05975559103389,-27.929666678794405,-26.6259075312481,-44.56974593695839,-51.54350601252325,-44.788148248917295,-46.0964629316927,-43.084204289881065,-28.696196360801288,-29.00691249384264,-39.04290798749144,-33.0935517831706,-27.748806323673215,-37.737235322887216,-40.960399314084725,-39.81954694502263,-52.336831492350896,-57.516779865022066,-45.44739702901869,-46.10560497833814,-59.19362493230386,-60.40590456712812,-62.17031997668344,-72.5462775147118,-67.46114333638008,-54.47027654712211,-58.64177563780188,-60.74433152643154,-47.73476466849624,-46.89384874233628,-55.98879036469761,-49.60906227655302,-42.47025820437223,-46.106324085265236,-37.39504540820758,-23.284239939164078,-29.363378328236085,-36.67512062804704,-29.303532872040872,-31.71548224823731,-42.66021504577871,-38.49940414013129,-34.77568030186609,-44.63412289877296,-45.061537525722414,-40.16203648545739,-53.055732950157875,-63.885970098541385,-56.307253130962444,-55.11632656099881,-60.76555383718967,-52.149261256878646,-46.39742464806679,-55.050811698471634,-51.5547880633255,-38.28844603305973,-38.837283447667254,-35.91596023199291,-17.98559474888875,-12.9112367020968,-20.13227180014316,-16.058047120848656,-15.17302623138493,-27.033103686593407,-25.637382429632936,-15.36534470833601,-22.084381446417957,-29.37368575107312,-22.331630756631235,-25.113008476268597,-36.08991413791391,-30.209255584936933,-22.93335598230727,-29.087687162155927,-25.224235661649523,-14.43531071039208,-21.56804254444859,-29.038209906592503,-20.98670533030751,-20.74970385838997,-26.38971303216847,-15.65067430179212,-6.4968281512582475,-13.21399404247871,-11.388999306387124,-1.577611512391901,-4.7868210307357,-4.269161685660441,10.445735041592966,11.967717105948665,1.6605760618087206,4.406739262654069,6.550692733923799,-3.4463513962422807,-1.9354643316198032,6.352016886749086,-3.7661393565866526,-13.272112696663081,-4.299135948625887,-0.9831777542272193,-4.1514524431075746,6.957158395124299,12.937991658943222,0.08545248833335961,-2.5249948036704257,6.537796397024362,2.351269765097537,-0.9761550431970696,9.161302671896614,7.508372133085166,-3.5719361130902394,2.987785140033037,13.803961308078827,13.8521084322226,23.954554370444033,38.741503824000155,32.25130577030838,22.113116399577734,25.44828161022282,19.668189710646615,7.356396970149357,12.715581231405274,18.884798922111543,10.682854120966443,11.378505408656208,19.28876427701637,11.846722521094813,6.85057427571744,19.02530750074717,21.766794563194008,12.949590930402167,15.94572471077611,16.82085099621481,3.2475785838216886,1.2388680335551392,10.190165478010412,5.153624490856567,1.3372805146079505,13.41346072526473,16.869931313951298,11.707574973406079,20.53198647143086,26.817398670137287,17.487149602045633,19.2964283329608,31.642786396471216,28.275717466458005,22.677055902364188,29.45557277628673,26.096651936124434,14.83363046564921,19.657200424501344,24.03494577718267,13.520495427076614,13.964123381479252,25.335426734791387,21.59588753898823,15.080885591991997,19.798107609613837,13.710838226383318,-0.40370596603234077,3.1964252155966335,10.149640075423747,4.8905402731873515,9.515454003024681,21.216002867580702,14.638676718812523,7.01086533763701,16.827868814220892,21.469780762027074,19.603653315154176,31.85244072255378,40.729858665200545,32.79343174837556,34.725442807907136,45.386037935323515,37.51512379639584,25.328338016244054,25.76578888775874,18.406647024595806,7.324920345283622,17.068912880870773,28.823171507694305,24.23109799185338,26.23098706750735,34.046664717249264,23.172156367254154,9.455699590248871,10.37009013636753,5.8422735278209394,-0.6763614922309102,14.384511853129643,30.695953309647553,26.837018609709126,24.66390402545109,27.646566554742414,16.853358770184112,9.07616132973161,17.048062164813068,13.876325734679355,0.1245121606597337,3.632326669401809,11.733057253043196,7.421338348133759,10.533408180182391,18.78910307014189,9.558451554929752,0.9561643129214032,9.908247871642217,11.3162328570252,2.7472129944464,8.180796146384544,13.91346866699178,4.5090075078789695,2.9528978850754353,9.393044956516166,1.0846749998461087,-5.0744021637111105,6.756130839985517,10.089811392666554,0.5367990820858171,1.4358917701659126,2.2606398506414,-7.854233748422831,-4.210237460268633,11.158690615953097,9.904496628201137,4.06382643794864,10.851280528405004,9.067256653393507,-2.369307796277268,0.15627773608305429,3.748559701084338,-6.415654492223891,-6.632228847575158,4.104805891205761,0.11263578088128279,-5.72961526135253,2.9377469199242032,2.319464100204964,-9.611048736601843,-8.09911373661257,-5.636031793615086,-16.56560553837372,-17.057186320116372,-7.887422409753993,-15.20495145460962,-23.8448517299338,-15.41656716651458,-13.089474747886158,-19.57358081090027,-12.38244107301833,-6.880396855707134,-18.36183992020659,-20.078983602316658,-8.677977224383698,-9.974009110105447,-12.802170614165775,-3.438663504324203,-6.745007488975872,-21.306909996248503,-16.634916604332386,-4.6919452369585155,-5.579399254767645,-0.2234334812362695,9.472503705649022,-2.3058717638159134,-18.510439091995664,-18.447576457184617,-25.03366799932795,-39.36248700195773,-33.529481284777084,-20.513739750947906,-20.45949823542026,-13.877393582423693,-0.8867068725590119,-4.671701236690624,-8.770524801657704,3.793962700172668,7.474578797610679,-1.575418675076925,1.891373013879892,7.581872924581013,1.1137075904401623,5.1499407722712,19.470480242071467,17.457159608670494,10.974664984228202,15.40254674462031,6.984356754870664,-14.380275947002708,-19.26734469315878,-16.417097538348845,-22.375462639845995,-17.391271348684164,-3.019764079005566,-6.038556068255502,-13.049559681941377,-4.8602951131901975,-2.617168060542129,-8.670075875234772,0.666638020746924,11.197733723918736,4.773980220418252,4.3929958100115725,12.866674350442368,5.916029321140355,-1.9110323484119562,8.163295567312312,13.297578149624718,9.826935015237051,19.759335807671278,27.09775160923835,14.226267844529499,6.502887619195223,9.248041837755277,-1.2847582846903531,-13.375896655105876,-9.823568613645577,-10.584845932234515,-15.764592945811259,-1.7519871609520656,13.48985250666707,6.351470766094401,-1.0691678104862772,-0.14584734623389073,-9.837239692604077,-16.196090700273906,-4.361346487082493,-0.5192584841947604,-7.805160668697562,1.2634394159987474,14.406096259891692,10.163041165388309,7.869881273466473,11.146546545843902,-1.2057414816488041,-12.288779128993733,-2.433041236584101,2.172623170628147,-6.532590179564046,-3.8193452527054825,0.35534225259851393,-10.194846322110907,-11.245540543228547,0.36010682956037954,-2.8398142499086734,-9.694287662743928,-1.2977539301531342,-0.7101182821126417,-12.885243848268367,-11.809062928374559,-5.65252357892272,-9.111117333046671,-0.5793822949101513,17.79741622135935,14.610975992533078,0.17340703968122018,-3.41038148312917,-11.868835072511546,-23.47982572100378,-13.731911281175368,0.49894738585128984,-2.829741285956808,-3.389139529942611,2.1684978851540664,-8.22659530833397,-19.141493424482917,-11.036467362226466,-6.948217544245036,-13.052942488504845,-6.123347671274006,2.9267975881511177,-3.7715558196300183,-4.735883647296108,4.604770099299928,-0.07063018455950365,-7.801265570585546,-0.7014600714958545,-1.7446306175076074,-15.690809527569018,-15.582186062603789,-9.324743088838044,-14.008582081244928,-9.670959783825833,3.9269442400657173,-0.18067971292393548,-9.309583311057578,-2.7606330955879823,-0.5717315365648241,-6.338502323379522,2.8599629970658125,12.681843728501384,2.5037449082850824,-4.865667475485588,-0.637441884858089,-5.910541751692679,-10.264900215629986,0.38630736977966507,-0.4602783945933169,-17.36267966279182,-19.8413611854862,-13.075549315342121,-14.719636844113298,-6.472425350079141,12.05249196503966,14.445020800815,11.929104543848986,22.159123446336604,21.967843672602488,7.746632215267251,7.494378657853147,13.321701602412586,7.048938936782636,8.099682542656605,18.53079583755142,11.810258894237709,-0.9962359976226174,1.57701789096199,0.013451565132705179,-10.301560578919196,-4.2259174385404155,6.415595316498679,0.08804732989201636,-1.0438612071854856,10.376394558722346,8.740773275263262,2.881151432071069,10.823022165138374,10.554209928979983,-0.6331142910273391,4.768995231615542,14.025399607642358,4.910800091119143,-0.17715652882144128,6.639754145503799,1.3804254187746827,-6.631169314358601,0.09420295046951743,-0.22688499234062842,-11.23458932154169,-6.2643148119121745,3.9577392227420187,-1.3793905330455214,-1.5539264350605317,9.518223776658072,7.395015904315097,1.4565466225559662,10.347741227248049,13.000539848979356,4.23863614458172,9.560758756346495,18.20064379444656,9.11952393020312,4.2785269808000175,11.737873862401948,7.065225040674158,-0.09970875546917934,10.164176210449742,14.82903576496301,4.318187481475365,3.286270450011399,5.005175928340072,-7.1357000160869095,-10.670213796727055,-0.8286559126469006,-4.956079319029735,-14.341358100735496,-9.50632509827761,-10.475091219680401,-20.037040473169462,-11.363841181499126,4.119442793022139,4.70025312332765,8.908359953208203,18.356620737114145,7.464984170421816,-8.228971936697862,-3.454992312543573,1.333217104216378,-3.295972311318957,3.3131672365094116,9.272536435866336,-3.7109359111689653,-10.539135685385922,-1.9938105137279205,-4.044407541460585,-10.612798119959246,-4.106864103286175,-4.74544399625253,-16.35780870373172,-12.362647109148947,-2.6629629762092737,-8.956439464408556,-12.69505158427122,-7.82653710309723,-15.762507196155354,-22.672658728467066,-7.566469862043514,4.980416343549162,2.657166555790845,7.569967287843542,12.208385048535376,1.042913132012207,-1.0479063402744282,12.626606183900527,13.379230680383246,7.8650650730540335,16.353378677159135,17.73694193175804,4.558283761137439,3.190484414177897,6.71339427612984,-3.2886595569731076,-4.552535416156013,8.775228995124671,7.83398018097899,-0.5489355188010321,4.672677523926524,4.17232375654739,-6.965910546619062,-1.78292069950554,9.604675305508259,3.9511325075721007,0.3488471853960728,6.228806321574179,-1.077466634336425,-9.348839013047845,3.1446998536773636,12.471399009243436,5.5294806067637685,4.729225566682095,3.9476872124856714,-12.088512989601938,-18.035058214816328,-5.264975959508451,-2.244379234798887,-5.168713959356922,4.936503042169237,9.164699674975113,0.1175088426410813,1.1924762042845218,5.281103695424685,-4.8183983442948275,-7.307571219846874,4.732459496479704,3.6277938411140527,-5.4078343582820665,-0.9415048403949409,0.4933462992905227,-7.925295034879948,-4.474489838607978,-0.2666715951556593,-14.121727992946962,-20.03982851576042,-7.073678907309273,-2.8392485568450265,-3.6687484091665854,7.743565891363943,9.616680123770477,-3.9095960718504754,-4.746554562669534,-0.3468072762748293,-10.633814914192671,-13.348216508010886,-1.0287608524831242,-1.4145464882285173,-8.741686041510402,-2.766795024903305,-2.4523070974970254,-13.966631129433495,-9.911192399515976,2.969916109227267,0.8719422916789346,0.6935197277862011,11.284422559041403,8.937123050928747,1.9112673197347023,13.164317145358329,23.209882088489156,20.99135106272022,31.466051899584382,51.075411153902,61.75620134858361,84.55366207193468,126.69609412907242,157.54016024148027,178.58049803798102,208.05577431360672,224.21349602687366,217.4329718244368,214.32040742332117,210.92675581131385,189.79993998403876,173.92260827016227,171.6679783498888,153.9837652889665,126.2548225848016,111.79541896857066,91.9121205654725,56.79314316958489,32.27139350775242,13.651929265314589,-19.988117637811644,-50.10879026344429,-67.81996150492542,-97.24422936744692,-129.08281613999847,-138.3088829322722,-145.17545569950403,-165.0858914488391,-176.19034611128546,-182.06000558073617,-200.95874643194693,-213.0317509338168,-210.48383988807038,-221.1083415263138,-238.53601788428585,-237.64817771393245,-236.29226346562095,-244.55062838584453,-235.731123294831,-216.8928128904757,-215.29270320986916,-212.92696601529468,-195.6367036521473,-187.3053206999433,-183.38385896265393,-163.94510806684127,-153.30770231147767,-162.49787244710748,-157.89092252495522,-139.09547594591956,-131.7402339344634,-123.6795419536583,-108.1288391763837,-107.94063360008849,-111.08534030085015,-91.02705152702666,-68.26638411824307,-58.89064639267801,-43.27433131621112,-27.494143587971234,-28.84032339460139,-23.63259493900307,-1.9224443248206633,5.3705830210322985,-0.8094609395665153,4.049515812895958,7.462868754280493,4.299656794164653,19.89842561842488,42.42742700785683,43.8011652700382,43.629725763481396,55.076331647605215,54.04280711763286,47.28468444091058,57.604980393255474,65.6879559814142,61.34496148250712,69.75771312846037,84.95420277716985,85.22309479430695,89.32817434491753,104.64139572179202,102.48152866997304,88.92567293432485,91.067847389636,94.44762197724208,88.88219854695893,96.59238364407045,108.31497023025467,99.22346632006985,89.77763306867952,96.29867156272977,97.32448004917164,95.4864278001173,107.31937301189294,109.33190153319184,89.74873926839271,79.4274923925729,83.15361538201454,83.06377940346209,91.6859073944774,109.32839277001582,104.84418880869096,84.65274666754217,78.03181688055545,73.88436091875091,64.92158201516293,74.9105661021818,93.87419629999691,93.24192564319539,87.17280020313282,86.67234747488395,72.04402670496474,55.29012093181362,62.355704530576155,72.03107414176905,66.29784101430619,65.61722762711813,67.2025801457306,53.82911352492329,47.37586903676337,58.65512962657723,59.08801503105843,49.0983111382792,49.218247223663994,42.848383068879556,24.36160754115275,25.53317176719786,43.27938691871919,49.20899595067374,53.456969423705445,61.598558505963474,48.972231714279786,27.357381459256562,26.495856740546174,28.616609704848553,19.14796510021091,20.847748293415776,27.999064156680177,17.6389356262106,9.634826561735117,18.23223568785333,19.346273636123993,15.016743834387487,24.284630447125842,25.74549347203288,6.669593834077848,-3.397429035802344,0.6469130646009305,0.648241384040962,9.547234063471187,30.633679438762723,32.00648839187616,14.201921519937166,4.836457922718424,-4.244748447767292,-20.262383921342337,-18.970958264128996,-6.897561169322731,-12.579026259649755,-21.820300009237286,-19.794305826696373,-27.905417445749084,-40.04966003380169,-31.286709872750684,-22.766731977406444,-32.055118997822305,-33.34483572947666,-25.983893102924345,-31.555194977198504,-34.078078326546546,-23.556083675681514,-25.41937590461573,-34.85079154546387,-26.680677668875237,-17.69507166755509,-22.838669807338494,-20.09481808437692,-11.530789672642715,-17.542409183364896,