-11.733035132343476,-11.9279412888222,-4.1694228275158896,-7.839811890433554,-12.030884080892344,-6.595787988745236,-9.944800578856723,-19.183508427030446,-13.579748938767505,-4.904384860437678,-5.9649998493159995,-1.9462291828573584,2.838955783080774,-8.063199305569716,-16.783157385430936,-9.611599699886293,-6.703093392466777,-10.870499935723949,-8.33805531448029,-11.511934840106944,-24.669971712483587,-23.48105692866499,-10.121452444451558,-7.811960537907219,-9.160867559873456,-4.963390495621534,-10.474669636974353,-20.17554842522098,-15.147944879343799,-9.837589508482907,-16.330629569740065,-16.086194693031807,-10.448300985221149,-17.584941190015996,-25.534839090793692,-24.230292202773377,-29.977764879763107,-37.759934823242176,-29.232282800982603,-18.83118885694485,-19.380376688818178,-16.509344424191656,-14.1079047373334,-26.55037564436355,-36.675460850458514,-32.4184382835683,-30.89538172692516,-30.44244833515898,-17.037965858530722,-6.4621683745507,-8.720197292236698,-5.82151729862319,-0.9983001520022876,-10.662861522842075,-19.189068434204387,-15.21820009397078,-16.604345174390502,-21.273375439160265,-14.402379839887434,-11.427325241737764,-20.69978248117388,-21.193848357859423,-14.393143879964164,-18.439607528391083,-22.161331565047863,-17.195721822280944,-20.248624934280254,-26.268772278124892,-18.16106411171147,-11.336195870799136,-17.08675614434941,-17.10621367457039,-12.233236301125036,-17.56375773817174,-19.544867846723356,-10.517921962425188,-10.384160374392197,-16.92783515971493,-12.65036405878693,-9.136035236426466,-14.948485257420698,-12.792022738423547,-5.544201922736158,-10.079179262052335,-13.398737614619577,-5.747093157261306,-5.730676760655045,-12.238323205101954,-8.368352125825664,-5.826240205147459,-13.07442081392579,-11.946150105846296,-5.072684295711705,-9.204402169702016,-11.017489926260083,-1.8169375328191064,-1.0945175977620458,-6.931190442271178,-2.304355389431604,0.1791906140179665,-6.785246293240895,-3.0663479155645557,7.340541049519789,4.7346426915904605,1.245532833688582,5.557138059273034,-0.13418033351058378,-9.427557161221504,-2.137251706062138,5.709894472539092,-0.6572778063808387,-4.3839918299148515,-5.57531039997197,-17.601425335704604,-23.311688377994578,-12.129238111878745,-6.132182690986967,-6.937847742681471,1.402305975965655,5.088754327547475,-5.545832325709592,-9.908503543983606,-6.94126158175537,-11.130382929411887,-9.484221997131897,3.56993515272654,5.3567245791101925,-2.241459300552714,0.7138225853099911,3.9628611898232444,-1.527189992670714,0.4489733531277007,4.5063266649095635,-6.979774416362403,-17.23556736137552,-12.953071354024777,-12.004956426324151,-13.2470626752735,-2.02202783323632,4.577034420350635,-5.154853303200731,-10.775226697706,-10.50629464657855,-17.955756106058512,-18.18034189559331,-3.3873609060399854,3.0083984580442196,-1.131352117892836,0.7910212822147853,-0.8107518102691653,-11.676604232807675,-12.165913066380066,-4.502645470437798,-6.101690708650364,-5.446700491155511,4.353291329937591,3.036496972718138,-6.7578674039365145,-6.216360413756441,-6.267445605122081,-13.622694740000547,-9.11033991548685,1.6461249795245396,-0.976615888993142,-2.593746420234532,6.717266379731226,7.341751689681056,2.179319373152846,9.51392113433547,16.037500647224917,11.330810324137015,12.740572099203503,17.3895570588775,9.340287288890675,4.275719718499032,13.67964624018749,19.576957541816434,21.61011318335513,31.601335406401848,34.2244568165725,22.34707664666624,17.07610590081633,17.62885488612619,8.016318972270946,1.3378845105607002,6.050325249484251,4.75073967290241,2.2893514053029023,14.281408377023732,21.667870701337186,10.948730518502813,2.372056733746666,-1.1099540412393067,-10.746921837972993,-9.886366307691713,6.882339297946395,12.233668846759466,5.356830217948634,6.697440171759717,6.897823175900529,0.7248616585977325,8.28297107457281,21.164510870984433,16.152254005407826,7.929659833183883,9.739060591553114,6.006043347705102,3.1390680938929467,19.074200224267123,35.14909380065796,36.812044989725216,41.82124417772367,47.945010632216956,38.91690347958559,31.264951223006605,36.45323102174226,34.249612447968005,25.639613870490635,28.359958393927883,29.353729777059414,19.68721711956377,18.615436320208453,21.850818684238096,11.004483771597247,2.2968880603984227,8.019713730559992,9.358772397101582,7.156487740161882,15.464088720928933,17.339036446614383,4.313423777925777,-0.348820157683451,2.115694677508837,-7.0107225724965,-14.389749363080579,-11.294122742826286,-16.770520640906717,-24.722830540035144,-16.205873692964325,-8.64246084310897,-14.348173310695959,-13.93565383249226,-9.167373079797258,-15.852116801673862,-18.93708078497035,-10.839553716402747,-13.078585359650308,-21.20141719861468,-14.297628421821418,-6.443001747819229,-9.637462401176043,-6.812978685142187,-2.8708975555442016,-14.37268162070862,-22.145579009412973,-14.39213361951689,-12.439041818388205,-14.874388071781768,-5.98940064576494,-1.8250231973669848,-10.12668353383866,-9.545082355036794,-3.824762693344633,-11.352939849558716,-17.30171349613266,-10.365664323864259,-8.215270195639004,-8.641954826690796,3.468334843395666,11.658083298055,5.095668554942662,3.218173279624506,4.555603227318528,-6.231368192050996,-13.302658162102471,-7.34777131055008,-8.606469393832404,-14.870775844971671,-9.22907201984493,-4.992681818046797,-10.03988713011008,-6.803119840949557,-2.571016015845456,-15.717248291586793,-27.733236569194098,-24.180048716122755,-22.41948895361937,-21.730367988049956,-9.949192927335465,-5.13417374687658,-14.930245814785586,-14.749631693337236,-4.977775071551897,-5.195058983615842,-5.119568708775744,1.5941881873038861,-3.9716844554773973,-15.117900119679081,-11.778685195980087,-8.97722057596199,-17.900051228391685,-19.987813863877733,-18.412480275777583,-28.855360163872575,-33.3256763126708,-21.50949056040932,-14.532870883877656,-10.990329686001171,2.9089664616166857,8.698151001834526,-1.5853935221732716,-2.805868685537619,5.844503427097907,6.011468710194109,7.550254171318304,15.525946195166911,11.096422443929637,3.0314692798626433,13.480902165643784,26.534162270739223,26.423999192080764,26.453796819958566,22.833307488935976,3.448776521525218,-10.674677018453046,-6.917076103927698,-5.002744667416101,-4.392379709981602,7.94272201895488,14.465224076881576,6.554368526103612,5.7116019102365305,11.110945571523004,7.553869992144514,8.950509697074,21.387023577236643,23.03141536239127,17.090739962553986,22.279020574803276,25.44147397342191,18.38664481665913,20.724572738925623,27.723753460662014,20.059498031280185,11.448271009746087,11.205169953752556,1.7624911783795318,-9.462645232760078,-2.3652675364689495,6.52337108003724,3.4918542236603085,4.712161085757839,6.367239666677243,-5.95741820441022,-13.031739362266547,-3.8226513682638394,0.20177270530524016,-0.7773766416951924,8.114867095099694,11.310354281907475,1.0622038588956828,-0.6577994486221665,3.965260032417357,-2.8093421875378413,-7.678219669070604,-3.1618210781010108,-8.289749213750364,-17.002244978090758,-10.725462728277531,-4.753960651061548,-8.568663743527365,-3.2094786991647464,6.8792890004695515,3.6801345643027714,0.6328300861224203,5.3921564417049535,0.21830462088249902,-7.111230878042549,2.71370654729232,12.940311954034849,10.38182704611695,10.926835554596101,10.8838088101121,-3.050966394449315,-11.954172027677807,-6.088469758303634,-6.066470545409445,-10.05465709077408,-3.2141943535961266,-1.0054377618429675,-11.077888675628747,-12.666018555659253,-7.897520310609801,-13.108895353306469,-14.605057336677906,-5.334165082872464,-6.258969861887917,-14.111270528760489,-9.618618930682269,-4.847946497104285-8.868115815818031,-5.050142483447425,0.43555656113421004,-9.478707052121997,-16.950540223045113,-9.54095236805916,-5.7400059061646385,-5.086593400677276,4.498299737772122,5.870829509478787,-7.623813950962962,-11.908830930216977,-7.025156469312984,-9.717339426225047,-7.858019757426959,3.563207812744254,2.888869197620359,-5.286331460844118,-0.507536637878141,5.738365733359129,4.548124076150921,11.523711894725807,19.058119668982066,8.149360707127821,-5.216272121600634,-6.62541868609164,-9.13631065402765,-8.717690945382987,6.2988849412881445,16.263004821022076,11.19915255230983,12.119315697018093,17.94370740939881,12.622514412416917,9.276092718650139,14.488485468325461,9.38662885755447,1.00915853258756,8.553377130917077,15.952136823965859,12.514407717442193,15.98159155506223,19.652366777043106,5.641957657452023,-6.65799265179349,-3.706196774603108,-3.990998554986427,-4.956194049193809,6.893762705210605,11.838694661767931,1.6858859358890066,1.4757778452355004,9.159431740857753,4.663134579094072,0.7985872166704983,6.137220531932787,3.3382662285366593,0.8268600178199152,17.096542139157187,31.182869568437408,27.221000849343767,24.286698304089608,23.82400853269049,14.74404996737108,14.92752521343693,29.97499558091499,33.56680941118147,26.329240846356498,27.87936968559538,26.601828779777275,14.597208004280569,10.914695338659214,11.50371128529528,0.01862873284821287,-6.573607236129251,0.926297299783192,0.26076584405117353,-6.604052011675595,-0.885941422625339,4.231099839267428,-0.7460034412969212,1.587919166084768,5.713204712233274,-4.7938488521783,-11.94247451594971,-5.128690240120617,-4.384515956781256,-7.1943979338846304,2.2219147153879186,8.121245164105684,1.3779259793552483,0.8129538168574042,1.9891027607449794,-11.000910656550547,-19.992739896134587,-14.790985159549784,-15.982766650149971,-19.923218737359605,-9.342987159469923,-1.2929706564369776,-6.7652297254348595,-5.705638758000427,-0.27241019906584674,-6.638430812846762,-9.24158802324391,0.29387946610963933,1.3825948901531264,-2.478059809322078,5.906861106063407,11.232038297346831,4.02657063879048,3.3243427815898423,6.316926453757407,-2.3945413606587636,-7.964679162864002,-2.7095404747889895,-5.431631187473442,-10.716794524223472,-1.712183790808461,3.9328944048590566,-5.197784815877641,-9.159560695242078,-8.554143618446108,-17.444524696316993,-20.58604652368306,-12.30981590888288,-15.190709165819248,-25.164642234141958,-22.165061706608924,-18.01717040528466,-20.576511349495966,-12.022831120524586,-0.11106501082618259,-6.3690296910980635,-16.751058508038458,-19.973348304932582,-31.476710377504705,-42.34182515743153,-33.170525474725636,-22.160484340879663,-23.17619087602263,-19.966396073616043,-17.218107447829148,-30.05821714279518,-39.09678838893542,-32.06632043220793,-28.368197989629543,-26.823403092286128,-13.444357951982425,-4.302314920742482,-7.133335488711161,-2.013949601458063,5.622556049386567,-2.7485489087156396,-10.92054758929458,-6.589060311714974,-5.608341778926752,-4.211627465446434,9.462525003437166,15.325342502502787,4.649597555125621,0.6249693088621412,3.19689823346707,-3.3138758464404954,-5.325565596432744,3.20431267455045,1.3311200793137372,-5.911208886989034,0.24044626201312536,5.517407434498709,1.4472659444125493,5.85431595402112,11.337524882430108,-0.21108876549477973,-10.046187784405157,-4.917198529659499,-2.5087254866040474,-0.40160621180238354,13.139203651764188,18.00957812466563,6.423891801331463,2.58090889829471,6.412298360711375,2.38573566152834,3.741374889248696,15.268020993455336,15.448074654938248,9.271359312018559,15.270963612304529,18.837061520783145,11.713130764478503,13.47525127772245,19.255579133190757,11.775813871278858,6.816751442311192,12.461458061423603,8.224400384090153,-0.7627491202690782,4.3469142458580015,8.549791273220608,2.4253508533242982,4.34572012952815,8.542312077750081,-2.0374964953021806,-9.653932331538407,-3.3869276669234982,-1.8510988243703337,-1.570134575438677,11.792090217466844,20.533783395948088,15.254242048134032,15.451820347189274,18.216969177189196,8.5738375504838,2.6168469630921436,8.606391302065994,6.786573274515554,1.4998799138607475,9.296358066813557,13.257866557562796,4.10127604885682,2.8750390460517252,7.038567812589335,0.562470432275314,-1.4766628025759587,6.06666632608564,1.0434310094193355,-8.934042355485285,-1.2056224024191682,11.397765298474964,18.990167486908437,37.19998417233696,58.17211784848193,65.80631483113122,80.45082743363152,113.90043189813827,144.6671898208223,170.10710495368465,197.29383233651268,203.958488060936,183.9512974125281,166.61071503320676,155.5908940802736,135.07548248578698,117.10766192182672,104.61157652752686,75.43043009153493,39.25084737442394,20.00622546703375,3.3972792670063603,-21.42760274840047,-37.8130343304388,-53.346652575126086,-85.41531181341142,-114.51028959424293,-127.35609184919397,-140.79231170569238,-150.85411544733734,-145.0128979698776,-143.4961655386191,-155.87119928500852,-160.9538289976919,-160.08603609347617,-167.65730242590254,-169.39266669805662,-160.0760230398687,-160.47023484026965,-165.54699093236192,-157.17091822558908,-149.01483442727624,-148.5897497478134,-138.15938241907966,-125.0888124687768,-127.04604260783009,-127.62923670191402,-117.67120349314705,-115.17769372597468,-114.32956721504343,-99.38971371611447,-87.39729114047235,-85.80353462815353,-73.99047963274124,-58.04901262273331,-56.57321499378844,-53.6434624844903,-40.84691629337039,-37.97697228559541,-38.927109358183316,-25.643273041333295,-14.367804807155878,-13.489368365078116,-2.9678430864555425,11.355362856070922,10.453726830271172,9.188141943292516,17.337923326614654,18.211382756163463,18.289174464327054,34.30266718213848,49.20211526610254,51.9816575869192,59.48081638188564,66.42151411712805,57.43006400149851,50.34710206846879,55.10056073520121,52.32988235147059,45.79310481869356,51.634975509338986,54.627969699500234,47.85410061387881,50.88820912543094,57.340154108823995,49.7194556401318,44.50117326092498,51.111684913036044,50.76501016571191,47.25385287908586,56.008640599196234,61.28908386200315,55.60862189831411,59.550318285541756,68.54861731983833,64.1980168712967,60.57639463725155,65.40077592785235,60.0142473799888,51.60391666804907,58.59017850165338,64.07263929135374,57.75642518439791,58.56094274002761,62.57101062005205,54.6014279341126,51.07175701116869,58.537622491505154,55.74406606648755,48.30822322738667,55.137311933624936,60.949541584377414,55.32035517682145,55.72256762302423,58.20558978311476,48.24585494470514,43.768363461376005,53.7843957167307,55.92758110132129,51.125361563484866,55.18140851396233,53.359900380748435,39.72216838914466,36.34317322150757,38.65222640453267,29.36051429658268,24.513676800973084,31.645231639467475,30.769551524390845,26.871414708710688,35.02296494936815,37.625194197855194,27.300176330573336,25.074052106592163,26.9154620635817,17.39542525382233,12.898608464369651,19.98020443231454,17.426945066775936,9.113229076962346,11.407422078918472,10.351646399365235,-0.2595831074396582,-1.3722088073765135,1.763805920011801,-6.708302159699361,-10.78602890028915,-2.565569328808945,-1.5579117375507678,-4.193541830704308,4.590852732833692,9.899406943767906,5.416053630572561,10.0639066663851,16.95941260188266,8.455948593367818,0.5840561737365553,2.4984047649384475,-2.9968061804581496,-9.314687152806512,-0.48175031897489795,6.607216716194037,2.6515321456126655,4.479420432027947,5.867914198787755,-8.340716599972406,-20.41613565258702,-20.174213140948073,-25.183633079706418,-31.47066081379741,-24.919905163134494,-21.915586381724427-29.621285113710478,-28.120630561546413,-22.43327765576988,-29.760999739224413,-35.171795142925305,-31.320336287655355,-37.51767440145957,-47.10096481528236,-41.05005160387641,-34.08185961304912,-35.22085823661688,-27.27192436009289,-17.395916711818387,-23.148173783311762,-28.053066060002344,-23.589431336654002,-29.62245078457018,-40.79060180796666,-38.92250029042204,-38.062733024775376,-45.242654113808825,-42.0660768235752,-35.31417534616559,-41.65047238246113,-44.331641330522594,-35.11143834246774,-32.69474629673257,-31.205918348630128,-16.11466913780445,-6.494027082960349,-10.500187786166052,-7.413304740337301,-1.7076548394683,-8.467515676570361,-10.407703358115302,-0.9178664341551004,-0.8203035122293978,-4.296693519594264,4.62903233420877,7.613382724313851,-3.8337263765530736,-8.161243482825277,-7.97094196368938,-18.473966077178922,-23.767044681570983,-16.961374018590085,-18.6049427278136,-24.572172949533105,-19.4242175762161,-18.99782160603059,-29.618229056468564,-29.96751446000445,-23.3337846479953,-25.73981941369503,-23.646949727078095,-12.674616925294334,-13.415763662224874,-19.405391625775955,-12.444464512996095,-6.803063663828792,-9.711535445021271,-3.7842957150727097,3.169943954352914,-5.657985491674873,-13.085947487370552,-9.967918634458176,-13.301660072971845,-16.016258734609945,-3.759020833550792,4.57735790964289,0.378216478421844,2.3701848621137853,5.956358279521687,-2.8806148408251797,-7.264343290705852,-0.3205190069041679,-1.8466918593787875,-6.329105209288839,2.6597896349016517,8.933113902714977,4.422044206992602,8.425867248052068,15.070444044174478,6.142856283777947,-2.957973035002547,-3.571204707790298,-13.744621356103185,-25.461047684797087,-20.631426516880545,-16.736976964607017,-22.95109612614225,-19.793206576438628,-12.46435416628458,-17.646905343605816,-19.527082025839448,-10.497335990186015,-10.61338880162716,-15.316397184713335,-7.1650243035257315,-0.2551130113730482,-1.876301385637082,6.369001582206593,16.818140463381393,10.101924502305472,1.5561978468240132,1.8304150919554552,-4.448702236982074,-11.5248399124231,-6.2768278852321515,-6.878282671156873,-19.930104711689058,-22.714646171165427,-17.35980396672047,-20.442569279713478,-19.494438112946575,-9.64484658072446,-10.189857806376777,-14.643998942451836,-5.46933313541205,2.4431891786170787,1.9571166536455622,12.487434110941653,27.70298616630691,28.29366415728407,26.590964153144668,29.45853242183599,21.15663090991095,11.528976235934081,18.405404083552497,23.178926636411628,14.11162904481601,9.043275428317349,4.0767294557761415,-13.19422250314237,-22.150618877375795,-14.037714247545752,-9.771388052408264,-6.080764518439992,9.965212307116069,19.1474479306281,12.843280049653206,12.194325313177298,16.000278809463943,11.413736531624728,14.44570373543825,28.96276779742302,30.811736680341173,24.131560505823305,28.18874021521822,30.59074529538907,25.176992043006486,29.105658666117353,32.77278756225975,18.39171169937938,4.5213777644389115,1.602330437634612,-7.726149621838596,-16.04715437035836,-6.7562848093014,2.126399745415082,0.9998202577870234,9.304431283514031,23.948621851707315,31.30984396748145,48.476272451730225,81.00017447239117,106.32712658653975,129.25709326766378,167.23455868086,202.82366774477276,222.3714919041947,238.37325984050932,244.18761249906584,227.71313033818467,209.06305129524958,197.10738004803017,171.09805598238444,134.34628366004875,104.85897291701772,71.68501556385449,30.792317974799538,2.653602958504174,-18.500179487358196,-50.321251995688726,-77.52752382686714,-92.3565711827783,-113.92131118851091,-136.64033858998323,-143.92641156243388,-151.9320155760388,-167.88397752888585,-171.1462723248229,-168.20236412514913,-178.46246587268925,-187.12455049978144,-186.56757870114083,-195.4369678099429,-206.18266191654456,-201.5091506024341,-198.07247993193465,-202.32203134497462,-193.6253316095864,-179.94297725020616,-180.92038628817795,-180.62632949173374,-169.43632904835022,-163.69603754814375,-156.35265055489273,-133.95357452242934,-116.78890477987453,-112.94257171152557,-100.56039283875916,-82.68252275847063,-75.03268374844954,-63.92165665603165,-45.116328079983944,-38.41864114043108,-36.65733366498077,-22.4377367634593,-11.44565794271167,-11.591211971378113,-4.936048730432877,2.420757807884226,-4.424910901170893,-7.658884023868238,1.0584437642920674,2.720893731757215,2.5782355835409883,15.676873304713077,24.748133594176426,22.297273135745556,28.73409680184477,39.699972120376934,38.976281250475154,41.197306690730116,51.905385598646696,51.3274606525245,47.05797828406192,57.72919990674618,66.87628104078678,64.21848319440072,66.69036273262469,68.45091985086839,55.96009562052413,49.60658801246447,57.70869049949718,58.15685470643268,54.5894085071445,62.51495026551334,66.05102281455405,60.203185256240005,66.58606243398062,78.92537227716717,78.21548424914468,78.16343791199198,85.5020256281725,81.81724378076012,75.39772605289623,85.67513676944188,95.99010414815598,94.47461038485733,97.46138518265485,99.74183224009352,87.1783635926463,78.68049036413893,83.1135169040871,79.74229013519906,71.36231706549006,72.69944302338737,69.08945729591846,55.8332206355698,54.018029717480644,58.33364475326846,50.75934072483229,44.88176102368377,47.70217416698326,41.95786050762045,34.863710767112686,41.644880114825746,44.70004765902077,36.23545187598864,35.76559294997615,39.45907064575985,33.11589445107843,31.538101112626713,39.22946055948947,36.40371731638968,29.91206638886785,36.575125234395145,39.77621098966873,30.85004316875724,28.41319534904343,27.690231936761503,14.469417986110507,7.418693679001027,14.625736458171923,14.317472863493816,9.57325970096801,15.877670920718487,17.6985259287562,9.019127942226097,9.814812150123018,14.052636569930165,5.056187807239211,-1.7835261701545666,0.5219120674068698,-5.925448713920003,-13.528472620335295,-6.288145518139041,-1.8097305339835226,-7.537278003790801,-4.271043434424149,0.9730838859559312,-8.008501511457766,-13.893410044455246,-9.453232525242065,-14.334507910033548,-21.33800463668486,-12.762182273221356,-5.182690822768016,-7.150516844928161,-0.8816759677859549,6.1425715888541985,-3.2181615843848217,-11.705916112435744,-9.315659599886896,-14.132964073486239,-20.633969165200202,-12.410635119340476,-6.375285531206606,-11.08990517342959,-7.850238876822387,-3.8776492861616476,-15.736970584783993,-23.898523889224446,-18.14434278230612,-19.184356885277886,-24.11249863490575,-18.20612424182638,-17.798585370620316,-27.880942858526172,-25.67207669338287,-17.55848068759596,-23.405701626460782,-27.787440487802925,-21.93085434088984,-24.46309130717502,-29.31343436131979,-21.000484409246965,-17.376183900507257,-26.06112432418004,-26.415732948089378,-22.545014375144312,-29.511226399809445,-31.20220988624765,-21.912653954101984,-22.443551655208847,-26.486480173708067,-17.184394791171062,-11.541368408358998,-17.583535316360777,-16.93380886122582,-15.968953424020166,-28.23280921800025,-33.850668637660696,-25.330837981032996,-23.99439274652292,-25.27790847660556,-13.493760271361145,-5.321496915664808,-8.475202670898213,-3.823987842204651,3.0208768105803516,-3.499818400133543,-6.860701947778367,-0.937613072773662,-6.1867566647835135,-15.617287221181837,-11.327080666689188,-9.551632428886919,-18.480732682457795,-20.181865579102116,-20.784177509154183,-33.43460912776985,-38.918153166874966,-31.163838037680534,-32.23508165922105,-37.55357619309791,-31.277725785074185,-28.64406019743742,-34.52391970112348,-28.030677794812043,-15.644197799201635,-16.280121052477956,-17.151246163914827,-12.401323426121941,-18.724214275302394,-25.424308590395704,-14.030973107035779,-3.3181739477212018-5.240359375814786,-3.482065707540422,-3.238301708069803,-17.514271891182577,-27.440337907325024,-25.06527845216386,-30.249151739536803,-37.54887524282624,-30.308032147198503,-24.594165387350635,-28.82902610528013,-25.00828070021995,-18.625222786101524,-23.984694068579724,-23.5575403968997,-10.265846708598794,-4.752154511289963,-4.099061787188693,5.095186374457777,7.498428712182921,-0.038155702079013754,4.250577160475618,13.752846133025322,11.661040361744606,12.298560645612465,17.683783387545123,6.988111750962755,-8.379188312630534,-6.799170107242336,-2.686388217198035,-3.696661335400667,4.708158894235462,9.358698575675962,-7.2436983956388925,-22.68756148855678,-22.96400929087428,-24.354335791852634,-22.413744406401076,-6.076108147359884,3.460207192572091,-1.9879633334172095,-0.40212764624698183,5.222747099525811,-0.3529332520859061,-1.5653878387297726,7.620790083636141,8.160309243330168,6.5462088051275416,16.746040758222552,20.17314691121758,10.935327078960047,11.359391308919388,17.599450841219166,13.553794720151474,12.489367567480869,17.862915179654017,10.628813979141173,0.4415191537319627,5.320079056606437,8.060584611076806,0.6149539537327948,1.947635123630851,6.853253427389123,1.189378130959196,1.1238274671259618,10.391431404650302,7.581626149682671,0.5251999550451867,7.59504055151755,12.701703967578265,7.669814163553025,10.0104645317133,13.173478564227302,3.159730029657937,-1.8345959742166613,5.570222847392036,6.396357893798706,5.693889327746143,17.25710576038433,23.532308234335744,15.980074381519596,13.008420049874143,11.745532191483846,0.7099258438207849,-2.624601370583803,7.045883559235959,8.972954221480144,8.232138683681775,18.91366265811094,23.601353181147978,17.199208848562613,21.231309525807763,29.80270124028317,25.716089773895764,22.262194075301913,22.857648327425174,9.467886547335109,-5.606088566487196,-2.0855157202437318,3.2639663049955323,1.2627522403959073,7.874266262622605,13.612650259637787,2.5871304523215217,-6.3551506319996305,-4.835921144596757,-11.275481998780075,-18.722081789267367,-11.394970589902345,-6.696747725822756,-12.80317419586601,-10.708850083168546,-5.489714127552581,-12.091443442892437,-13.293365946818664,-2.025291642082091,0.6781372042981866,-1.7345697963984623,5.221194294842311,7.231679168481627,1.0550285967067716,6.019977996464334,13.954503760853838,8.2857246398582,4.166833284367445,7.419394069040149,0.9672217247472319,-6.373820186520747,0.8097204245691194,5.088067926186085,0.39226994264716186,5.759411535365467,13.494507197815317,7.8161022513416025,5.087833741342469,10.526262583330599,6.440035535790011,3.8289244132522633,20.506923744831628,39.929508521456846,55.09047682309554,82.73262931886858,115.26201470141805,138.517225583605,167.1024590274172,201.11018256769088,215.61911679104392,215.3104720762862,217.92245121472925,210.93438042252743,190.5297148214044,174.02249910455578,150.57722017844304,105.48904638693907,63.28015732480654,37.75423685600606,10.667719415499395,-15.518720612972228,-30.294795241539497,-51.96744682737655,-83.6451499903841,-101.82192180761754,-112.86991662663354,-136.15673801555224,-157.5816893929637,-168.66305912965015,-184.87229815561957,-197.53894036959326,-191.1188994286053,-184.36118316283054,-186.3637853877734,-179.5628994234075,-171.38462237827792,-177.29144441174486,-180.13105400977813,-172.9662080618021,-172.8946214399595,-170.86668432730033,-151.73510296282373,-135.13614227599345,-130.78012525854055,-121.61488128746014,-113.57178158147468,-118.17144878847586,-115.61285825757197,-101.03398680014897,-96.32869555164687,-95.3660590095808,-82.23478601960736,-72.82524216801535,-72.34769984941465,-60.80894141056676,-44.84199304418354,-40.9274040838043,-34.12475699728966,-20.873775912761644,-21.7106308100485,-26.31848209790946,-14.180419938216657,-1.484732597803846,2.0843433434468555,11.810433843993628,19.364510293195046,12.019394802905392,10.516468917611835,21.25457998032354,22.204306484248413,18.34403275523578,25.588064529796142,28.940538921294557,24.00238536120498,30.757765232376993,41.872230515195014,41.13653211428604,45.0561837259058,58.730595008795326,60.97016382406353,58.475515905370635,68.26537981724357,74.34111461475547,70.51380965870739,74.78082130760332,78.52861434244717,67.92280822526573,63.8292921183028,73.73483854315205,76.17172491356004,74.21078616550898,80.26148466739812,78.42237736534996,66.82700714858952,67.54599112344333,72.89821145666704,65.33829137504159,60.5569623655866,65.01913929581224,61.07042118458489,56.73095160257681,67.27185855777168,75.97592100849154,76.14359717431122,83.90618124550979,89.33562323775313,77.08930344107722,66.92951912506588,69.06869382866311,66.6354853955992,64.29715811231831,72.48340508178802,72.09914790915384,58.67838916056981,53.13698506282746,49.30599302185337,33.88907685577899,26.096926742380163,32.339080972412866,32.18074539830173,29.82294680991817,37.27483521593506,37.63236099882187,28.667523977003732,32.02945859019572,39.30056266318723,33.84660497884867,33.172852510261414,42.924888142590824,42.0067496133492,35.63815326977931,38.58674614522188,36.22814100914962,26.97766928678046,31.846738086982327,40.34823962221131,32.31294051858345,23.186177916900007,20.910427670775256,9.639397452570698,-0.9831931797600677,4.42936664998067,8.322735645625597,5.127353545577545,13.236270217888624,22.813124895985382,16.38911401276132,10.953023460585156,14.246134321027506,9.266929434841057,4.22156289647269,13.34227762697615,17.855213195282047,11.580775944677155,13.8329019909912,16.176801481328923,1.9951434286865508,-11.5158655354398,-16.112013649018543,-27.264501438000615,-36.116512873750985,-29.38110807748652,-26.606073416278452,-34.722840657229064,-34.385846204807066,-31.00006825655329,-37.95995504069998,-38.99420997943497,-30.404707715066944,-32.12312044251947,-35.56219260524871,-23.67409932582578,-13.04546376902396,-10.31755204310926,2.1365416077325534,15.008955189232335,11.457787107664712,7.164912585741764,6.907725252098436,-6.815380392906608,-22.07920629915439,-19.67175378182471,-16.402427420035192,-21.723005568389134,-20.805046723398213,-21.528108800085185,-35.3311351095434,-41.61540198222428,-35.13850973111489,-38.088422993243746,-45.179209583664715,-40.642766019934804,-38.630931617065315,-42.236782916510805,-33.13241783866006,-22.835110774377345,-29.76405017929648,-36.75369643747017,-36.01458534022222,-43.37901091342236,-49.0854876946247,-39.77799993972652,-35.4481318403943,-41.98972537881068,-40.22353522493719,-37.210444660192756,-45.291635689116546,-46.12170962134809,-36.140660043132456,-35.963619283657714,-38.64804727646165,-30.112457969534137,-26.855571270057467,-31.633356351183167,-24.142500208185883,-14.218916167555093,-19.39192990888461,-22.52124714385144,-16.821034161542602,-19.80439808085291,-22.30382203962014,-9.841865819605852,-2.6081246683603343,-8.136558786041489,-6.533244772196259,-3.9077105011758166,-15.114177284389786,-23.21635770263045,-22.01536736273817,-29.622439207369222,-37.59519088013928,-30.544395179394968,-26.529673920461434,-32.05495944979515,-28.240144625859127,-22.578017240753216,-29.52304772081465,-31.122625584235905,-21.744633750388527,-21.29075837495552,-23.85382629603961,-16.489649493048802,-16.7727735168164,-27.146365887626406,-24.323089897012487,-15.248264531395584,-18.146770042463963,-18.445962010179485,-10.971751589468083,-14.249606980260491,-19.237289783696408,-9.968823330983671,-3.9829914623770026,-6.2413927624865275,2.701773205499763,12.793995892745095,6.166686131750291,-0.24554760862625757,1.3184925226772686,-3.975846657844315,-5.757997035808703,8.2676956746173,16.49496556443095211.908935236869148,13.746781450968593,15.389404999510532,4.283682642338606,0.06748667640115766,8.149691528205706,6.920672747713843,1.8599542088345178,7.017362325635404,5.267309604474583,-5.764387443768362,-2.761961222034168,6.025618236882609,0.7981742559603977,-4.339232970147614,-3.5431434390383143,-12.949740825505254,-20.912360359840754,-11.402678313631217,-4.287570810116031,-7.235485911798933,-1.7091484124502354,5.085077895912489,-0.01473786704885871,0.44087454551343663,9.294916375585958,6.75785691633089,2.6013050042363086,12.749999049025476,19.38350646924989,16.426515935380984,21.472598848051764,25.118421279682597,13.990982991129105,9.937555613125733,20.238696198389764,22.67798298246137,20.45065548920489,25.48580118831547,21.10203841095685,6.9352246007784535,7.489868401362307,15.935825856138091,13.426267649970429,12.70142165524469,17.596746338786478,10.477870331601348,1.6820351357813697,7.620607517873139,11.406608537490737,8.112217439796439,16.06875124026998,24.984779631018355,17.8776605077254,11.34209284215691,10.892497238374904,0.2574601780600192,-8.609453772329216,-0.6594043550049884,3.6736181385781697,-2.677123784151016,-0.5018714352430844,3.3092467511195096,-5.172663046545489,-8.220502106246412,-0.3855182551879537,-0.9236325369710068,-2.4717206754940517,9.082887791472055,15.311960544726595,10.354294005931266,13.395059230215226,17.8019325897914,11.182014391323987,11.606679521667399,22.783683497416177,24.89542117326805,24.075492054830907,30.65503872082407,26.224160428550213,10.855165677515071,8.662981413199477,12.843006050190228,7.492588336785516,6.408813125298465,11.142617361852093,4.333084451347771,-1.628725733955515,8.962387629627871,16.845977644910466,15.10995358304096,20.82343234827571,25.159400024602306,15.519590298979617,11.454343716483326,18.024538510123122,16.231696782845866,13.74872905051857,22.660610651557594,23.658841537484733,12.741826340044799,10.636349726991261,10.36934442591615,-2.18456968107942,-10.32176280747328,-10.039070190440892,-19.167756563025257,-27.126784143667948,-18.21049750473663,-10.461470742401797,-11.376564546755038,-6.181774091372178,-3.434939596046177,-12.384095913154304,-12.216662754029015,-0.08553054942495297,2.502048997235172,1.4949088325538111,9.292388819635638,11.691612110875639,10.308383313939457,23.63739308002484,36.78929048373524,31.338313637706946,26.04118765701765,29.174238521951498,26.100058225314037,28.840721383162876,51.64631479892418,74.31285710356985,93.48024057785781,131.87413310919814,178.89119270884868,211.43999122822285,237.63163226013717,255.875854168849,247.9730274363328,228.5803567717577,216.0157201824981,192.33098851631868,153.62637559505725,122.68209480370626,95.81757720414407,61.140284660990986,32.273739560685165,5.4231010403539015,-40.401604310065004,-88.68455532677906,-116.07115769530168,-137.49230203956915,-159.87607518002793,-168.94861813482933,-177.11849933667207,-198.78943557931245,-214.55996747001723,-218.89439896885227,-228.34016820555405,-231.462758209663,-214.90515977894128,-200.745514130495,-197.92704721208167,-189.70890329567308,-182.62076392430475,-185.97554292145648,-179.45406899594533,-160.65734622452453,-151.89028777796557,-146.56854698436376,-131.7735452115405,-124.97746865765896,-127.63212431546854,-117.79069813176034,-103.57194387150963,-100.67324016332057,-93.00030465314987,-77.18296191875423,-72.90631202515175,-71.80232421055568,-59.1432516331718,-51.22255896446607,-50.655596451916054,-38.707730962607,-26.20353173093046,-28.5122881123975,-27.433284605019836,-18.39888320275545,-20.07690912194557,-22.8901507822521,-12.501113770144121,-5.984844051848039,-5.260585574295433,7.803823107135846,18.83003838745845,10.32951705774748,3.115877129619374,6.529715804810036,4.5556750113521485,6.301465300821924,23.81577492606467,35.66568691343808,35.44760086415295,42.095659373706376,47.065255504548894,37.45594664150754,34.18371554991906,43.747142281019876,46.895632758967125,50.02248080561179,64.01372199454978,70.58366710738768,68.74779797738422,78.98404541489244,90.38169485251724,86.18569216378012,82.31859475164602,83.654077583304,75.69563091662339,71.03710055968509,82.9390593374724,89.96367072352865,84.84494691907771,84.37556046588796,79.41942302963993,60.06856023747392,50.38860082949581,57.1844185278981,60.23470874336984,63.82369053341971,75.1173461741448,73.73995949049552,60.21779550775892,58.893576788730826,62.11526087392534,53.88267755971593,49.77461109844519,52.13104944350126,41.42960195957934,28.582180391748494,31.457905086825292,35.58410763957659,37.19234604767102,50.63871970893712,60.29239019918523,48.82186017734252,36.453151109050935,32.53113249680666,22.4265006482515,15.276879347732578,22.24201312187894,25.06927994886572,22.186092134429757,32.21325618517153,42.41140780717028,36.10764425746449,31.717774450166683,35.89707384635113,33.67687070457951,35.61300716619625,51.16016807633011,56.73191894555035,48.02994489385051,47.01136514329003,47.41327707650987,36.78919723965262,31.077879653073275,30.803293019390942,18.697629447534393,8.675247427785916,16.038014091835986,20.668449623240328,15.9140690396216,18.140476450188025,18.003157035144483,4.843432807491494,-0.9102139645059796,3.95312261010194,-0.4311017766926484,-6.040560868907371,-0.5875665679525284,-1.833136951804893,-11.89919657823808,-11.10231422928451,-8.45791412879143,-17.40094863733845,-20.27065475018003,-14.011488469320895,-17.060002666964976,-20.28960911444527,-11.998110951325152,-11.658207307899428,-21.416062828843465,-19.803818314051863,-15.237132275455597,-22.00654225572633,-23.58855816386648,-19.3239411927805,-29.042038897594313,-39.73945264891901,-33.510229662616496,-27.235053425761524,-26.005372234258274,-15.283938455145535,-8.731302038406595,-19.835218844251767,-27.046514429151387,-23.44563250760652,-25.53259807746313,-24.568595437067547,-10.396032831499937,-3.061562887237619,-6.353816695978254,-2.2717920728487937,0.7275555542883254,-8.227668760092518,-10.166523259449804,-2.7394643189817582,-6.463247117874549,-14.144864546186142,-13.212230236041089,-19.547445165870315,-32.54580783970467,-30.94740799124468,-24.557194673736316,-28.83490016859612,-28.392033558872974,-22.377947184331706,-29.72763613407122,-38.6179866499669,-33.19656793878226,-29.836608971891344,-30.692168766083295,-19.06855586190276,-8.342549251903844,-13.017433604831538,-15.395897182789948,-13.280738291335958,-22.696562921618437,-30.217228621797908,-22.725650121125696,-19.24639186538881,-22.603039139250406,-16.30613310026566,-13.181350619730992,-26.000893494116337,-33.62237165733801,-31.23605783590011,-36.31132097335245,-38.152960918352534,-26.202426328496742,-22.479956623557456,-29.512459082128924,-26.923479722359716,-23.450480070964417,-29.33908272476479,-25.21688712106403,-10.629469504562243,-6.442625336335391,-5.7383539174444795,1.4889003812881754,-0.5119823994751758,-8.233780931668214,-0.5770069499994532,9.985839861150122,6.423921050924386,3.21440955763899,1.3109677860516866,-14.360829418696284,-27.353377872447492,-22.23175685784063,-19.018923153937077,-22.453750366555102,-17.25398839302007,-16.25301514819573,-29.26950037535754,-32.631982279206625,-23.411360005655425,-23.144738319290283,-24.931393977404728,-18.507160430290305,-20.625940885593963,-27.825799193758566,-17.39136754847879,-2.151594276589509,-2.1018857649431517,-3.788042623974411,-4.696684620816755,-19.011606178755088,-29.99372368508193,-21.565762152685046,-14.868155001991976,-17.634876884097913,-14.34927804338524,-13.72339659411993,-24.727840136448524,-27.13504015120336,-19.066117915907206,-19.61422805526232,-19.67397399905086,-8.581480380372184,-4.799482548093266-8.533833089400975,-0.6204341016582262,7.7240147669014805,3.9119468844460226,5.834524248413927,13.219271711270128,7.526561138728635,2.991973947024328,14.429181624263391,21.450894644551273,19.09938000624402,23.816551660138913,24.286456533031355,10.267442594687488,3.874747163194166,7.693323756546513,1.5588056382307292,-5.225124144960791,-0.08256968474621695,1.0039180246226036,-1.1623216322193537,10.776483167446283,22.861367042655523,20.43272261321991,20.814584643340673,25.9534259537824,19.775928271048805,14.708066998890379,21.913499775488745,22.58200762056052,17.300572415134578,25.079672416892674,32.9156207469301,26.179207644968713,22.029640859127177,22.016278793712857,10.887200806211922,3.973827508862084,13.932212259977284,19.76925610762019,18.454199448290755,26.578300085031604,32.01345677734725,23.733315742599643,21.088909118525372,24.851291330924795,16.565920794806615,7.181537886267911,8.740421063629576,4.46597852579284,-4.1474451950432005,2.0187513676700357,9.759505530567962,4.023206981712695,1.6959259715636914,3.4934908452151734,-7.69550653599914,-17.176876033035807,-10.291691269667444,-6.422729093246465,-8.264635990733314,1.5183670565263965,10.143171314636778,4.411532617603125,3.2563070156354654,8.477692101030046,2.7943080709757857,-0.7725027766330286,10.261303599633491,15.376753320898473,10.928896554586949,14.010852130224594,15.289589373353998,6.386755601834069,6.804044253094529,14.95445407786476,9.75011546245491,1.7008519073813413,4.192414490108925,1.3525804162030965,-5.973445418732062,-0.17278654537304705,5.951827482545045,0.5877803952348946,2.6604542361577312,11.619886718660583,7.6527427223171625,1.5132295067973587,5.337137521524248,2.6947964170517817,-4.460751039357152,2.613878414685172,10.4189391934569,4.187159030898158,0.8071487230383869,1.7992909585121684,-8.53582699591481,-16.22038511442441,-7.9881419815274715,-2.6412560279884887,-3.0264502064715684,6.214662317662888,12.045759382554317,2.679899839898919,-2.4278466215065797,-0.08265770473391965,-5.110503281044105,-5.802728362745819,6.4806115595567,11.253718375373825,8.227349479953258,16.103070856911543,23.328848456127403,17.275609327700522,14.9547816645441,16.544344606303195,6.287192064678788,-1.0621237095253475,6.631891212954502,9.087350221209446,4.4992683424736555,10.345634546285458,14.236691338183595,4.327798033685061,0.9258527536466341,7.42743161406079,6.934787473088422,8.003265454094539,16.355999106502292,10.909291087102467,-3.8564550124768946,-1.2912820046962095,10.835415909329258,16.259079090825285,24.525892390729947,29.5979569413122,14.415219196960647,-2.3676712590651228,-3.3980830699391285,-6.025640027526307,-12.142136428308591,-5.913983700905865,-0.6374670405256584,-8.529885690675728,-10.649087517030193,-5.050516863078395,-8.681597743661552,-10.846440071945677,-1.1506227592324274,2.7579226926645477,3.0795543065288733,22.0954141053253,51.22652564338881,76.7800138850373,112.40747809845689,154.01947327933317,180.05007465180918,199.92005729839315,222.1111084652391,225.0085665642452,209.43266565746148,198.27351057032374,184.8077195458948,160.28719426000364,141.7386505993542,124.62929237459758,88.85102727574073,49.80948640941594,23.375356890833217,-7.161659763567048,-40.82598131773142,-59.13851097299121,-74.85800009425384,-100.13119290364102,-116.6854808375061,-125.61628201299955,-145.73760619743229,-164.14173422997416,-168.61001706451546,-177.91214198526282,-191.62278817725397,-190.95227959669916,-188.6583290830124,-197.86525016608948,-200.7837655320106,-197.75095847966963,-206.07785607946312,-210.9991755101076,-199.45467665580964,-190.98956078920656,-186.61051839472955,-169.74468646353324,-155.73413420658292,-158.50573434199057,-157.78448814602208,-149.65597375182188,-149.34302523365747,-143.74268295969858,-123.0671609495391,-109.1295488002736,-103.4626712346133,-88.61009221220706,-77.4117394606178,-80.81834528107902,-77.97206646012687,-66.6556956477134,-64.17208213093896,-59.59776807416805,-43.82951295488961,-36.43735757372218,-35.57962174944798,-22.00141640966544,-8.964179578956733,-8.67569473317812,-2.305908499097036,10.075399594406948,11.199375693866866,13.662098191415911,27.4422581119602,33.50010171075672,33.79156577200256,46.219362307990366,56.663187332821515,53.63362619449404,56.05996101316811,63.49037254427933,59.09423494012782,56.33414571441676,66.42182686682564,70.58316135887559,68.74104548729511,77.0422684378295,82.0604140240003,74.5085390955077,75.5356765737622,84.37175995785468,80.76200061206451,75.06222066390544,78.48365460382799,75.19426136903097,68.41449212464038,75.38531690531067,80.93510122237684,72.56361525245755,69.72156508160033,72.91049807931056,64.67504691356149,58.06317886351505,64.94420986600223,66.91523713183726,64.06513509333968,72.09184509071903,75.53720194235106,63.855198398882024,59.61520811497669,64.2160904134185,59.381444007551124,56.55135781133746,64.3703652769872,62.84315730775366,55.0283651570043,61.11546692669853,67.90850170688444,63.16538561499319,64.52867269408034,69.86099129391432,61.971194125657064,55.501280682063665,61.29787209217148,60.076673346598184,53.45803504196478,58.7005319059065,61.50237999287589,50.639090377677505,44.444566186454566,42.02928222628387,28.93715570809277,21.633798834126942,30.33970051820472,32.90234251816253,27.43123890122215,30.354127250247238,30.25135199545526,19.696391070191673,18.47176312267712,22.97639699769784,13.472562875188304,3.6352858122042706,6.368212810704268,5.276980857661332,2.136921809429309,12.037963463554078,18.93956161903096,11.5200561531447,9.959237146965371,14.69437143346977,9.011348112872433,5.614489439296778,13.007326443432849,10.841129001335705,1.6621054093408674,5.500760427443812,11.044310998515138,7.523269852136583,10.780266579896002,16.284563986429994,6.632108691041401,-1.4608912701516013,6.0654614685343,10.603915611366709,9.625450886589924,15.046096882384902,11.044586952240309,-9.599734916751757,-21.159873285479502,-20.426058312549536,-25.67203218363274,-27.61195907837905,-19.62491496288539,-21.798022159327008,-30.790462385451665,-26.374427991960246,-20.049905584265183,-22.431265500856878,-17.0079799847227,-8.11183678977967,-15.595970332236833,-26.615009156822783,-27.058042097869283,-30.468417219526273,-33.307789688363755,-20.455754770644056,-9.67901043191354,-14.501620036198231,-15.875109594172061,-13.085719469753972,-20.981269781878538,-24.856108352254886,-16.419399630630558,-17.463933679322405,-25.977164783009172,-23.079596374373295,-21.456246978838156,-29.212864421119306,-26.220699248957963,-17.138682026988054,-22.340191538087726,-28.180407006573432,-23.83305676519302,-27.39306073520893,-35.089445213309936,-28.810976274550917,-23.852184975737632,-32.07203699070834,-33.69768137073287,-28.754784666164745,-34.53757931367213,-38.859055804773625,-32.55930053888537,-33.758195588466094,-38.768788799838454,-29.802572763424468,-21.945766055792628,-27.945097963885026,-30.627851048052435,-29.67395827344854,-37.736187827159426,-39.945897081827844,-29.420781812813487,-27.633068775496675,-32.20108939805066,-24.65923507259952,-17.60336610290253,-20.823786714930378,-17.729067101302505,-12.867932202129385,-22.2983943356845,-29.309710128563104,-22.748104575699408,-21.03408756803826,-21.902152023383177,-10.303021233637676,-2.377750166992538,-8.180341119454289,-8.423677131796934,-4.703361571379659,-11.952060997214344,-14.756755042270516,-4.943053815912935,-3.577165484416969,-8.376636190064975,-2.277924686612664,-0.20026704247478327,-11.508466070150465,-16.117324641596152,-16.309926666595388,-28.615871003433917,-37.74325912313763,-33.698689276956244,-35.35613641650273-39.479684261280624,-29.494131888114094,-21.536193738972973,-26.477015242447127,-24.948846339170288,-18.230404971918663,-22.020952635672494,-22.12141224335097,-10.121781308587623,-5.572284455174869,-5.57535884879702,5.973261205583308,12.930648217008384,5.413769197970277,4.123418821380261,8.056102677580206,0.7663595224006712,-4.184265879593931,1.3501997317730767,-1.5799158871674046,-7.985306203169303,0.9530858264330782,10.268388964311555,8.48152738700713,13.481791375401524,21.972096321797178,16.1255421675167,10.253830280750647,14.98344280233221,12.343955869717716,6.3074572316909645,14.526447300427652,21.265630560568674,14.85285731587092,13.708381646025899,16.295055494980012,7.701476243976207,3.1427557350881234,9.881676206356563,5.770915789553682,-6.909446812601669,-9.55672066375178,-12.940061268197462,-21.65866885064572,-15.633850643404198,-2.165520139573613,-2.878346902480873,-5.511815941197762,-1.1973744089591074,-6.4909984347206064,-13.60044487580026,-3.2835953235807995,8.149605435068901,7.517670041235442,10.774637847530801,14.958749525817595,6.194990560155594,2.139842816454646,12.351722715954173,15.055311172618538,10.545058652148859,15.350913436703518,17.511776294758622,10.480453482304934,12.457568510042243,17.95412335746996,10.504220071537615,6.175653859809856,14.131548291262513,15.07256225144117,11.2281750979527,17.13237104572265,19.09027759967516,11.986418447331225,15.419656305628463,23.475651678074108,18.051751847316375,13.682520605304703,19.603934915131486,17.891913157718783,12.970327106862749,20.740950219814227,25.29457729555474,17.88569369827935,17.20466392463033,18.30240231204144,4.241731268202909,-8.277137160837533,-7.58293843231702,-11.067360898581928,-15.356822309729061,-5.7271215057992615,0.41386760599417816,-6.401106854171368,-5.871736018253216,-0.781226396104215,-7.4201667101150175,-10.738723490323522,-2.5184682246315058,-2.1080175982509752,-4.885385107276231,6.201858113014531,15.163747064076109,12.071656028174466,14.991795650644146,18.86372079252539,7.020466325161854,-3.335289122974878,-0.39233100030312507,-1.1515244900612356,-2.363837812675917,9.76342262563903,17.47455617713137,10.65820997482261,9.883360024858819,15.907104561709566,16.489230791110664,27.694049803335822,55.10015280500683,76.05704956789208,94.50222017420137,128.28516152788956,162.77465870857066,188.30408814716634,217.82759368348445,238.6202053870841,231.316958831158,215.01958968221547,202.84823142383033,178.5013755576901,148.33383712393768,130.7180543311946,110.79272063482077,79.02546356315698,54.57738542468644,34.70087515474115,3.25512590690491,-24.523328432011112,-39.73894355299446,-62.468089481835804,-89.90810848066141,-104.45871515718048,-119.0940327443159,-141.8921443246652,-154.22217394763828,-160.0112841107441,-175.84146794277456,-186.94568816723014,-185.83399936240465,-192.22759376565097,-200.1048615676615,-191.71303867197946,-183.96015642611087,-186.30871304981173,-179.6380071902673,-169.22028989951667,-172.52155415498328,-174.39665716906754,-165.73458893059325,-162.81727507212725,-158.13364709805543,-136.2380807417919,-117.79797165677536,-116.1075024353087,-112.40776545436273,-106.36745405980113,-109.79990175948127,-106.95805051210161,-91.49582892729353,-84.32173440542057,-81.7851140552518,-67.41040663231438,-57.41207346406138,-61.16888288198829,-58.295928667153234,-49.88183425213757,-49.95369571314022,-44.026266784045774,-27.440126632137925,-22.102140875223824,-23.338208529827334,-12.550047298486012,-3.5093590961214294,-4.916260860271277,1.121300578765271,9.937105336498632,6.607883908148747,8.688191669021013,23.456985729386325,28.487414744787664,27.689195876323076,38.85023806947795,47.61062106935311,46.801199468550806,54.36850323433211,62.79137977890634,55.40085675369545,50.90153929206778,60.516274233652055,64.8312977786147,66.51910101027904,81.20470133463736,91.92522001034357,88.04249803929875,88.41184878311059,89.931118807198,77.82990048054899,69.67251379153524,74.77778369901432,73.28913327845193,68.67423887882147,77.23463123964522,83.98092800866065,79.43331218024015,80.15161619909523,81.44577668575774,69.94226272338571,64.75358558706674,74.67193435887685,77.82403862107643,76.69683092673897,86.89058550285755,92.30887386902182,85.652316557266,87.0675116718273,91.39235364664438,82.49600930574172,77.50362939585753,83.49005542565176,77.30292679744166,61.77224080418723,55.811308754483164,49.27202713080588,39.82870431162444,47.936497711149784,63.21421896934462,61.83635835918682,56.4921573822742,56.84987585907611,47.76902173044912,38.086440623696646,44.29086881664892,48.169726833948495,41.12644225458123,42.91215369295329,47.90243465735032,39.41387528032277,34.122391070085804,40.00198226588436,37.1885465287275,31.04678216529004,37.743842380130104,39.425231377535596,27.167690893262417,21.71977360300703,20.161349324927336,8.137118177313402,2.2631161572402574,8.499654394648084,5.5000949824554635,-1.2780219326994464,5.867455181281036,12.01712360549531,9.156533689843531,14.112909658143174,20.171950033820487,13.301728545132598,10.966509679326265,18.8537042006005,16.11864135041872,8.370036832378485,12.852737198778861,15.26026091367518,8.427043435336053,9.512446257518311,11.082128004516058,-2.626394300759638,-13.613673496834501,-13.222835125792184,-20.639585895593605,-30.372596100841463,-26.227778530383727,-24.058790604899333,-31.203853909575926,-29.108257387556634,-24.005423078307995,-31.79922236038918,-36.09607344086473,-29.978066100663156,-33.04593879950244,-39.353413743702326,-32.21837415737538,-26.502123744241405,-28.533513737117495,-20.462596425690602,-10.759723920370007,-17.455696705367284,-24.445493423722663,-22.096775313597036,-26.323057931171185,-30.18414038832505,-19.93492632795575,-15.332782560456836,-25.05996317929072,-28.864292090655134,-30.40155400992198,-43.03150091858084,-49.11951852399363,-42.46646111818877,-43.71515741764223,-47.62722635054894,-38.86843162541228,-34.245253287209906,-40.692985466604,-38.78944364488103,-34.67091604439548,-44.33606336870062,-50.76749143256555,-45.64011719685985,-47.2022719515965,-49.58537948063167,-39.00875815719045,-34.252459593504064,-42.227751462418205,-42.24772310496033,-38.86865544214292,-46.37950734403047,-48.83489102692319,-41.59217670100095,-44.23855485012689,-49.21792654999217,-40.37367683170799,-34.67030617965804,-39.486681615955604,-35.834427990363096,-28.825416903667836,-32.82334023347992,-31.56585086811118,-19.693089666641157,-17.568979233810474,-18.930058469252135,-7.493939438583615,-0.07858718617868043,-4.301868433918271,-1.355264456190393,2.7518751476756362,-6.85061905626267,-12.761451298456656,-7.8518425023335325,-11.652372508476422,-18.4200960804461,-12.784496888062531,-12.06221883232565,-23.099540092786174,-24.7198716446509,-22.0896222637926,-32.27190960146566,-39.066462369216886,-33.35309452610189,-31.62166055349467,-27.13498215951542,-7.098088300010527,6.668863408334284,3.732906459961052,5.09324607754358,9.308738839921817,3.366478596962981,3.1785225167903177,13.288752239578717,12.855355106297546,7.650621516356318,13.58846757524887,14.988578184306302,5.830583572315038,5.476009331633547,7.230445644726157,-4.8211798245391915,-13.25647850313853,-10.9188889646603,-17.72510589286141,-26.956713655558566,-20.869115660080244,-13.79546400299667,-11.408252672936138,2.918230978406763,16.59470378156552,9.929381040188314,1.899441735616862,4.837586279298024,3.0237484181910075,1.611564481162524,12.550532695307064,17.16693095652422,9.46472502040395,10.636811306985475,15.515095224866968,7.358314278467496,0.7997554219454481,2.0826998930755813,-7.231844240669085-19.483809014369626,-16.974246195404568,-15.329276740408694,-22.688195055137104,-21.50000366482683,-17.917922487935098,-25.928997614837648,-27.34395322294541,-15.566640606735117,-11.316460844580448,-9.56734954143603,4.768192177632819,14.885604280456489,13.395860998731752,18.65803381267447,25.145221618454162,19.387837470007128,18.818905620148605,27.90740265659153,24.333886830511034,14.78581951314529,18.508871691259774,22.474886991198158,21.01724010630684,29.532639019706814,35.92830786014634,23.24292728573016,11.713213633088445,12.061283186660543,6.814298278112924,2.184626794799446,12.174285163334286,18.536635922394805,14.607328440873179,18.951551757157,23.120912179865158,11.67216732856679,4.286477127406991,9.958828185684858,9.125531677293115,5.763295880155096,12.94991995327536,14.29441089287651,6.269374251592609,10.09057819821022,18.51404442750186,14.400038232337891,12.781533766170613,18.436275729369818,12.308344155567553,2.9743810775442814,7.682248969301511,11.41678375234377,8.690490386291177,15.756218695758154,22.077303546629842,13.189477051485834,9.129980100863795,17.012386760193106,16.844001684521135,13.615243997272874,20.57715677774647,21.306563708305127,12.690593255060712,15.991772118037712,23.5303816633631,18.24733165880918,15.655870089959835,20.40188487239685,12.96231150157429,2.296374144203,6.7151303891504845,11.417754560617134,10.18453547981158,18.928022229797634,26.39061838021476,15.293664272278683,3.7448670438315332,1.2618487213910892,-7.6879869586695335,-14.442580682738512,-4.363492527626562,3.5950345102801236,1.1369902382532033,5.760923624602718,9.932757794846184,-0.6611608045585324,-7.101305726407749,-1.738183730180911,-3.4333098182080812,-6.225862268229897,3.310825039816159,7.001861653638754,-1.367858970912688,-2.1308999770051673,-0.48921383234000326,-9.790013189294038,-13.682645095678359,-8.00083927797914,-12.393121613084004,-19.746283053519726,-15.140088731788964,-14.747672929997583,-21.965272773897933,-15.633752797222925,-2.819197339838612,-0.004806554150068587,5.638380657636527,14.036403579789399,5.229156075501123,-7.146816826761504,-0.735029720371275,9.3483832715895,13.644856321124717,24.324557231318586,27.773824742525843,8.782028179889052,-8.99466506487826,-11.871505714638644,-14.400253969765238,-11.154315550943075,5.510227609385709,11.498162295492003,-0.2967792897194146,-6.002458890937565,-5.691435183426751,-10.000176046923558,-3.8510261083608786,12.112758004197914,14.6027005972143,11.229147784760809,18.743507403893062,21.411240831394554,13.845539666648293,14.62970340351201,18.21633340284253,13.423851054533937,19.327393748461,41.13773083422399,56.97467355439439,71.27340028097713,101.04874542898138,132.71973487030297,158.37505277934684,190.44935357633003,214.80708075929564,212.0085665510109,201.43701366435153,197.19251141929263,185.62510381712852,172.55500682072267,168.57073718989898,152.57237580963695,118.47272384457757,89.57442611617539,63.1261490124577,26.009735592489932,-5.690069762235464,-29.351486494342087,-65.8454774239865,-106.1219419020568,-131.08158815223044,-154.17404811089705,-180.32090642667617,-192.12563785481672,-199.87996839803003,-221.15537138470026,-238.7017418637112,-243.9593447633998,-252.4003488292031,-255.95764860794446,-242.27980116332836,-230.25682155819428,-225.58868884126485,-209.28571924922497,-188.88323765162772,-179.63182781385132,-166.65236439219814,-148.5136930848446,-144.89444369037753,-144.08656600336468,-128.80030663250187,-117.38898404888694,-115.95372899436686,-106.16399576851254,-97.52299374309146,-103.15944922099372,-100.7847016346289,-84.31664509365982,-76.45853641229824,-72.2622496809735,-57.93312818337155,-49.82686211923625,-50.9909795052623,-41.24533772797453,-29.629650790245286,-33.230256701257396,-34.053905382876735,-23.88293643026943,-20.763202257546965,-17.594919478748523,-1.0279874687521708,10.363757284719307,11.840714669521772,22.874454488832416,34.70033952599214,31.841099431691582,31.52864349102653,38.9296879151002,35.262923301882864,29.462694785297934,38.020664486212276,45.45448789468934,47.828903891801446,62.56116903096368,76.85211611904786,72.37182709186561,67.27092674070332,69.78694975208764,64.47949874763556,61.61566777787523,74.69889368936823,83.30387796354614,80.01928873023992,83.32084351387,87.2722914104357,80.1421622636669,80.47853149035107,91.20770915529192,89.91574975664881,84.06232602852442,90.07994642280414,92.39893195449642,87.05023318285436,91.26126405653469,93.88894154237565,81.25793526761254,74.75007799084516,80.8941108489069,79.63246138162559,76.3822143337333,81.9185959572518,77.87203902054922,62.96247836555878,60.11066581978653,61.67726223703841,51.03980857733195,44.01252637319294,45.94020896506162,40.47456450074767,38.3519692833593,52.66999883407776,60.74218389733547,54.64615569863403,55.11127012500618,57.01454226123525,47.29892589816294,42.839434754342555,46.94836250979345,40.556437110447895,33.1020422795817,39.533408155877765,41.45538348498326,33.16338618965377,34.28813427970444,38.41336013194987,31.9057696473927,30.971298490943866,38.25003648732134,34.18375051164232,27.498290201062574,32.60785417933524,32.74706306604155,24.901283522286377,28.20884989990465,33.14610750484336,24.127528715101143,17.457702628927837,17.555306029960377,7.190221039465273,-3.606095176515243,-0.44572787770583666,-0.9897805511333675,-8.578951452941286,-3.3758458875842376,4.753644767657418,-1.5183140094417156,-7.024381539568042,-7.279090794401645,-18.18632198305434,-27.38908982049395,-19.564727454056744,-14.457042670665523,-19.098522533898414,-16.123646429591524,-13.738214061072657,-23.722044903021857,-26.955889247786967,-20.219806349784903,-22.55385408426772,-23.65187381561543,-9.902069532262704,-1.0856684422587048,-2.3628471839871588,3.278743320758082,5.630650693751889,-6.556367854592428,-11.999953705980174,-6.518768757113268,-10.150737472080335,-14.375316383932287,-6.594475772477481,-6.644062630842789,-17.47219007399095,-16.92330190574438,-12.310814440763588,-18.393367576349075,-19.967717618063187,-16.077695618724224,-25.688012043614137,-36.170478605210945,-29.718993463428838,-23.799033760464578,-25.587936044787504,-19.77262346851097,-16.173261768159673,-26.97549516885421,-31.944886602601986,-26.277885031282473,-29.779618237115837,-34.913185043237284,-28.999250450510715,-29.62290012780123,-38.392965079437474,-34.57102009184181,-27.83823135431587,-34.21739103878208,-37.6279712980307,-35.03436242818942,-43.68283790869303,-50.68843015073373,-40.16432702439016,-31.2105887374399,-29.644750943029234,-18.409231361466166,-7.935010883556276,-12.480913475979545,-14.532277549098673,-10.573146034651092,-17.949918110195007,-24.84414349362823,-15.841860162580303,-8.831868452619183,-9.560387113757656,-2.904220578926167,0.6873162110028711,-10.754353836249205,-17.63087111020215,-14.534874490720675,-19.08051649984483,-23.14553801599179,-14.411004887816164,-11.346484844752538,-17.977590734792596,-15.506573342208565,-13.135394724461717,-24.67965464899128,-31.50954848103003,-28.757598596464135,-33.7459933392112,-35.936454301748455,-22.541552971428885,-14.684917346141935,-18.793390924223093,-16.923799699013607,-16.180336310760534,-26.047307198891357,-26.509485917386733,-16.06495818128238,-17.95512342507109,-26.210330284087487,-25.149112194639777,-27.061475597671766,-32.08166332488008,-21.62876000140787,-8.589552226641151,-12.068129166783384,-16.19522729949811,-15.044948354814762,-23.58179630041086,-29.25120999836547,-17.35718358620979,-7.161787978498811,-4.767330774458631,5.278689410277837,11.880424958679285,2.6421152872583993,-3.178269002783109,-1.6087735760968633,-9.589052158781985-16.264151791689294,-8.18854893030322,-3.248173563487378,-4.6059539235198255,5.486532593427206,15.072077481204488,8.354495645023372,3.637563467667535,5.718525383323158,-2.7941326068751096,-10.508596556156164,-3.133349513316545,0.18765470051072958,-4.837355187455815,0.3970477452112817,6.540159814824182,0.11564831984282131,-0.859747030657054,7.063513093159331,4.8635060453481875,0.5821349594459047,6.277014263846235,4.64188744749841,-5.204175138301611,-2.7458977763100436,3.048821162197882,-1.7006063953492214,-0.5778432156207507,7.588669992425676,3.2719752958997916,-3.005148039109492,3.6144033281748595,6.071462438004227,1.8621809826025388,9.054501025961887,16.26008057499563,9.42383366699075,7.729255200903328,15.524424652400285,13.727589543873606,10.375285017313212,17.69786793950597,18.196991489669813,10.963279781262049,16.112848141652883,23.597611028489904,19.186044541458628,19.447497297654127,25.939180236643878,20.4982185345441,13.77711115993571,18.41208476345938,16.71542217431814,8.597149561475307,14.326255137068724,22.795955336024825,18.519632722893,17.65804649255233,22.24017315750609,15.023503009380633,8.074147709275744,14.510099664419386,14.316898922166013,4.196408196918754,4.7299248259541615,8.558454527189102,2.669671301956104,2.156881368845663,6.341754725128178,-3.9877735913089585,-16.10776214526475,-12.512083349827938,-8.51696593065539,-8.167749338795913,2.078894325915331,7.710163587416344,-3.7050911956809234,-8.893902946414109,-0.8563391948112677,1.861384052403703,5.132158867126726,17.370983622373483,19.608276143059612,12.174396173507162,16.427135904824798,22.42942901793206,16.04481427505187,15.67899901071102,24.90121212480904,24.803041532608063,23.7862851416034,32.972681721505154,33.44738075229994,24.711534736626042,27.81493111079491,32.18220075994979,23.810057869978213,21.38021358831004,26.96373516395002,20.981293938979093,13.989822113719935,18.915856072903896,16.15400014558737,3.4120819662197515,0.7218080891163652,-0.8361595201700189,-11.752280713763534,-12.350166306409122,-3.2700134515469856,-7.0635814764933125,-13.568587844875335,-7.208220233125506,-3.7046373702003113,-4.562921851477332,5.394220563278693,10.612518554303866,-1.6286153887983685,-7.962070871260218,-3.182831831708265,-6.223977752936602,-8.01625548784134,1.8213724667128552,3.4936197383040772,-2.793611502923961,4.16099102518464,12.878540131510485,7.751047089638719,5.444727134272662,8.28587582782174,-0.022927287639652683,-5.74158566135305,4.97836346654241,11.085866823007102,7.182470701379147,11.557035943869543,16.077184681791625,9.33387518213447,7.549541827563807,9.69685362705743,-2.247299585383165,-13.331282636061244,-6.255607448073947,1.6855166703546722,5.6712111230693205,20.287986450393277,33.484310820607,35.8994979970517,50.91756572115666,81.70566658032924,107.82935742034361,136.6851461441605,175.91246063318087,202.0428361542744,209.5794753151941,214.98356233484432,208.47995961274617,182.1230722019099,160.24477223285714,147.4697892663017,123.61266488017353,95.1541343474353,72.22907719291553,40.45421400803616,5.1842450913321425,-13.307192496426563,-29.74595093105358,-60.59365468957189,-87.93581994582715,-107.04888238845965,-132.19435184931166,-151.83197661280386,-156.77008287876512,-167.1627522859096,-182.39441543743402,-181.63115422872738,-176.6800254262939,-183.47124747275373,-186.12235206753084,-183.55353713625095,-193.11961015342007,-201.25960792637665,-193.46636599928263,-188.52250223380292,-189.03113158423088,-177.39914704583768,-166.0276594198642,-168.95368512208714,-167.57073579631543,-158.44267414772747,-157.90067479707037,-153.30786928070165,-132.81648238345312,-118.98393439588884,-117.13223575594239,-108.81607460393673,-102.11029302429013,-106.08227836811113,-100.63578870881972,-85.66433766232186,-81.60212915356638,-77.32502343750936,-59.85265940908617,-48.16722285419996,-44.29380081281748,-30.353128857380177,-18.090160187037704,-20.21283784656694,-17.757887408774362,-8.230989429527735,-8.47143993823133,-6.239199746743649,9.800722478960893,18.845041594928016,18.990907687121087,29.74359616765039,40.37270826601361,37.533308523138984,38.539076977156796,45.24666748328835,41.90694473086788,41.39138066448414,54.35007121422937,59.47752406951227,55.05917253659499,61.468281760731955,69.89012699880722,68.22385211430839,71.80906916109336,78.21896346710551,69.03776784593796,58.68421548948017,62.23064963974948,62.55161997198205,59.42643155497664,70.72971651002666,82.59978718060324,79.93155843507317,79.66909846327117,82.45810073776272,71.47288139158312,62.20281704760624,70.65624064889714,78.50401702295112,81.03017378821096,91.52048054157608,96.43884214116852,85.33584390873972,79.86615897275584,84.10312222633848,80.5727797025956,77.64075392702084,85.04279989535688,85.13341050434109,76.91492994284499,77.66835823913927,77.4647887240771,66.40057424837238,63.966312705275435,71.47673813826663,69.37620521304609,65.67946238590285,70.15481904115352,65.28521699279852,52.65124004099215,52.40374784697276,53.55132145964155,42.79887468462664,37.45255874474968,38.784760116011604,29.994446047965646,24.18627051737137,33.81075040696877,37.88583499315652,33.16953105606752,38.930267675173816,44.528972857651,36.44518437331029,33.01509846385473,36.06354287891109,27.795244126543597,21.26752510585291,30.487699811070122,36.04393983695924,33.13119650806507,36.52417222106756,35.10400178049548,19.805648994767587,11.981571793164168,14.832578142299141,10.66826310666746,8.021070792892264,15.2781286168629,13.546912323668906,4.189253451900943,6.809320851986762,10.264920187082923,3.519423044120175,5.098013215490012,12.96943267843458,6.2545781523354,-3.0665907514384996,-1.2636964798676171,-5.219890388541719,-13.532101276048687,-6.939206899550461,1.2490290662791477,-3.7903753463147702,-5.5809639856318976,-4.558268706387084,-17.533044314184934,-28.549625562962625,-22.405231520704724,-18.01542320383261,-19.607801944487004,-13.53451806011141,-12.041476945547293,-22.982524031047483,-24.725319415465517,-17.660369055716153,-22.367135373335632,-27.959653742577515,-21.395466962693177,-19.678831639207427,-23.52257467228592,-16.45103579391746,-11.564751493899745,-20.761446158825333,-24.25163278081991,-20.796948027762543,-29.072353994118476,-36.832378983975474,-29.92326319437579,-25.70655522817497,-26.529916255616865,-17.37640403048651,-13.097414399832385,-26.619529342087777,-35.4988160240978,-34.14261577195329,-39.29895827126063,-40.308829319326506,-28.13324985484081,-24.992238894966324,-32.222703309123126,-29.420834830125038,-27.096484993688016,-37.59651548766319,-41.431735399873396,-36.087228773278156,-39.236402246473354,-40.52736012511295,-30.527550835407816,-29.102932363756036,-35.3635442268198,-28.460187810651117,-18.77228126765821,-20.00556958935869,-17.430055179615874,-12.253056484537604,-20.870516213687118,-29.175501676465093,-24.43348974247312,-24.461401298757906,-28.697118305729997,-19.755986780638,-11.537414461864168,-17.407800534762487,-20.044060499838217,-18.51621965730975,-27.143891150494827,-31.096648707908333,-20.29977651832226,-16.8765445164386,-22.89648767408071,-20.063940951149068,-18.09406376694851,-25.778238968682096,-24.92102214707639,-18.456222816141732,-25.870569084424513,-34.05420603088606,-29.252113330110358,-28.11382285290855,-30.973687940310136,-22.598542243493583,-17.16725192421616,-25.205861685157107,-25.746642090184217,-17.39841393370847,-18.439594668072342,-19.063320725258393,-10.774832570501278,-12.399870406165052,-20.50444175922896,-14.236192396262172,-6.839492252953176,-12.415892207459297,-13.556854383123397,-10.025648966678883,-17.14739957893245-19.464156409974745,-6.512622247428517,-1.4830135893966143,-6.676257975787912,-2.7327185173053845,0.29776980645898843,-7.488703249125766,-6.751254768639344,0.8359777478816786,-5.490916289484767,-13.973733678933858,-10.833730030133403,-12.570861183055332,-18.28522811957248,-9.684014735653172,-0.30155422035865653,-4.636616394924279,-5.647854257531321,-2.3140004317415137,-10.473647518411598,-16.14852174858062,-6.696034702592234,-1.1796192485176722,-2.073804790036371,6.256561804876453,11.472797633854086,4.260134760403458,5.315375681120397,13.49031513516109,8.406841087539076,1.8670054567486947,6.715748245518128,5.93102545006229,0.21125950875745847,6.245896854338355,9.239007102219558,-3.031116919746858,-8.65866930675479,-4.0621560384611755,-8.035559010915339,-11.75736542341286,-5.3325814844306025,-7.3505272253921055,-16.422798623489612,-11.899568045741201,-4.922717127556572,-8.028719752066948,-3.8766399490111128,6.3785086792962336,4.83953973849382,4.061534996298288,14.581298628706211,17.39852509486738,13.177667946897207,19.560631506881702,23.8714973752693,15.656784533301229,15.028896649981672,22.44502857209435,19.625242041513296,17.746804563372322,27.171919091882415,29.3795428227664,25.544249944057434,34.03711750806879,41.27896675354981,33.466502963928846,28.27313545799207,27.331465468025364,16.019886898111103,9.212290655657899,17.686325498338952,19.43415297845551,11.92147933619212,12.379241088807342,10.289627842419659,-1.8208129296525177,-2.8864826967658415,5.367085765685362,1.7314929774454402,-3.3876890863757407,1.7848287902953919,0.8227668996185846,-3.3598586011687557,7.726522205403534,19.282916124435054,17.285955405368696,19.48095137576995,25.281429217132967,17.043204664490936,8.523893347041525,11.953930914563092,9.257049827976866,2.1324328219129365,8.759769044034927,15.581108177979399,10.584680469085665,11.333467484378183,15.61769615982713,6.082542036124028,-1.4950649663944708,6.315178908768744,10.713543399796944,10.502249350222009,19.577016302549346,22.43874289754369,10.455268175962615,7.269328875895259,14.147226454576213,11.667513583893122,9.72509495433721,17.151336498912638,14.534779004608696,3.8418160371234054,5.332043582379337,8.423626292818936,2.774345701967973,6.492756644832339,16.690552499353963,12.050040704307927,3.540369519782335,4.521638542952633,-0.045349115778949844,-7.280479902494401,0.830425404626939,10.915664284661329,12.911292663963213,27.364139171649548,53.19710320299629,71.34890869459555,93.40347760167163,129.8328186204939,162.75428675320077,190.6016491090892,223.5102022696948,241.0150143134959,228.90228984167845,210.11236413520382,193.32888001959674,168.00107167211658,147.87403725871948,139.86551734582514,120.46124733903605,88.29168206082139,61.824892362347704,32.94333926272152,-3.4412430317591074,-27.569998203548135,-44.10637027560531,-74.91290984102821,-107.90321046980986,-128.88583225367103,-151.81832012595592,-172.8938674868085,-176.82139410949839,-181.30906842203035,-196.83490382621355,-200.69627582711755,-193.91417357413775,-197.76549361204962,-202.12799446193463,-196.8254029099567,-197.9633195373582,-200.1662200712907,-185.10117441899087,-169.30297749012328,-167.01812185912968,-160.61512108480508,-150.68683092337014,-153.76208463187714,-155.53761968555546,-143.9030742305196,-136.47910370896818,-131.90627946909558,-114.37838168244828,-99.70656446472604,-99.53444672403475,-94.09194594544913,-82.67141795348647,-80.86824836973479,-75.83361355655101,-59.254601010789315,-50.841786150170094,-48.19792934421322,-33.43843667408137,-20.936942969859878,-23.086355813965874,-22.421828697831604,-18.82868744998972,-25.334113224499227,-24.999404352828783,-8.27478094012796,1.9017688310308811,5.16656034386955,19.3993306246833,30.778994473831677,28.54300729666086,31.510251805905014,37.811707911370284,31.928788193410767,30.53484543647121,44.1928650259527,51.246007160064444,51.512962871207,62.63340228729984,71.37816559557817,67.02277140488093,68.07665257004732,72.3730767291751,62.7455273600923,54.858261355817774,61.048653996713504,61.88763206711626,57.55553311755583,64.58232556760225,68.52448724559672,59.123734233442754,57.84222882720636,64.9872800657361,61.8333622770801,59.75574898021346,67.95333543396548,66.77091165739463,58.70643500864732,63.88361180879683,69.77860365758026,64.14083954828587,64.66212814842508,69.94527226641704,62.41729069439981,55.49083203650937,60.318347113840005,58.707810129070495,52.107824155147576,56.633871708012485,57.25398704780062,44.18122799232434,39.570590873445965,44.8499800465743,42.533572626932425,43.07132367085032,53.23468578865489,52.46725526536019,44.34486936223829,49.75269108629235,55.8607185703769,50.66807017464777,52.83102577936113,61.36283725323449,57.44376076511644,52.15280115317784,55.63196965705505,50.52060171291875,40.03104821711973,43.35345301849677,48.6011599953505,44.76061900333087,47.90278233666868,54.760243195008734,47.35541011318345,37.60731707261115,36.614031550049766,30.125589297150533,22.914409551712907,31.252263413971995,39.40713719741,34.64674186408553,32.91091290738346,31.711787805472902,15.724966273507029,1.4831760649936885,2.7782016038181836,3.0196899124736567,2.2887648920057204,12.9301839079593,16.868971554870733,3.2742194055881404,-5.814743505210684,-7.792925144780199,-16.712643306944788,-19.168995590822117,-8.59335741865173,-6.872081481706631,-12.249476496090107,-6.958629739424697,-3.5271885126925717,-9.696634574368616,-6.876806460608108,-0.34486497250876047,-8.60650342138659,-16.125035111616672,-10.670954687666718,-9.774005096455129,-11.835977621926396,-2.5302231145256697,1.1018897537826378,-11.130279503589431,-16.311741331300468,-12.56943035399572,-17.615191486551513,-21.076093079689528,-15.656609290982349,-20.550443226809936,-30.836871605029096,-25.540926574397812,-18.285737814399212,-22.74904609170823,-23.696605733027507,-23.59883701206597,-36.19239110377826,-44.35729832352971,-38.29447529252599,-38.878556509158926,-45.33817669449017,-40.35343430844952,-36.191818160313126,-41.31648594983435,-37.00420407770042,-27.452553311989703,-31.658239196342343,-35.52173707144379,-28.675205616519946,-30.78112630357814,-39.184667408276304,-34.11880838582373,-27.25420124634997,-28.44958735672442,-20.749814555359507,-10.041990138863003,-16.23133147115864,-24.673583674024318,-22.528751224133828,-24.89674544628341,-26.94046981814382,-12.763477730757367,0.383034317378697,-0.7191655259142817,0.07238006813051956,0.46229659303521564,-12.872627562907415,-20.914434682449166,-11.868797366791206,-7.195097423429389,-7.998915572936289,0.5160827984088314,2.819016016583171,-9.659219504798001,-14.404405958669525,-12.233388401640681,-21.022888027921898,-26.66252402000789,-18.942180392113606,-18.363444141161533,-24.441656239099967,-19.92819927400846,-17.347042726707233,-25.190750117986827,-23.91478922660709,-16.495868150397953,-21.997664243704907,-28.286628281043733,-25.645790332842758,-31.086649411398273,-40.272616615434245,-35.25746449853226,-29.02232396528771,-31.175210097690254,-25.774437598604962,-19.090130901764194,-28.528101725177965,-36.897126171021284,-30.862505760975314,-27.149819437904537,-24.78296225058187,-12.236997955827496,-7.580938877222909,-18.752960577498897,-22.205774429274065,-16.722136972792352,-18.109629037223645,-15.455416258532995,-4.434370387014146,-5.9911904535379605,-15.852305297440225,-13.702463387930077,-9.971511508077597,-12.936777965773711,-6.179146823247445,3.4903725508536017,-3.9783482150031984,-14.083955597189552,-13.488092242725559,-17.346928534878842,-21.673528908509958,-11.09938499534577,-3.762173254374232,-11.23413192270792,-12.218778463202383,-6.9132288937644315,-12.281231159914341-14.867549590898307,-6.045492682608363,-5.291526594758049,-8.977929471798252,1.0786301598839678,10.101027663287283,6.176284918250053,6.329176078063227,7.893447471533895,-4.657061481862577,-14.5489278786447,-9.320893536949814,-6.8970184288325,-6.788559194247221,4.560995680155941,11.849698750656392,6.943707679549842,10.337285581584233,19.67135677015819,16.327610120823177,12.23104467294373,17.19984208944225,15.385090778338892,12.38441916588457,24.7418890701984,35.28020498119745,32.01436169180212,32.09602375427107,32.31396181166463,17.987081307494165,6.798175495921729,10.416156823702119,9.933332411671554,6.695492424250493,15.14482853155865,18.64197323844029,8.830974300317495,8.188227961732526,14.237910746211044,7.663907098112478,2.258361138853339,7.924757927257325,5.823351158794518,1.1651083452842221,13.242220958707023,24.93334114461917,22.439019299380313,24.419259099623353,28.753663574491583,18.68710959637065,10.846037591893316,15.68259509456168,12.39877518720672,4.710824853971594,12.202272885705966,19.812670984770996,15.058383378941013,14.598950154926984,15.484466979151776,3.307695902396898,-4.677120403511605,1.410530404986757,0.6371711773990991,-6.0675957634745155,-1.6720185776529222,1.9469008178665652,-2.268662872279554,3.9343593439080746,14.643770319603835,9.773851134474185,2.410447611107858,4.65567388064873,2.4299453370491917,1.1335901999215894,15.085324506238775,24.623511081940478,18.24516397017085,16.588120576557948,17.970858637777148,6.229209499900635,-2.85367054320462,1.1430995304799598,0.7346335002539657,0.02894659265703703,13.106976189393325,20.61349864497533,12.203448280839767,10.357425668062294,14.807875250697666,8.095803142837006,3.808623580422865,11.305195724659592,10.641103095408326,4.209758145912291,9.69690141840307,13.376200207639293,8.200940291373954,17.660785083795226,40.03068782377965,55.445329171897704,77.20295038791336,115.70142274530218,150.68625186608153,180.8995924847538,217.20044350692964,239.0568285943744,234.80335131502915,227.2964936808603,219.6848695732471,197.80405370197826,175.92630881509348,162.9304849232314,138.0098583613897,101.99366789615902,73.7146258251642,43.7094452451242,5.849054578644127,-19.30758918199747,-35.29112922672684,-63.337511839341104,-91.77696768932793,-109.00644667131004,-130.9972643813197,-152.91623733216358,-157.63786008041,-161.97511737893132,-177.30880924408248,-184.53085852952788,-186.05307947672327,-197.9740548720806,-205.49885054399238,-200.26421410406112,-201.71030955967635,-206.39053276093895,-197.87860024668277,-191.13559101886696,-195.03554842940878,-190.07308210317797,-178.39400219192297,-176.3925943410527,-171.28909258412423,-155.81651751877206,-149.19520844873261,-147.52983562135296,-133.3429878706367,-121.07476491516442,-120.16980502545427,-111.8642107429287,-98.91641828176081,-96.98526668052439,-91.79973069495078,-75.98358581359433,-68.70236354099052,-66.14334418974605,-52.53019030393456,-43.306354944665316,-46.81785129959053,-41.899409912121925,-29.104135203789106,-24.54268673687674,-16.749556157718217,-1.1709522152502112,2.2703875068525194,0.3090757955766834,12.60597500592129,24.413665949955995,24.58706857883782,29.885342760266912,37.932842993924965,35.94814288831874,40.145553907448324,56.627694860353444,62.47041264046166,59.71652814284131,67.42538589672913,74.34001459614149,72.02563006920627,77.39285329356449,84.47112127357444,75.54446568334136,67.36181784371033,71.41778697697988,69.17910587999678,63.881152777697295,72.02174954459309,78.12079927343649,72.79010678132316,75.5566731730172,83.04679421876874,77.6722398206883,74.03367493831476,81.2980182126973,79.26801208002678,71.03373367868069,74.97016457169002,77.5749726037769,70.0983210967763,71.48154227810197,76.87225645976947,66.82152609483003,55.1735955819621,53.34173724029006,45.91331489877524,39.3623726696925,51.031799130430045,63.23015840462007,62.78831438236189,66.79978358795245,72.74145855644726,65.75541022958046,62.04125838540393,70.2441968412333,69.17763109865507,61.18423455759195,63.93066664939796,64.77715846205786,56.97663946038322,60.15243698726557,69.33382832057282,65.00874754694502,58.77612126091,58.55784461119828,48.226937590370355,35.76083698907614,40.522968368950195,46.805420506324474,41.716324726602124,41.04731114577083,40.994792636285695,26.87768577440505,16.93140073822731,22.173699034078332,22.606305162299797,19.853237444843366,28.56050374696812,31.927634673996874,21.355417134644917,18.299474632051023,20.854641494480397,12.830930318632312,8.951651589788536,16.716249913618284,15.518845187259512,8.702609811468204,13.208815767607755,14.805030053506927,5.862132433230438,5.873318313299763,10.501601981115845,2.458168774568938,-3.2623712608209567,3.0681810210722076,3.2173965316045154,0.22868233821433281,8.352139537447428,10.872644902874413,0.23201265104247248,-2.4049943930463664,0.3049299636287399,-7.351548511287428,-11.440861592006975,-6.150772015552164,-11.178245569098843,-20.656398920461847,-16.581432372697062,-14.291027258056252,-23.301135202239685,-25.233071891657474,-24.233838368017665,-35.67393598703856,-42.1170457355638,-34.068759135270675,-32.3327809927056,-35.00039391976401,-27.040121005621742,-25.110327869059084,-37.34043626046602,-40.981228068247525,-36.492691434047934,-40.40350185884133,-40.13211064555907,-29.872295198687915,-30.591611061036893,-37.91822920401543,-33.32943356928599,-31.137735928155752,-39.65001370668182,-37.89340365408984,-28.46384310322619,-29.419007295413138,-28.92218723445126,-21.502592068177073,-26.487935679892924,-35.691639174436645,-28.42391198580351,-20.687733378349517,-24.422574908726936,-21.93911219378475,-16.671107018673936,-23.545889334533562,-26.479276720819144,-18.652783879872228,-20.963023278208446,-28.635431734103122,-23.419895718280152,-18.941708348192112,-23.92754573988929,-22.05656512088082,-19.369731653741205,-31.280512022638206,-40.35638791874663,-36.284727816225946,-36.75716007705517,-38.17385664344504,-27.51880326275795,-23.13550960078367,-33.035304754948704,-35.21276350010289,-31.225270688140938,-36.82814903485897,-37.995830092166266,-28.248487827017513,-27.852939572955954,-32.28168216352413,-24.441379331627388,-20.275743164836697,-28.506397470686114,-28.19577585464704,-22.393100121399634,-28.690944591366218,-33.253476557949035,-28.564874071209736,-33.20908683205421,-40.40280005869744,-31.74613987330155,-23.024334590115078,-23.799149025080514,-15.964324882784386,-5.63625965076854,-10.96262801143838,-16.108645765858046,-10.116391290829203,-9.251488882847621,-8.49203338270679,5.3269199493495485,11.649352312183671,-0.14229632471853204,-8.789809258790731,-14.111611447360792,-27.528121315016477,-30.527213391725383,-15.573430390823098,-5.654912088227344,-1.2700765609621594,10.15583493380748,12.574513953988923,0.5959544612830152,-2.7435550822792045,-0.33091511886986247,-8.998002659202921,-12.83219540283728,-2.8183728582110117,1.202183784251202,1.869342148083136,12.77040376653323,15.357994394267351,1.0085350585352497,-7.305372134756629,-9.162912438997683,-18.717387002562194,-21.10189111243153,-10.158327612440262,-7.976495732877771,-11.95448214732129,-4.160745481122539,2.5071889834180143,0.009722476950451586,6.57814844700872,16.97824450263913,13.551792629369197,10.690891852753943,16.282420319227775,11.38296835111408,2.21758860522887,8.081458365081025,14.576219727095978,11.70533078355987,15.894991344013487,20.286391742749913,8.366946248887608,-0.8527636919377355,4.121418134712535,3.4155314881992775,-0.5282456387270833,8.109472395040179,14.408267951983621,11.058081851029844,16.434279919922876,22.915409085161816,12.6138927449950263.743332487558034,9.153716778890752,12.772162311288493,17.440028242787736,32.89053246125322,37.53365330622866,23.03458394377717,13.718353989622036,11.023681496568981,1.7493058907803243,0.6096318223032436,11.61967021222413,10.968736652090008,2.160838204734098,4.569316272998639,6.095526953829984,0.32240264260174856,6.11333465456152,15.911840909220457,10.337942964197163,5.052225235992915,9.504069563791283,5.724196056624479,0.41804750899535303,10.428557434747717,18.196550234254286,13.936274981766442,15.693100164533766,18.59014930720897,8.473913939824229,3.162695121931381,10.109596833756118,8.527026235382035,3.042857021555264,10.591310394284994,16.040249089572065,12.039603129229729,17.059501656837636,24.11563591020289,16.50600728946036,11.472430426812245,17.644634498910165,15.331870546579916,8.87528233994664,13.913357220126539,14.225815731242175,3.089588473763594,2.0174172900446505,7.112658584022977,0.7456215720691808,-4.0584583041477,-0.1781758226750374,-4.261570910713672,-8.677306910577435,2.79212175523422,11.569911313762482,6.479359280684732,6.546570945557322,10.325246047131243,4.694499985048935,5.040496205783498,15.811044136447846,15.057418570742225,9.057527522097809,16.6430812438634,22.051285555230756,15.275980890476323,12.699545064515295,8.953084183616717,-7.942389444782575,-16.815513436469406,-7.551135933376191,-0.888697711862154,2.7364354033018254,13.206972415945497,13.543704510639124,0.06645677513796588,-3.3316884024084144,1.3662271924369853,-2.2999046689521214,-2.390097905971305,5.534196127516374,2.551223823636878,-4.226026442587432,2.0458926000070226,4.709613483883308,-4.124381280719238,-4.818528665467467,-2.0884918864628155,-10.991172808837804,-15.859481807132038,-11.464661993698956,-17.39823090569952,-26.283350174335663,-20.259290089197272,-14.535084586784095,-18.134263850675534,-14.219332471695516,-7.8372403385414,-12.65797003891442,-10.689936146066959,4.877108436174252,11.130514848449987,9.8962495834791,17.2415330652221,20.386398916330872,14.279249357985114,17.474944182213058,22.128448047539273,10.408475973429674,-0.27818720029503474,1.3474830116383778,-1.3884132895209218,-3.573810771680297,8.711299905820354,17.58985404080716,14.828629779972966,20.516816862084024,32.18764584651725,36.35054428718309,48.86413881174949,76.63693804008892,100.2402286812451,123.48691849580902,161.53894307037214,197.3696201693823,217.72408271683696,233.7381893144194,236.48191963752294,213.00280750159766,187.32117737788792,175.04761262777134,158.95689312838363,139.69519511772523,127.7287245212859,105.98716297767069,69.96295011973304,41.995614987988965,18.917130082453376,-14.336467695636564,-42.22046679732827,-57.394071409870804,-79.40853760869666,-104.62882918015521,-117.652251970981,-132.05382840142624,-152.09403122948757,-158.7819740947465,-161.32494567772287,-178.72518484450035,-194.46419153031368,-198.5480029931265,-207.87045809864784,-216.17400528703934,-208.82218839835355,-204.6258455426645,-211.38717808117042,-207.28428376485004,-196.91450269053186,-198.12305845719493,-195.5867301060307,-181.94576984922813,-177.67451217556436,-176.85439597093017,-160.95887427931194,-146.0771777186604,-141.74133021121463,-129.8996460258155,-116.82580183842612,-118.27232114920857,-115.53702242217612,-99.24305552499854,-89.92020160011884,-84.90264043301111,-70.35420424787023,-63.041564958478375,-68.57663505179042,-64.64870729683578,-54.772359132098515,-54.64553315618456,-48.8554976101027,-31.331974380453634,-23.338488329807646,-20.32670543787762,-4.737535501321824,8.536850715086562,11.742547411178233,23.486466489917166,36.54637268098288,33.901105681707456,34.18324387552018,47.30507883888685,53.658286277736835,56.71107190165654,69.52925614471165,74.74671904684068,67.15832763703378,68.19250222806244,72.40658137778276,62.97308725277225,55.54098356997169,59.022626064690456,57.09593698556501,55.58597884747953,67.50188108838262,74.24021525106663,68.44895837889979,70.5273257661144,75.59284288649313,67.5264439148704,62.630441615092586,68.7317310105071,67.47443641176169,65.60733491733421,77.45669290980416,83.47417387875753,76.18344213233169,75.98920940168797,77.12920284697697,64.42582279928554,55.378993163764754,57.950160024703806,54.20851904169358,50.287297715339754,60.93456970234043,68.97860398112546,66.2741857981407,70.8882397701317,76.50112980905436,67.46149300492496,61.354735829874386,66.78705375713244,65.09518452813336,61.35071225594899,69.47990507762162,72.13314914807947,62.829195532241265,61.69641015966971,63.542917274700535,52.56232600509628,45.417487373752174,50.83650672984072,50.4736377818066,48.37075624302328,56.7275616747354,56.64775550263665,41.96628223665449,35.85523522654092,36.96085665995384,31.151673929683227,31.243380955017976,38.43088086941486,31.670496664682794,20.281713382132438,23.986247301037505,27.842649746418118,24.09134537218985,28.97236332400177,33.225371496484875,21.645051189688196,13.644749577314695,16.901018955171768,11.66879576786496,4.540141486571565,11.570550726461109,16.07193881043777,11.04202486425471,15.42710759547602,22.63575197493114,16.0166601822104,11.164968576186046,14.691074172146113,7.377377449405156,-3.3522300290711264,1.2386369975453446,6.36880751351606,4.12656251521373,11.412420143348,18.825588041742158,8.777549423635993,0.06593859465553908,2.189950667105811,-3.5577265149094943,-10.188889135549388,-2.109005403966218,2.308780403723792,-4.402768061443183,-2.7683543082091595,0.4138015279010998,-10.720847694790194,-18.45537665369185,-14.965820726961777,-19.183441659598955,-24.919930133652773,-17.181292840650592,-13.333182264673868,-20.330849026319672,-18.837017974930326,-14.363566105917492,-21.17018803926264,-22.99276051720647,-15.80442016374701,-20.54217992996141,-30.10175477965246,-26.911492441785317,-25.207617746435456,-30.43754053246415,-24.885656022687716,-17.78930651840018,-25.71737497388425,-30.058442229779722,-23.02842391862316,-25.238637618497584,-31.494005681795265,-26.50637514816848,-26.048688294979385,-33.85012752813089,-28.7471220701965,-19.07864911136785,-24.060338060182346,-28.97278158653616,-26.477203590835934,-32.82062561910337,-38.87122915047387,-29.017417700606288,-22.014482869059023,-27.013183585496254,-25.519130429990724,-22.21929180129356,-30.708772289150804,-33.539673725485976,-25.122135098736575,-26.678385014960526,-32.247155198946345,-25.03535289196953,-20.466460858809334,-24.993952736400345,-21.376467848520463,-18.05760546632295,-29.465234658048693,-36.377533229497566,-31.038264676816915,-33.10327697363223,-37.86696044536356,-30.922612931875907,-27.753643158520667,-32.98064200681338,-27.012096770075694,-17.790999720565345,-22.592911687117606,-25.067987289885348,-18.584278847564036,-22.850153659776716,-31.033077100316333,-26.04069632808765,-22.803034850860396,-26.791862546446907,-20.213922705106278,-13.016763441395536,-22.20686913232058,-29.226587287269705,-24.7206370301311,-25.425849349859128,-24.9810826613135,-12.11266712445346,-7.490789941785157,-17.333688467427397,-18.886945494191075,-14.686930380346322,-19.00370630465707,-17.068102200043636,-5.263485207480341,-4.939710327304509,-9.343970723804862,-1.100683938428841,3.0595313580468164,-5.4393096379463,-8.158504734602207,-9.591045013656217,-22.657726653871688,-29.059095294894092,-20.715103741474955,-16.947323802628922,-14.752880458576204,-1.800040646396306,4.013080846153664,-4.934614441237431,-8.223296329216437,-7.254435486011031,-13.789187378631905,-12.344996082492298,0.2304612283778802,1.683325264972834,-3.558194957846732,1.3850311201021088,4.552471779554359,1.5902190128371883,8.642445576114792,16.060527143734316,7.6827867686035660.395171472216838,2.3280864928766523,-3.103087368270081,-8.429898066812326,0.9406811673909292,6.705053886838817,1.5487614728634043,4.847614893768505,9.856078088671845,1.4741888860529246,-2.490815672826386,4.0878169774784965,1.624450380669666,-2.4397074248220516,7.736075670994269,14.599630988352159,10.249255376119642,12.85749339429596,16.53934404289891,7.14417775979181,2.064564114537698,8.503729500659585,7.4816774613239705,3.513137577162866,9.52927964503762,8.562867802835719,-4.332163776106998,-7.119967188338664,-2.5860983381012135,-5.33714168019362,-1.9927837523088923,9.409361079723988,7.137207945630944,-1.6773093267274337,0.5291502658977705,-0.0853400535496528,-7.0456126845996625,-1.3648801485420088,7.507667750950082,1.8471893712295615,-2.589233057647059,1.4335684331890057,-1.9636790512632618,-3.9928711827440977,8.427557843975647,15.099190318267574,8.623981985519357,8.634175844942996,11.077742286843241,4.867938914610956,7.534651119495708,21.85236635918247,25.91561390963194,24.907732072547013,31.846559883183204,29.398258073613263,14.69847708709997,11.2973905990756,14.63971129457117,9.40226681933986,10.049047352761933,17.562185297105874,9.555047371815947,-3.516192323379892,-0.8145693939176546,2.631758546379242,0.0771919165067314,7.666105713192713,14.37437314968968,4.034423611140253,-4.709038021838723,-3.2757952133592587,-7.403489413319631,-8.195946315512904,7.9116902407837495,20.409883943197382,19.320218460371333,21.09038726097343,20.70632015379686,8.026744797869654,2.7839038854653606,10.31335270522303,9.162422027767356,4.377334365637181,11.246727937532507,14.579240700405393,8.96358679484502,12.258104262050274,17.020355669973057,9.277069630216396,7.116871798856212,16.394278971774092,16.157689581560668,10.719283713910016,15.18385603856309,16.186649821527336,9.915880447134398,14.295743391793152,20.865322753132446,13.234857498337337,7.318960915270055,10.099807418785055,4.245436624350424,-3.372198907319018,2.301114352105184,6.282581659948822,3.5035750988888936,11.67248078770169,22.064269690607276,17.221956454942223,12.036153851805528,14.324111995295388,10.301211327017462,10.571991275144715,30.28015479093752,51.54462272810094,67.34828218106773,95.97860643535876,131.22554885296404,156.9432601428093,183.68692738796292,210.28139399555278,215.08587792318832,206.76788564106337,204.1438697738928,194.543581695851,175.90515002184884,169.4734456275814,167.43048296465616,151.12176629917363,132.8573904542578,116.19217259674218,84.28184677958612,49.93809573514882,33.911784894867885,19.423088809347462,-5.5977763179904585,-27.199348959776284,-52.273365373607476,-92.50418277444525,-125.47701173200633,-141.82381639603597,-162.59522910116078,-183.60071699603566,-190.38102929304154,-199.6918705674483,-216.90743485771276,-223.15714751440436,-225.86815448761428,-238.47359702833944,-242.0805782576653,-230.987205938251,-226.68727040894652,-225.24028139224947,-213.03165649147178,-206.37405569202656,-209.2448798581877,-200.83780449792414,-187.58745609390155,-184.34992334599707,-175.61486652145777,-158.47605108747848,-152.71868909250952,-149.6522704217468,-132.72251356944943,-117.74522661827453,-111.14291605469862,-97.05577603442123,-84.3426011089702,-86.6542270077134,-86.43416474968159,-76.94907853137414,-73.76429692501443,-68.35311154707291,-48.04299199608353,-32.74363378903867,-30.37343769143471,-21.80963921165079,-11.417612316103773,-11.154788973892904,-4.37485418345951,10.763294078006425,14.113323234966057,15.948307220583823,31.821326192978923,42.88105087343307,42.28496620023985,47.7824257946754,52.70792209037997,45.49629556133689,44.58656906030407,54.193679841576,54.94871536306631,54.11837872229874,64.87703262278099,69.30559310028497,62.68689639775468,65.44328457365296,72.28701183028971,68.62238698878274,68.07739145323515,73.70649632010014,68.68157109051006,64.16580667042352,75.84395146684238,83.1920104647895,76.5331966029934,74.46386843533142,73.01022583168593,62.40327775355603,62.76985542006332,77.1049030146034,80.86630168816164,78.86909754617724,87.18190626603281,90.67664077980857,85.5892229587256,91.49860320534823,98.48128432951847,88.89546709879912,80.64226475754404,82.52170217256402,78.07514032937914,73.62483130293074,80.16274094189433,79.2564754030859,67.82893270893877,68.06936589018156,74.88376967041381,72.83927243813396,73.88688172154,78.54352093414705,69.43402326380857,59.19455113701024,64.10182222480061,65.8793452935409,58.17421387049765,57.73993537399919,56.04992733289539,41.71065323010976,34.677060369132874,38.75859919773028,33.546807466414364,27.400479800783224,34.70415128686892,37.520626992293344,31.141343559357523,34.69855894008406,40.00201180484315,32.09346829816171,28.21354042641736,33.67092256283124,29.166884953066486,22.12805758522628,27.712034105367223,29.52884077061082,22.88539959861737,26.59796948387929,31.375663000021646,19.85121762593245,8.303308347586047,4.993697195250534,-3.8292111664653956,-7.859166289091302,5.6405045784435215,15.464320765709882,12.439796149729077,13.963142550616435,14.621940513607509,2.601653593093725,-4.333996289181704,-1.4555510330113992,-7.117647143130216,-11.974988624576408,-0.44167338386285415,9.96105360079379,11.585152875415396,18.334050267992446,19.16067784622004,1.2596874005466816,-13.644948332988893,-16.043252339745912,-21.558098906698625,-22.807354702578237,-9.956563904200959,-4.750917196812926,-13.75224499122663,-16.71496684949102,-17.880449479449467,-28.782912428334782,-32.052092982922254,-24.34141116206992,-26.277672999826784,-31.122061875909644,-24.466884975762504,-22.755326015042662,-29.66573489668341,-25.190248016770724,-18.237267730481157,-26.1020418930285,-33.55260152613411,-34.95126160608393,-44.64845490516991,-51.01988655610021,-41.442239880687474,-36.22490309121745,-41.75008366960572,-39.64668658099741,-35.29011746458919,-40.92918407049518,-41.448046321478685,-33.77099686656321,-35.50062766090414,-37.71238048995539,-26.614524384529886,-20.11384382527781,-24.06850761062564,-20.843505245780943,-17.471230538317272,-25.99760431179582,-28.0868983425522,-19.524044943589892,-20.318351416574362,-23.84861861637355,-16.938774570762742,-15.83585302980143,-22.872414810075107,-19.125266395603564,-15.009359215913623,-26.729058176450057,-36.90093840541197,-38.45379355493262,-46.41401975815558,-50.9576615343892,-39.51125148690667,-31.602572155794313,-32.82448418575745,-25.08051105281129,-17.97931275293525,-26.66342508113668,-32.97314756866835,-30.193009679719196,-34.22492621646188,-36.72554739414886,-27.778375929388684,-27.513508557217495,-38.71098710165133,-39.451880447974006,-35.04676051878511,-38.83548781217663,-36.55241393827023,-27.379073629707154,-30.531049771930483,-36.602688297767735,-30.41425121519582,-26.48918689308983,-26.8887438532146,-14.9675557135083,-2.8534627780517132,-6.997624485488128,-10.77686670744621,-7.4654148888550065,-11.823945410108113,-14.875254962384316,-4.691946560522055,0.23048509599881217,-5.228141564684952,-3.5655609282461054,-3.6575775603547376,-19.378402943196118,-31.453090621446222,-31.22278471819203,-34.25908072259832,-33.43435769716613,-18.447669277441463,-10.139440942910932,-14.594562456322663,-11.47106998487395,-5.977339063692146,-10.983150836617462,-9.571848912265946,1.3803659278015097,1.2987844982414498,-2.8958368613734073,2.748972693587028,1.956040277756622,-8.338597175951392,-8.044551999341142,-4.736897038704047,-13.524975590650811,-18.463186271459108,-14.990603231475504,-20.2355500393104,-24.503040930519077,-13.665557487405112,-5.967935474076212,-6.726368666679783,2.3478848983350065,12.93305031004132,10.83914014038585812.410280090882868,20.777964054553404,17.72853356336349,13.62897818216727,23.309758543654635,28.200750659377317,23.081592909817488,26.404444645501346,29.066949820093505,17.5480186054656,10.891489033110386,13.853087017852356,7.829790236647369,1.7021537247765561,9.577380415012236,14.150182432856415,11.078518169863287,17.9275079449819,24.268750832056124,15.345403031144013,10.233088527161478,16.04374572980811,16.430509298339093,19.393634822925875,34.165242488543655,38.43152448245844,28.40622267994504,26.233199556321868,25.551724122437992,13.90076649116865,9.001418438700085,13.308472655282543,8.117545882520385,3.5610342622938136,12.668562837145378,15.758626716529253,7.812059243199936,8.278781887105604,11.43912024498218,6.001851085563986,8.59213656676184,20.187569662601177,19.24716577759114,12.958541023845836,16.007675091362394,13.793438958412343,5.154788803715088,9.387226609207097,16.67908847826459,11.545954757538343,8.81857941475308,9.829390394121926,-2.3384069641830862,-12.913908092594092,-4.009095265815384,6.32697404815171,10.458748973788886,21.248485992672524,26.137392173900864,13.774736327035026,7.247073065592373,12.443020116486,9.276789661960985,5.589507156630043,14.20068452502109,17.221871416811478,12.381531699768725,18.05623612150539,22.891537951598284,12.683734769641372,6.444607576016095,8.75468670499903,2.166444088943609,-2.5475720349832094,7.446933683164705,11.573210955227458,4.64812487035704,4.811973469711361,4.291405653706363,-6.003588505986142,-5.546948094248739,6.215848250285122,5.132814842201142,-2.059286746057503,1.4889343761047664,3.486283762781464,2.736784441249627,15.316641360807164,26.233230118853484,18.21948615053023,10.984267878479185,12.189826657771784,5.5074605382368,-0.5811448392900787,4.981555477660661,3.6115024866659713,-6.63819110900746,-5.463879831222563,-1.8425007160499207,-10.657313154999427,-14.911232418211759,-10.516773537470312,-14.780412692247548,-16.69804620781109,-3.0726698809789355,5.289429365030356,3.4322737184801326,11.23001023289175,19.462782785491612,12.951530829672077,10.455915670511816,17.728113692283735,17.663702636447866,22.63576495960546,48.9324245395194,78.40267242878804,104.73197835020089,142.98503557769095,180.74866690151808,199.48525524663341,212.73581014317736,224.149105768793,216.46824595242236,201.60293924903283,197.55645466005151,188.22555969845982,168.63524638511115,154.59297293386805,134.0778814237732,94.74120055280369,59.528095351777836,36.09475960836835,7.164805503651298,-19.454754327780577,-33.24947107142672,-53.23560142921174,-81.9291694024304,-99.77092147293334,-115.58206533898542,-142.58152068089186,-163.11740643998485,-173.66438780274024,-191.43901921357866,-207.57364770325057,-211.29909450868945,-219.987071775844,-233.81197623116697,-232.3735437230676,-224.50301629582438,-224.53129999437587,-217.78250688154844,-204.08685920687063,-201.95315457022195,-200.0025126080513,-184.59639224220652,-174.2613214559167,-172.0699017166423,-159.84893629919156,-147.73622563595364,-148.69643561845095,-144.29292022909897,-131.86954006278626,-130.9085719309516,-131.8112211721918,-119.92143085063603,-111.24529248911473,-107.92182704902078,-92.29876535283125,-76.76960074260379,-77.47237045250998,-75.01703498494226,-62.09027474184786,-55.76583777580017,-47.51234651582498,-26.856719100403744,-15.612602741957376,-16.879621750396524,-8.221839929979463,2.943866242093582,2.8907236228912545,8.392928429553105,20.984506762657247,21.54501484785127,20.446360242517112,31.034844507401935,35.404066446164684,32.261228420573566,41.49298927488809,53.558470510190126,54.761359082684386,60.4543704881264,70.91137201697707,68.42863762602252,64.73081942937462,73.52063309078235,77.59420160690038,74.96869203059705,83.05904255163674,91.17660832089817,86.64475444384163,86.56978369058469,92.52303033641925,87.02387157924267,80.81658224176442,86.4358805495095,86.76055962944626,80.56950311420842,85.90528002939371,91.85882815439724,84.7129374263399,81.24949025259123,82.8177616576017,72.32728522908465,63.89497082478566,72.89967200201569,80.35701854471107,81.2034228970123,90.13115159968316,94.64567698924334,83.44521215973336,78.00816821617082,82.75029670682684,78.594032711844,73.62130789007895,80.85619005553559,84.877668994363,84.19300121082267,95.44351426122049,106.13034930023132,99.87103527331455,92.20988295051305,87.45444303333666,71.16609139294941,57.229681100452694,61.098782120485296,64.43960364418851,63.00078360176765,72.46381053216984,79.22939315421306,69.00344523937966,60.542646462489984,57.05132464595518,42.36106396542558,30.43012983086102,36.16866967571255,39.950612508396034,34.86395402853423,34.69202495728845,28.63688796707461,7.747161024897428,-4.33052642730548,-1.3003333991488177,-1.9414607224898295,-0.4001719562034611,11.647778541857734,13.823854935936566,4.28194733640718,4.4037551878541725,7.042569579896099,1.195947876619023,4.649074517094308,15.536733068417156,10.928113840114339,1.3568029343442651,3.288814117043705,1.5724049947906353,-5.12052571940412,-0.049010542142889246,3.7013871666397984,-7.349402338934334,-14.54690092096386,-15.91592908843387,-28.889803342634945,-40.71575624626675,-36.41033356751719,-32.29992534842141,-31.386463382664015,-20.027077734726873,-12.469780785845156,-20.80488399191656,-24.175550612443637,-18.89540988313574,-22.627738572239473,-24.73251810591754,-14.629077257102715,-13.425286409350761,-22.187312564266616,-19.373057348856037,-14.870802571708523,-21.774580943244462,-22.738529165086696,-19.281112477362868,-30.966839697895274,-42.39729595241335,-36.10534637537894,-30.210493387321897,-29.683190703287586,-20.1808533993161,-15.119058334857796,-26.313992520087094,-32.18327959568883,-28.60996731638125,-33.67188872605355,-37.33433565815915,-27.925999668277647,-25.000934382891842,-31.53335286031067,-28.369491335218918,-24.56938793935057,-33.10181470032457,-37.28055431420419,-35.96028599848602,-46.065270860648404,-53.596471637669644,-43.73305551952194,-36.24366923469517,-37.27943545057316,-31.609507242376175,-28.55356285106574,-37.10253207706701,-37.5070708079979,-28.952014626237077,-31.16394824459944,-34.43383099033207,-27.311496523053087,-28.103968398672492,-36.03415220606385,-29.744056073789736,-19.386068856285934,-20.278892210529317,-18.98979627546428,-16.823790540611107,-29.743087932850166,-40.679270186649156,-33.17433402592074,-26.90049130100555,-27.477937970832183,-19.627620039656456,-14.188814569487008,-21.616676711121084,-22.537453296009865,-16.195982891332513,-21.477729735402242,-26.714978780454327,-19.518660713728913,-18.57133061759763,-24.501807849053034,-18.846230815008294,-13.118028636617328,-19.375934697409928,-19.334462694689652,-12.972434862297504,-19.041644851999063,-25.161152936548625,-18.339562613288315,-16.80340079109719,-21.21475261464902,-13.855514301118577,-7.656901600942081,-16.32117095454204,-20.93830909877383,-17.283743556533686,-20.56159609549644,-18.706706845104836,-1.2432166133060925,8.922123616396345,6.380092968581146,9.548557386302265,10.303626731671743,-0.7405980085675559,-2.820179866780194,5.239428974339482,1.999411319682414,-3.826583291559643,0.7412826778436092,0.24221495637082735,-3.760132522147283,6.542072591266072,15.346271648779851,6.252355073263159,-0.7884595496724067,0.3237230250440226,-5.858796451699693,-8.651165259453354,1.6351700069173596,4.242462011657364,-1.883422022228685,2.7368148201217557,5.908591285885729,-6.2346825043749305,-13.590384319268512,-10.94041002712762,-13.884268673266874,-12.11015796387396,2.6652925157024505,8.233661868973046,2.2886230109426497,4.613493476735915,7.017687226051315,0.317911981086815844.3728792564881225,18.30027472428284,18.255198960099424,11.16658474223371,11.232722875011557,6.234493053037552,-0.22929580090165524,9.841788106695695,19.508797390923966,10.0673610243491,-0.09422867151244096,-3.321089487432315,-12.446537567554623,-16.086325703456293,-4.562365554387668,1.3040348552087706,-1.121090211136427,6.368950114504239,13.011221920119711,5.918431138206819,2.9138827265382554,6.6399549816422825,1.2083322015293585,-1.6679437239749029,8.512119083980723,11.439793336037603,5.581935420647538,10.06327247921043,14.337885239660364,6.078439179336947,2.772957468390825,5.339577354739384,-2.5071459507744143,-7.579127401496816,2.3600069132015404,7.115199620774888,3.0602334588531166,7.893085150097206,11.454136926654401,2.178046903938939,-1.2827583065949382,1.9563212702446042,-5.767708556821594,-10.620495295021705,1.3070877518577975,10.017637717359785,10.439059037471061,16.603356868604358,16.28295294300343,1.6150995022189187,-3.525728123143096,3.442399087744027,2.0118694938334616,-0.09581390934408385,7.343356246073669,7.320059506272178,0.9264032993040354,6.631618235076655,12.797136566798114,7.323937662422189,7.7081806352443705,13.38340534972943,6.036020142359872,-1.617027412220042,3.859682858549773,5.3753471618948225,2.4134586835850538,10.469126124879915,15.76674370906329,8.008123117468484,7.388094227200321,14.687196735645536,11.995565150804097,9.843703298642279,18.372455888773313,18.393675252719742,9.357438966668758,11.593075172057123,16.846672640358683,14.138451886467854,19.453781510110957,29.18370381350913,23.01472439861046,13.943964534966092,17.412896349963745,19.63365680017408,20.83199056910516,33.27803356226274,39.64279980065939,27.616457662628527,18.677889781078477,18.04403020384079,11.56522530767269,9.822707116427683,19.033507264821136,17.50518875350769,6.457955403103361,6.566656865906664,7.593139972713619,-1.4064621248027018,-2.0300106445016475,4.9603965494142,0.9356839288225416,-1.1981735978020716,9.929765906294348,12.939625244725505,5.5240435940445805,5.996045701937735,4.618831801084578,-6.356013715899106,-5.674164506004754,4.44118774526825,1.0341548066324284,-5.364477909446416,-0.8790572858065362,-1.6044229600574529,-6.506555300414966,2.2659278995290255,10.256882339583715,3.4978275873014084,1.3694040561815377,4.2972885195274415,-5.65193608690571,-12.609035125424734,-3.26666686930134,0.8615856671032203,-2.4012182935841535,4.129930469475664,9.336823037344985,5.651584812694859,14.875589268912965,36.62176993580612,50.235733292894054,66.38081328986311,97.78189065180143,128.05740526064255,156.59431298029702,195.33722038377198,224.6963823495689,227.97788344153884,221.96741255920085,210.9090294168029,183.96939964082551,156.77997660829897,141.00885107276065,117.92861391761238,87.45577038740095,67.4444267353029,46.315955436113974,13.969730571043238,-9.782917471999822,-25.431837292506525,-52.111809025322295,-77.54113506451642,-90.33649698423929,-110.21462006262456,-136.43259157869633,-148.8221873565574,-159.26512154030553,-179.47501295114512,-189.4426443664356,-189.8821751788097,-201.1899934638767,-210.61599558031227,-205.22171386904398,-204.08620371847687,-207.67269186366306,-198.5602640411805,-189.71515228359868,-192.0351665772512,-185.82889212426863,-171.50741199118755,-168.3951408028949,-165.23905413297473,-150.53260177006283,-142.8370646440811,-142.68433066069784,-132.54213245310132,-123.53760923992004,-123.77384153758669,-111.69977359258348,-89.33176514477103,-80.50463556510826,-77.92166640149519,-70.87716376954721,-73.82186499124238,-80.245858444591,-68.71134685071513,-52.65835918091378,-46.72772823300567,-35.47185696409134,-21.746146839838772,-23.37215743270665,-24.7770764304868,-11.965255030801451,-2.739508140255553,2.732299815292348,19.85305440178597,33.022797031212804,29.832505294294457,30.849881320355067,38.18715477227369,34.454696814987415,32.34580694029595,44.723319059738756,52.21972676735898,52.102690489298034,61.15757733988699,66.58781213161987,56.93977853537417,54.105226240405294,61.336273897179595,60.30269563616332,60.74766263311774,71.52728551325059,72.61616067392158,65.86222569180237,71.91677382771016,78.49640290310653,72.68157509393487,71.92252210678627,75.01395679120638,64.49861658048594,55.27085584611915,60.48056468102143,60.75972330447148,55.585008855077746,62.63375977721884,68.62912771228606,61.541701563538155,60.10753457038789,64.90433243763411,59.33155758845043,55.854342926105986,64.30096565793552,64.76307845247351,58.076269660074104,63.829292345212856,70.47706503717285,65.24960728431302,64.48279078913171,67.35872518889555,57.10188655372181,48.369379571764824,55.175971261675464,58.16090679651039,54.381008671533806,61.098305291495336,66.52286575095718,58.953837712911934,57.11002913990365,59.85110006159037,48.6401213766761,38.65948137531295,44.722807610693394,48.77494379637241,48.238554026223134,55.03357140592495,52.84835290679498,35.33190965914503,30.253316146511587,39.338172024275984,39.65318894297199,37.91090976926228,42.57850095354056,37.71665844340564,29.34976071203727,36.49152764124205,42.115951561733894,31.083354903831346,23.368609438187903,22.820576685851815,14.466237959730016,10.424676483144474,19.43767984223006,20.18670454872902,11.945328233039966,13.54194674994183,14.037737689072618,3.2625198611917643,0.2730053454520228,3.7654993664960106,-5.236580933270789,-13.952051955991623,-9.260495496917063,-7.916097143003194,-9.547115242315368,0.9985737576847757,8.110771710421092,0.27378841116585306,-1.893930862444013,2.2813620465048894,-5.244399294013668,-11.78870864576238,-5.316797377086656,-4.282171164374307,-8.382978061515905,-0.29822890991792494,5.470315176737627,-3.466583898788171,-5.9969782140010945,-0.22526465512145277,-5.124551006844392,-9.137130756591588,-0.006832709064810594,2.774674562164556,-2.958861283918105,0.21703941803389704,1.6378877803205552,-7.640867661758346,-8.524025790716987,-4.241454641799225,-14.716272315430395,-26.445052282297766,-25.675146185373215,-27.86752921119458,-32.32390101982037,-26.825033519557138,-27.835947653747876,-41.8006939593533,-43.76021207586504,-34.167305121353934,-34.7265654237357,-37.598415435991186,-34.77302261885941,-42.93801149675304,-54.69344444498249,-46.45116175838755,-32.68599236238131,-31.325474398519493,-27.542989786504307,-23.042877708122333,-34.42159375857242,-43.56197677979827,-35.18640325352048,-29.935604782897535,-31.268386029733648,-22.30834111778273,-14.166039570786491,-18.208271369801867,-16.98516114105886,-11.929672419437033,-22.355012662390514,-35.224615021057986,-35.10045500451369,-36.206922722660245,-38.583465935666666,-28.675929982649095,-20.99112498556939,-26.767676474343357,-28.010908907973054,-24.936488842081786,-34.67910317700493,-45.245454631280474,-44.11589251527164,-44.77594051350289,-43.794065233680286,-27.73818470163011,-15.340059632406756,-20.551528337777228,-24.54880273729475,-23.86868193696273,-31.623682506369374,-35.52849030226112,-27.100793387873853,-25.875750031499408,-30.939939395444746,-23.61434555663915,-16.494396528908517,-22.48152511395322,-23.81039063379416,-21.03416555592274,-31.749788905071654,-40.615030854312685,-33.17385792312602,-27.87369852821297,-26.169762759605472,-13.776127365209252,-6.345105665959026,-14.675619904678594,-17.51751863001318,-12.863016493743944,-17.40263436773351,-20.06230981986613,-11.665714319683609,-10.939005802122885,-16.2210882369573,-8.391497167423644,0.7973009619854654,-0.5570928357096152,3.5524616383959007,9.429995388169473,-1.3879609440288592,-13.196082900714638,-10.167674509638063,-9.059139244095089,-11.443058465962743,-2.655485702563505,2.543717604969335,-6.467332306818564-7.12269181757979,2.1597752524948595,0.5961193962278957,-2.740141377934088,3.8102716835243204,4.373181519802803,1.7457661744190274,13.436669608531691,22.55438825740963,14.078380133795642,8.814336436938435,11.302492114888402,5.693631447299642,3.033878404486234,12.179601596329626,13.424123203446152,8.801287689833295,17.368173893299236,24.2722279376683,15.167599511792798,9.075082713480864,9.942539346260615,4.01866000223315,3.033983690207198,14.421910466909786,16.464613383734182,8.337758269933701,9.340400482486384,10.598030086074404,3.1726459803492366,5.397417912679603,15.513593719451242,13.990469967942769,11.534550889874778,18.83421005886611,19.203071554328435,15.51423552695752,24.393096328788648,29.87016043752896,19.24992331189486,12.524886461085208,12.885437014845845,6.557535144436287,6.714836750486789,20.519024751138918,24.145217473042905,16.513639163422383,17.55079245714288,18.205654012960807,11.009334926471835,14.80952093408062,23.64705417111113,15.143339758987626,3.162543799420037,3.0523330858724647,0.637454385991203,-1.1135880294434668,11.143431820783787,16.899791624069323,3.391812212642498,-5.7801859455767906,-6.343946492871105,-13.873457841410147,-16.456173307970147,-6.377786970259442,-4.161325510601077,-6.684151974444627,5.038163716648197,14.947638538512845,9.174078962837347,6.569546050264879,8.083555320347552,-0.27349158284567565,-2.9471079453556075,8.530208737229016,11.374998711300963,5.811760468856133,10.284132190097163,12.254748149289968,2.4136799832321207,1.0445488770744928,7.099694718753453,3.4951184101730943,3.6942933226893695,15.926929985351261,18.245749125013845,11.699631761879793,15.280357628347739,16.712049054671883,6.835693390464644,6.73518730626583,16.3715138551787,18.90105212722718,29.569148847895814,59.345629783324725,85.74517254878842,108.85902445388405,148.5207083951294,189.45438789181952,214.71342546948898,237.32182816962015,251.10850598543067,237.8301451122947,217.75818785345513,209.6575131166968,196.40416106699448,176.77913994697954,165.23024050220897,147.26863537639306,114.29674812865765,86.81721931423054,63.38275168327053,27.832449911439483,-4.317778702288857,-21.60839804279409,-42.129490081145555,-64.3365281375604,-73.94200295577173,-88.00271122815137,-116.41109184618114,-137.2200379886683,-150.22663445131593,-172.27159376806026,-189.8552477500127,-194.01072318381745,-205.00231118880694,-219.92036649137884,-219.5984874935356,-218.48548550122138,-228.72784635525653,-231.61941068004103,-228.2099152995872,-235.00016102926745,-237.68880763617017,-226.69639352749383,-221.7725883301222,-220.54699645338266,-205.49838142791452,-190.8202704622696,-186.98693712809188,-175.84268708874774,-160.2966953591683,-157.97073120065534,-154.82684650073935,-140.10360136497604,-132.3516005434581,-129.44414310781679,-114.17233695159321,-100.5657188613794,-98.32768875158666,-87.5889032373104,-69.90095227777192,-62.833232615380155,-53.85724984994264,-34.30812909803644,-23.483044158844972,-19.201466666621997,-4.097228098916961,7.729404685382429,5.476760477648573,9.477760681406185,20.57342001028188,21.951940050365494,26.36624754810043,41.82000214570789,45.19678200412708,37.49343121072499,40.69890357780136,45.682820254412746,42.99288375444865,49.982430399460156,62.51273410877944,60.66677896422286,57.0690603440426,63.51584677674727,63.30285764538671,59.54957588539999,69.94296425337404,80.26154274633805,78.20161865677345,79.47889329145336,80.7640784290295,67.28452504626961,57.54809873602093,65.67921984506303,74.26948153607267,82.47111042741896,100.63552879816795,109.51125693039552,99.07204668944021,92.87232409293526,95.2841890162563,92.81333929833686,96.93013854800458,111.50795139883351,113.11562920857116,104.20327691227914,105.95688032108733,108.52878547534016,102.93814039075,105.28855897415639,109.28627316762255,96.85738599270678,85.31673912023467,87.89785396691471,85.98433072728878,80.52733130589844,86.36406475326766,87.48733953124963,74.8860437899938,70.16793903743785,71.8459432121676,62.19996226164348,56.064238184230575,63.80214146961582,64.67590523181565,58.7032079449355,61.400246519972995,59.92784431733687,48.67363799624924,49.04819394938166,57.36585491371842,53.4141748775548,47.910264745232624,50.47244807581035,46.63699554044693,41.8985897758331,50.87364126868848,56.180808078892554,47.61640379054998,45.09242550150818,47.22527470984992,37.20759452389118,28.075568591455472,29.152450314754365,23.56712967903356,16.287964960509502,23.766035604440678,28.909800878296743,19.618002548757246,15.762777917705538,19.251546790964884,14.52006147681287,11.374634687923889,15.630631267813861,8.599895794542725,-3.95591864005101,-0.6623549805683364,5.977189854435305,2.2863587062127007,2.199238883133499,3.712490212573247,-5.834371327745771,-9.649543275207037,0.7461089004808441,2.8315046993185025,-3.854179373461058,-3.126551465316186,-7.003061534941699,-21.136991726206155,-24.482340135515344,-20.06091624768982,-25.821048378858514,-29.466728443754175,-23.93830035342664,-28.438628324312184,-37.371145107286026,-30.631727985715926,-21.982801676571395,-22.30779363020551,-14.965169367520737,-6.848266776337473,-16.979613228439963,-27.25707187830164,-23.075550669539105,-21.136596882483158,-19.61738674518185,-6.548898046269992,-1.5460521525692963,-14.268114901844346,-21.445036931021555,-21.528096933503825,-30.108262778928452,-34.36233635126469,-26.789460796073744,-27.351623817600693,-33.69255936786622,-29.70810666192021,-29.799789874511063,-40.5039069361042,-39.735463913307036,-31.598118775078504,-36.69713547937555,-43.208982168622256,-42.55729668667959,-51.53743178862843,-62.098517662597246,-54.56830908547886,-45.96806046190859,-49.51372429946897,-47.593005429700675,-42.61315611504708,-49.78377634695611,-52.859621343788625,-42.741872516907975,-40.30913677941941,-43.54924877629205,-35.335674038343,-29.104496437670605,-33.633255437416935,-32.05626573368036,-29.479156907069488,-40.87430870727695,-48.95399272639876,-43.66166916536648,-43.36862933370668,-44.74623138295293,-33.14729967936254,-26.04461490398358,-33.3443434986631,-35.08918667135854,-33.423588454725476,-42.8781411561369,-46.39608313662991,-36.193364621634515,-35.46754477333542,-42.87244276396599,-39.735519328425006,-36.82819023222504,-39.96630805712245,-30.21094044835246,-14.898232950978489,-15.813659706601051,-20.77764849170822,-19.259004755466997,-25.999762915525807,-33.79945287210707,-25.32032228648406,-17.237983499240933,-20.88547941427538,-19.428025082672846,-17.46933302438482,-29.197089207765,-34.91217733700887,-24.028429384439665,-18.37970615393332,-18.24921137466547,-9.986416314445885,