177.79950286313883,165.84524798179646,166.4659955420521,162.8080897390287,146.4071569167691,134.74179703642642,126.47059064909749,111.3707161692552,104.75203726385928,111.16271941630147,110.92866578641288,106.71710740412729,109.24675797913265,101.77128540811827,80.22458998132416,66.60175777101405,60.56718929497004,50.90113008045356,50.93408756925936,63.43786871361034,66.80736839143509,60.59409780394233,55.81586006046528,41.00474669159639,17.441733006261575,10.659719010053818,19.974405171716036,26.72131897230484,33.78852841911485,39.56770159868782,28.603954064650583,11.6122958764142,7.03975528840687,4.08437650256139,-2.475873653558117,0.9223091660793088,4.901341728735003,-5.791055290432578,-16.252767087360773,-18.56786847841331,-25.547728975154264,-30.063365129922197,-22.87544612661786,-23.376012787257455,-36.860293424807374,-42.40019768769208,-42.27494369893503,-50.41363282538245,-55.13723041775022,-52.49238469789798,-58.70567652328789,-66.65754556622842,-62.488787624204264,-62.708802599873636,-74.38864559657817,-78.47369611294977,-76.88161299358846,-82.30273271903567,-83.21347257421046,-77.8473168326762,-84.12489359242886,-94.81691766565217,-94.37467545288197,-95.87790514538614,-104.73737852916008,-104.95460587479239,-101.76178398365295,-107.45132056513057,-108.81196051553579,-103.40143530337004,-108.6195291916336,-116.84263075105711,-113.07341268688612,-111.30522773831467,-117.5513384739681,-115.91056137759365,-111.20946611834171,-115.01004644305,-112.79630541766913,-101.29526917913121,-99.77454840369853,-103.86949961947698,-100.72318692444105,-105.85505414969984,-123.83625307953227,-132.22791601896472,-130.48127267055597,-131.11617617260046,-124.59764783077523,-113.18803543807317,-118.51156638651042,-131.44862400994407,-129.14525244640834,-121.40008189892305,-119.10518486143299,-113.27368096315675,-111.08481310055878,-120.87849406277722,-120.96778565958145,-102.51285284088252,-87.58424744576915,-81.48784803835463,-76.58194558341577,-83.54981416203378,-101.29677994308943,-109.03287034607801,-110.48601983154435,-118.44764329616935,-119.04636829243839,-107.85370878984867,-103.48584823461385,-104.64275530287998,-101.41456467140938,-105.11513146794377,-114.38643852573288,-109.59227690646567,-97.61305650372623,-93.71735203855337,-86.11847801912883,-72.0483508953092,-69.3360407650978,-73.34455072747024,-70.93793993378881,-72.51740344880821,-77.12148474674646,-66.50895832904128,-51.90801777096786,-53.63534896994984,-59.44047725646109,-60.266325584444004,-67.70438563663728,-74.37493113368956,-68.71286154256964,-67.39212207781361,-75.77723349256343,-73.83729384705886,-64.60810549652,-63.67617025544155,-59.72039514839846,-48.17584761581304,-47.951747146372156,-56.195901795398186,-57.94211068971617,-62.29175418105019,-70.17888816842421,-63.205130621771964,-48.553457731687175,-44.34374876848656,-40.94750070040573,-32.66499659986729,-31.554326016716388,-30.599259089539363,-20.020014212715434,-16.559754028217537,-25.77810066021785,-30.639007551503934,-33.66132042589267,-43.18450687351797,-42.76941234537113,-29.354219695924105,-24.308688217627818,-26.275045635301176,-22.421368166604847,-22.908416735183877,-28.055537274242027,-19.510842077798387,-6.049966876819755,-7.079676639231815,-11.664476241819765,-11.563467393160641,-17.94118117078657,-22.136158538507907,-10.854282832532213,-1.3484324546047377,-3.7902295045250733,-3.3258419113404907,-2.4734363277304627,-10.279310741332953,-10.267814521142473,2.001240417412089,6.099757315569345,3.788595809445925,8.695592900738253,9.633886991367145,2.0946011819334203,1.88587446499941,4.220457536479381,-2.5322662167734276,-3.29743898282101,7.463924927356488,11.680104474680498,12.03120355150644,21.64074392126476,29.125888716130792,30.09474266809758,38.855228126972435,47.09678182294541,40.140410814948645,33.22640624856712,38.98758462336695,46.95496521056694,48.17771949777807,41.464278807177315,27.643515658238318,9.901917320067842,-0.6749393640823595,8.798910095366963,25.84590917068323,27.851218019163614,24.800790035441054,32.7803409466334,38.56454720299548,35.94429568423874,37.26724420448889,35.73402141818484,23.74427138545088,21.878331795607792,36.05014307251311,44.42082625349873,46.92593255376392,55.05334501603621,55.030724383565,42.50469028290271,35.96853380580868,32.34792022943248,20.697542713003763,16.04711853259272,22.393004769127508,21.399339231068613,17.611930426127874,23.716211574726568,26.3593653966259,22.192895364683622,27.59294150838712,34.0979092906768,27.113200345573627,23.96549682706032,40.60006628751677,73.25596648861878,114.61141935158192,144.99829301755435,145.67579846457184,122.85809685982312,92.62160576835316,72.21248671745718,72.58671426626935,77.67023833534678,71.60573040464126,68.89816321475278,74.88772998409468,71.793374940862,62.83334877438533,61.1151330889714,56.689649727485495,49.4229090005026,55.689999153477785,63.40208557168387,53.591092110807644,41.692885174133195,38.4586120105574,29.920724578006418,19.56116351589018,18.063259065199265,12.136661484140769,0.09239844236846206,0.3399974090633324,6.530464995523019,3.895806356340392,2.615056064649448,4.089364195401142,-5.996379817777022,-17.624585188934734,-17.030432542862926,-19.140895018895808,-28.360341148755715,-26.566923919380073,-17.68814159042228,-15.388111356812677,-10.774625258755012,-5.129769642009995,-15.50440954453898,-30.216149066981625,-29.288168754520314,-24.94878381370303,-26.491972559798374,-22.335185880298525,-18.91650022002377,-26.955040454273078,-30.40666990085219,-25.58853285564788,-31.165606166527198,-39.719149159782305,-34.40109534799895,-28.942413694945923,-31.22428850704967,-27.437808563444833,-24.500908217128483,-33.89631284069358,-38.06490567180061,-31.223301445155723,-31.77445041539367,-35.15647861982207,-28.629260881595968,-27.050221160663934,-34.73323582998755,-32.35629550943432,-24.026330176309838,-24.302400588119237,-22.277188988536125,-14.966844161801802,-17.04045622690067,-19.432988534168793,-8.789695981189025,-2.8244765601246575,-9.730640201499266,-10.804756404249328,-6.8254893417252065,-10.358485539112136,-10.951820220389045,-6.322705204096653,-12.636773212856252,-21.365784686222806,-17.334040633129803,-16.091512207837393,-24.343727662215926,-23.710471523834464,-16.785986017590243,-17.02252886215593,-14.693922815582045,-8.715938535233366,-14.830567293528542,-23.694838855292453,-20.44490795512698,-20.14073201650495,-28.660652246299893,-27.66229234144482,-19.361199990453315,-16.488158500765238,-9.265337774752531,2.231103561680868,-0.1822034754827504,-8.239562123243427,-4.745340643771193,-2.361691068267368,-8.41152981753253,-8.671347978033957,-7.5662441815279955,-14.94852883787855,-14.646739662442979,-1.837963412913112,3.499855654797988,1.2072023198329096,1.6133098066918379,-6.73906549028751,-24.06709638138166,-28.66932454506548,-22.873027267261307,-21.64163445851699,-15.454816881579553,-2.61664370272256,-1.390977570363543,-5.915247099308662,-1.7198873133185395,-2.2446791170536486,-11.392593869228369,-10.455992993586163,-4.070423460899477,-5.549835796939851,-1.411151319061831,11.402249547502738,13.79549049135257,9.60716552111495,10.810397111119844,4.1339182173995965,-11.242767672365229,-13.513705631921955,-6.108702021535275,-4.1619563853901855,1.6313563410808267,11.583094165842946,8.460684228405118,0.7143254124272771,3.651378360554557,4.896887350473708,1.0419995635022512,7.169442233451166,14.051193570934197,7.395236408279946,3.1849147553955834,8.711722164539221,8.581780478548747,7.378947899871232,14.229310831678578,11.94189953548597,-1.4694652194987246,-3.537327769136473,-1.2601135776805807,-17.396735368140643,-42.591442203357005,-64.64098465713968,-88.22397577731451,-97.9972595967738,-80.0323464253673,-60.20347836986279,-56.28858526749589,-52.474569676348494,-46.35389064232349,-45.39566551553841,-36.57540340772614,-18.92364109147516,-11.75642438137989,-10.465507853751753,-2.3974060374388126,-1.273971022117638,-10.503202818538524,-10.95557814638066,-5.374410273823045,-5.708809283308611,-0.13517231496936155,12.593456659487464,14.235657539428539,10.405936930230045,13.860349899914194,11.262059089929691,0.43772598927179507,1.5171098117441078,11.376196935410944,15.88424441705995,24.640931876647254,38.792214639288645,41.54986347382859,40.321114785396276,48.8564704466191,52.129040243040144,44.97622513406685,46.34109903938369,53.42684386798683,53.01698692612023,55.721299700906044,61.571616073354306,50.835485048877686,32.633063425753505,29.566970457742308,33.30161030361528,35.38454337165208,44.82535214356048,50.06888915349907,36.88741562317341,24.423999731674897,25.046941796126358,25.171448366112152,26.856503164706062,37.95600484219899,43.00998299131677,38.680268179159924,42.427533830041725,48.465698589824655,43.92608234829533,42.73471781744658,49.27848997523067,48.290156973002645,46.46438871276407,53.21928893756335,50.13756046539853,33.978602804353926,25.72421994997209,22.220518349254483,13.447876433311635,14.837073866437954,27.531724381109704,31.738864132122217,31.94946105533907,38.71100466299667,37.06914825540724,25.16309405716267,23.70166165282205,29.60487099952782,29.94906109270947,36.522357369902196,50.4931898704057,52.62163139995925,48.20131823592692,51.08871486704411,49.02883071364583,39.37943992926977,39.912702445441965,46.41294201945251,47.9536696134209,59.93135731329803,89.17419818462133,119.97017046262638,152.6639130070025,190.93646411163257,211.88414798624345,205.19776962665026,191.3531152557031,177.32618132624705,160.6974492051137,156.7107631050594,161.12852810576322,144.23075236989555,107.29613963337974,72.74197975852299,42.673684844897565,21.243339673593884,17.09971170830181,9.595794790123175,-21.59653144584503,-58.62309718768223,-83.64347223285301,-102.15100452917592,-112.53541720297298,-114.65438806407816,-129.58092425785838,-160.33315526467743,-182.47041780565948,-193.6806112894579,-206.07273115297545,-209.56471850164064,-202.48447246694815,-202.67024092337567,-204.18256280104248,-194.688381156403,-191.5095185416451,-200.8584797544672,-201.51901921137562,-192.16343323527562,-184.39032582365988,-170.55034527728978,-153.87893267157585,-153.38690064016598,-158.55399925259974,-149.39932498108482,-137.95107303244743,-133.43058340503552,-124.91573124733486,-118.48293835555188,-122.11923099645463,-118.19737128897518,-102.32559611331958,-92.27667019471426,-83.93873192667975,-66.67550556975269,-56.73608712727868,-59.30095761134353,-54.4961715707698,-43.061783078535754,-36.15582686817179,-23.08693863781143,-4.7645780776240745,-0.645701664511881,-3.63996603171225,3.079932814665573,9.303321149820897,10.931167556719533,21.470262146703536,31.87288176830954,28.015184105623693,24.18227217799386,26.267404467799956,20.74517750137364,16.26052776169811,25.378323388756012,31.77714851136433,29.180119547796785,33.10868921215394,37.804557814099596,32.346530654299755,33.19197068497193,45.56081110892734,51.50630922618954,53.91010177013548,62.39745155928976,62.48588970378838,52.69272198525624,52.46194783021203,57.06700105038991,53.74003675998054,54.01157083372164,58.02464221103291,49.106765636777794,37.81891441483894,39.493302936946755,39.25183406246323,32.272823265346574,33.752595213803254,35.65593249813836,26.14439970646296,21.29557078951989,25.77714740520555,25.02567591229749,28.549318940707362,48.10165775612097,64.01226532821617,66.4940949542556,68.43701379409006,65.66627007689601,53.82669601943837,53.72947736892257,68.61256514163748,76.20748657523419,77.33162079528346,81.64922938479651,75.46406591719261,59.58504347161216,55.48986270777929,57.623294812162214,51.16377811078681,47.82846262708238,50.09195583852066,41.10638549849091,28.48075861586147,27.21999414682567,24.052134588821776,13.724590650703265,12.278359978395008,15.655394139157725,13.211972372845281,18.10836264328844,31.29488545607595,32.17051053466788,24.51498976659978,23.795991303489608,21.465884826921886,16.09266672161009,23.059626760695792,33.66921058031257,32.38732878251179,31.425121345366307,35.547140467022324,29.185013347858217,18.387452817281975,18.365434167530008,18.87190978045613,15.134703922893056,20.416738841153084,26.269220234580388,17.224207409460313,6.494502185255652,1.9654195523367974,-8.600790580538563,-17.096789003279778,-10.288143475734314,-4.364946238345303,-8.470073063848671,-10.059307198145131,-14.323284627362376,-28.49175388448727,-32.19926155010573,-18.200808180470794,-6.609761001137803,0.2345282230349771,9.588769392894104,7.854988646724081,-5.830145796019895,-11.020418317140601,-11.143040900240983,-19.075304843759593,-21.731913397361957,-14.221671869378785,-13.277115699820605,-17.081342604962508,-17.496137812057505,-27.554235743201836,-44.63700827386614,-45.02011288673137,-33.4675375922175,-28.468064813816447,-23.34991201613214,-16.976054467093004,-22.818833730817907,-29.514987563772742,-22.572803731656812,-17.766915104892842,-20.40621102111273,-14.168748972267009,-7.381430108944603,-16.671516228815236,-28.323257702391995,-32.464346048435914,-39.505972559910155,-43.407624471985365,-36.57859525756222,-36.7832857304474,-46.0838457088933,-42.61226792150704,-30.57184639663623,-27.25041007445712,-25.125459584542625,-20.94289496497227,-25.548509101402416,-28.659026751707415,-20.5351818865402,-20.863024776641105,-34.459850704766275,-38.862712604135254,-32.97061222066376,-27.829378301059897,-15.736342066547817,-2.437881522123247,-9.378919477144409,-27.193006977443325,-35.4890856248612,-41.38857033372638,-46.78416134891691,-38.29485708057711,-27.450667015645678,-29.569013539509214,-29.566378993638065,-22.744741043688677,-25.845952660040922,-32.556615356884436,-30.053036576102244,-30.015720405147135,-32.426560518728174,-21.051696983526245,-8.08873026812974,-12.29159069049927,-20.371274855358106,-23.097389445964804,-30.275085769818215,-33.359821754310744,-22.82737772788412,-16.94471027654096,-21.006704315984916,-17.65565419772411,-12.380911689264018,-17.60038322724973,-19.146607952845002,-12.638417504242144,-14.275538037850467,-18.735639285648894,-14.34378604318845,-13.874593835112135,-18.26056967143048,-9.855438212159129,2.4277601283374786,3.3225736554261527,7.630058862486605,20.023204067551482,21.80254326498589,16.51858000588564,15.185958377993654,4.343122385768163,-14.258220088664634,-17.376379090448843,-11.388224432687922,-13.376223808493597,-10.92796714553204,-0.4710791931361835,-0.1444752123382056,-3.5615717809811005,2.9283111171998035,4.386579808749969,-2.8259265938396423,0.6668124562373734,10.709408508149174,14.137841000844784,22.04944507920153,34.23190937117212,31.695058790006122,21.717990074675477,20.34333091568838,17.409289136518012,11.020341713788714,16.147662406833998,23.89772409241027,20.126124460717136,17.9243361995175,21.670780290611113,16.042639946686936,7.336231123058901,9.681331704083963,11.989315843374516,9.935215695966775,16.682218202506974,22.62469525734467,12.77214496474408,3.180401786291073,4.461600799260606,4.1477336376530936,5.3794265141621604,15.570619958182439,18.79933573708579,12.130589572681437,14.16205373346723,20.19570327797157,17.223936622603706,18.32998479901169,27.222865056605176,26.398134018097927,20.15330563668015,21.41817049021916,18.609732126493853,9.538196950312352,10.82443104873299,13.935371209660236,3.695377699017917,-4.579510305875845,-3.462036087837565,-7.309271698958223,-9.289185805410217,1.9796181347557242,8.155926327804469,0.8511343411550962,-2.324039007825853,-1.6234972711235947,-4.5072159555553455,4.6943438237135275,25.240444081640387,29.76960106248509,17.850255808834618,8.206859998208492,-0.6912529405514247,-6.172501008451251,5.4854321116823055,20.317451975897278,18.279479431883175,11.685703330823548,9.883662486723026,3.097417666275594,-0.8458208311052925,7.330222930351514,9.949909451430958,1.3729673618698222,-1.9295247415401642,-3.963625731762861,-13.455341923976247,-13.848038211115664,-1.9686138582691726,2.521223128308446,2.5624271729612804,9.909599609817121,11.833500625810817,5.546357130529888,8.311916693567298,14.329107610299157,10.580347667802041,11.474742274911423,21.96329699409019,24.31327127321742,22.076594701977626,27.04282864840227,26.65788354684718,19.314818499009288,22.071678316655824,26.84137261407264,19.668637789850855,14.703896437548426,17.214382771098286,13.05813103894305,8.002642899207338,11.004203099754918,6.851402252219158,-5.998129134534684,-8.089971156285225,-2.448928778194832,-0.7074997092336428,6.456436604449085,16.783918596729663,12.159473816262,1.9025118611542904,3.5277453837836097,5.7024196051246925,2.808174665102918,7.861584571137744,13.022501742029005,7.17667012304679,7.364675481375734,17.765957299023466,18.42303916542464,13.113373530765282,14.747539996729603,10.148357867195964,-2.7980993483232295,-5.199643769279602,-2.9879479831569373,-9.469550624729619,-10.524134141880948,-3.4781609635243713,-7.367535294192376,-16.60724366658186,-16.217277651257167,-16.333738158207755,-18.53792746051261,-7.394010543196105,6.91943487693176,6.556018258973808,3.4716536083128666,5.484941606916681,1.221524121282114,-2.6980766658986224,3.1082372747349947,2.2772601430079047,-8.360030479881518,-8.838700344409963,-3.588825336364514,-7.474598047379312,-8.868865822444954,-5.372340600063472,-13.287164745948882,-22.06600676151687,-16.5506378271685,-13.82107122562709,-20.310445794406494,-19.820110914937963,-19.09326623685732,-29.714453463109788,-34.74145319255593,-28.296462163949954,-26.896085564124796,-24.7946574745998,-10.254672818250665,0.02120783165736606,-0.11765958262472309,5.598820814076415,10.543976901080692,2.8473441691123984,0.1147926202211603,8.269603411836124,8.325551779946414,2.994577192360606,4.110964443900393,0.36252915811019415,-7.977116070991977,-2.710517980637859,6.884934111254196,2.682053185044312,-4.192096813513119,-6.710342462243378,-14.562790734766772,-17.95709695623104,-6.4714021718934465,2.2648613965182287,1.512073540379968,4.8174945332416135,4.968994865256181,-7.160016758722741,-12.106707323415788,-3.5769119986697646,-0.017683398188363786,0.7163449665455127,7.209004637903711,5.162977667545096,-4.36270079050847,-0.8615728826765885,7.941947715802305,5.819776491931686,4.107590346061379,6.329599730931294,0.06249844177119179,-3.996687724942889,5.38473805919831,9.671479216822075,2.213861752932609,-0.8858267703139412,-3.2666293183902217,-13.22601368776554,-15.398174871202373,-7.759279245890529,-8.087807117684697,-9.655872281185404,1.4153042991617646,9.85874298755318,7.7277349920919125,10.227663161061196,13.076419528777418,5.8978791110941895,4.724456160823939,13.109298400671852,12.616470132454829,9.606027107808883,16.7812942831675,17.621906548823105,6.273985607788603,-0.003176014601417032,-4.22598407581078,-14.027030559550067,-13.730470176131071,-3.980635988160656,-6.115106098664714,-14.61786216869548,-14.544462827400206,-16.08806038401039,-20.1134957005806,-10.366889856720825,3.4109235154779785,4.799572564180469,6.137557267464314,11.178344351173163,4.649252824106965,-4.241287190774427,-0.7598673479149864,-0.003981795170010849,-7.967909975270891,-8.520283050992731,-7.420548950939644,-16.32048541704414,-18.527544181555793,-8.149956103627195,-3.43058551074267,-2.5940662166064445,2.669420497765221,-2.1878583032814856,-16.36289066654947,-17.892298149992747,-11.815789305106504,-13.72399466958958,-12.949376974425942,-5.397071703173045,-4.520042929704155,-2.4326511774492228,11.64157962451193,18.93141701017238,12.100771792612367,9.530991961320801,8.111198040465046,-3.874418030163962,-10.507052712017536,-5.834511577869857,-6.853183584485442,-8.320237651218108,0.9328775747252074,4.524239709857044,-1.7665782054974764,0.4218745187506272,5.858856643126879,1.3215798751753418,0.7957777722107608,9.796518104989923,12.684464339218064,13.625618629386006,21.437727235762978,19.29406667944702,3.8998029265825362,-3.458513811502293,-3.865469220119089,-9.114065974524793,-7.434938004290437,2.752744686496335,3.163691175994108,-0.8494481623565329,3.1320743908093487,1.2748262404693103,-9.171741073047773,-9.100578660743313,-2.3980231727340207,-2.3850565016830845,2.1948709254400907,12.584701586951617,10.614190428943143,3.7690689079088675,7.51181532533557,8.32314709477874,0.6650334664466513,-0.6394957581179485,-2.6021287122425107,-16.69300704498682,-25.413001326693596,-20.927517029925067,-18.569711572893095,-14.036654360205603,1.882887777301308,10.726364603391996,5.699085510287494,4.811446828288304,6.424793074077417,2.0426774657676074,5.681877436180639,17.68168925797971,18.45140785159174,13.509474064474915,18.115601155227356,22.20144311458025,21.790027044248546,29.566145848424277,36.09463602865269,28.271788645149236,22.509269956053828,25.213895407450302,19.98539095708902,11.964403168905285,12.782625378992593,8.51303321079879,-3.241616147279148,-5.883015059113903,-7.505461865724042,-20.487137151147003,-27.588969558365694,-21.10906918795898,-15.647049640653007,-8.6382785854934,4.522641597525551,4.817639111555064,-9.520164394681572,-14.975973141550039,-11.402656606602196,-10.192651166015551,-1.687957033364925,12.263373973534367,13.42270794151231,9.834998060680045,14.966381813037025,14.32343772880662,4.608546974831607,3.8349546628029874,6.7370697936737525,0.24372233577253333,-4.010040321727312,-3.798479194802379,-12.928095680775085,-20.42953114926339,-12.135991191981903,-4.823871270942116,-7.266431248409353,-6.2363614128617115,-6.203465061395599,-15.062053466099108,-16.663627816822505,-8.255424011512371,-7.991110420952516,-10.313970422674409,-1.7041404969527054,4.272935146825767,1.1956848449684507,2.6183439515239937,2.2981839617674793,-9.471668321197098,-13.430943877990455,-1.714923487179079,6.426163921585395,10.554295529272341,19.37905893783464,18.063094865959638,3.760906865976997,-4.097781475024443,-8.94863231499049,-21.387237059025544,-25.640877951710003,-17.67696392451738,-15.76811838663928,-16.813000664668753,-10.972599207222704,-11.21367581495462,-18.353760484896313,-15.494810100883704,-10.107725448697991,-14.88072399153455,-14.771396190006548,-3.9814693712679974,1.4370144360373325,3.55585901993721,10.783528038092488,10.103248037240155,1.1746536287980311,3.751041814433678,12.183763946458473,10.142846967691092,8.664625606363652,13.997987702871434,13.673924257694813,14.522095570063332,26.517348967403052,33.463280425537114,34.776479793002,54.37139560859175,88.32986785672195,119.43459155017632,153.62289075325685,185.19868679406272,193.79647317891337,189.0962123542012,187.7455706130979,179.31689769808253,163.20051290996597,157.46469459718585,154.18111294195035,135.87043255086434,115.25476603632966,98.96685988295937,72.82002797806935,46.628277357369186,31.825670408838917,5.745611863110824,-36.69512234870135,-69.78163620438157,-91.9861021573513,-112.39983463269542,-119.09101810615316,-117.56893230450699,-132.3408672260226,-156.4208377340922,-171.25182445622048,-186.79533088798243,-206.43381094196707,-212.19663975258698,-207.40260361142896,-205.35442579648583,-196.72520142910298,-181.66674133493183,-177.4037082228017,-175.58792143547686,-160.80044415633847,-147.43654364196775,-144.119181725318,-138.42504893786065,-135.48892787024135,-142.4294282349148,-140.0718818987326,-124.70262646542481,-117.37572376307014,-116.3200781556178,-111.72898518567689,-116.41751499988501,-126.6454712901735,-117.9002468921184,-97.04071075828753,-85.00146590469447,-75.17250742021284,-64.04956272345957,-62.21582801546322,-57.001327948238725,-35.04571253839083,-16.586334593000785,-12.331883071648914,-6.174543525489234,0.6642086580692113,0.5909143732498341,8.927924331503638,26.836338140427447,33.99948932197469,33.847554667284044,38.52943034270279,37.287385801781966,29.78174460762496,33.02428181021587,40.442934620546026,39.26848152674935,43.367225519937044,56.92716962161858,61.67247588545958,60.163286007384045,64.07039588488091,62.155877221410705,54.22440040738542,58.552015403884766,67.82207826488548,67.3489455907485,69.21535085477701,75.66144262608157,70.2155786608245,61.15471715393359,64.39164666767576,69.27977086123207,72.03844090750236,84.26637701195463,93.7460334532328,86.11046419836887,78.46842578668208,79.89740580722867,77.61531119582678,77.09900842933239,87.63275043360633,92.85112623125377,86.71280657520174,83.58692179934233,79.1124121754733,67.04170751025387,64.86717604771276,73.49302526732544,72.13369412179401,64.29517462988007,62.358294269478336,56.99690566953741,49.48398168256193,54.506759956932136,59.87935419417459,51.41431624966188,46.61750505131238,52.61843274899197,53.606822087803565,54.37663257330201,64.8149830935366,68.20310563372841,59.36306135037085,56.99119076627403,58.98559421269704,53.979009324036156,54.58962712139101,62.63645654099468,57.757573719996884,43.40902333769596,35.672614601584435,26.837573536322633,15.993083360054053,19.733900729387113,29.43723260639608,27.91541726856086,25.934198451751804,27.421866453188528,19.18548261918242,11.211027312268229,17.187949256487066,22.04178171537378,18.82603364702628,21.310586973902275,24.23816950607165,16.768886728532934,13.250209952232668,17.8524276268371,13.276463985697632,4.034879843363021,3.4204986874500634,0.1205290103748633,-8.642724294057865,-6.57151406463606,-0.04364584461206755,-3.2362349216228647,-4.485384629016341,-0.2866800671599745,-6.486667797354531,-16.6300352580153,-15.718364631649928,-13.882010090637605,-15.34206436730247,-7.845187353185807,-0.9397859332256537,-8.886474947619545,-16.71718557695604,-16.329982592413785,-21.505261475376074,-26.851620665390936,-20.245165731387115,-14.9123908841106,-16.310348882143572,-11.981578743408718,-10.155371841252142,-20.919850759676308,-25.039865074963487,-15.866174175416745,-13.996526415927642,-20.525873756252537,-24.728566869590363,-34.25471233614718,-44.72587492388436,-38.065484373205535,-27.07868248257541,-32.41432710234382,-42.099758979918704,-46.437864150177035,-54.14358576442405,-55.83688712593814,-40.458255643444836,-26.758358167113492,-25.134923707131758,-22.24015155388073,-21.374061057681843,-30.167075332325215,-31.911256427652823,-22.805842395873782,-21.37968179005508,-24.134516529303024,-19.228719883741448,-19.729535461872466,-30.591365367151134,-36.55669361279032,-40.867137675989646,-51.37023171371232,-51.58764381715811,-38.64291484006603,-33.28260734168004,-33.242473118094296,-26.843190028303944,-26.735177333870475,-33.38485436660577,-27.125776323363603,-15.457495323879584,-15.346046485145013,-15.469442856613053,-11.080158185707106,-14.582277547035533,-15.163333330033192,-1.2698405044915422,5.34400354203952,-4.065056895300726,-8.437871190660903,-7.719852304691187,-14.17111074927804,-15.48945726295055,-8.077390608122693,-8.941377758119264,-11.787499281014586,-4.474391517689022,-4.885726980789911,-19.256989990585183,-26.70874802509539,-27.45767087912374,-33.11110019799851,-32.34726940065286,-22.99992362966978,-21.31366250239553,-21.174113142140428,-12.035017286628626,-10.15236878875114,-18.870152264303282,-17.874538465937476,-9.276826336819035,-5.190475826072608,4.548320361194775,18.797641897528358,18.004291495596352,8.293368664271858,5.014164656160805,-1.1388100491275766,-9.844893478433448,-4.067257010270186,6.101999742683246,2.6013275558376456,-3.2320551630308376,-4.385050715825268,-11.186317348560156,-14.780315768452365,-5.391492459693935,-2.0611161698289417,-11.445161710034714,-13.912706346703718,-9.707187175332958,-9.385353475936256,-1.94572463058795,11.419705249509162,11.538853444371087,6.325346471405878,10.15039347282113,8.133164010394545,-4.847624290019741,-10.942056322524458,-11.691085468427268,-15.481466829530518,-9.798419663924108,3.0299270358245196,1.453108878303342,-9.249994024449645,-12.436296545252947,-15.102309242598547,-18.53699642822082,-9.932752338271008,0.3987828990620712,-2.382037295152677,-5.2482138054757534,-1.6789755601727774,-2.7602198345951607,-0.7053503354992701,12.683916630138093,18.309560976961173,11.316684210944983,11.439139855412021,15.945944189646433,11.706368984180891,8.484070833598876,7.486834026025434,-4.735261744074273,-15.150546884251634,-7.49579000973849,-0.5376686002836575,-6.809885611004571,-11.871758375366984,-15.467950397814654,-22.40444581083763,-15.860634411962954,3.3098563318924548,10.14221429591005,6.965961134440625,9.313224995583509,8.804212055234663,5.00387027279074,12.701399064365335,21.459695555992077,16.546024188847277,12.38034496486333,15.117432495489862,10.726299226059313,5.44608640537899,10.85791672790653,12.263287928927898,4.779906649150194,5.616174611250521,9.827284598002622,3.5051626427850824,0.06021619072453166,5.298065358682043,3.2778024005971735,-1.1430163841127405,3.315213569390383,1.8161592429992706,-8.34977705071402,-6.844898185586299,2.4645205972634514,4.066090254498508,6.876470805921856,12.962241668624651,8.294773108971572,2.771500350216202,9.878875853954431,12.760017192702184,4.575268179195012,2.099802224273804,1.4638920152700567,-8.10998832862473,-11.611574855514696,-4.196607746072238,-2.241582542460231,-1.3807870967111473,7.954501141489784,9.279430224620352,-1.4378465958995204,-4.99159531193501,-4.864938910751423,-13.197675719012992,-15.76034160209204,-6.5370994477456605,0.20376328049198633,9.284320321242308,27.323918764841483,32.9773347806542,19.484015473118998,10.044649220203517,9.477194038044281,8.582354130746223,16.53561098383472,30.889971041913707,29.522898574025522,17.251457385722627,12.685685348620641,8.389568793619974,0.3740711681784088,2.9582344261259337,9.67770098185853,5.982623354355868,3.6902852128215713,7.781136576455515,3.73344006171405,0.24264171058909634,12.310578226653277,23.461137464596643,23.453372798800537,24.542854333852706,21.736504002379476,9.451886382174205,9.063970165621994,23.932267457633866,28.966514487530837,22.377578813096164,16.870894309087284,5.441495200462896,-9.256091085135832,-9.010203612729649,-1.8775162336104287,-3.30447632662589,-1.465987451670157,6.8632763910334535,5.017417185050904,-1.900622808851922,-1.073464348435793,-2.9275460696372546,-8.774128297462132,-3.5493805791279645,4.06922178165072,-0.3081581970784888,-2.73948488708397,3.382495220292426,3.627747991614841,3.70771702186139,14.438012823020971,18.451729042372015,9.670520324692404,7.229696666071154,9.088447194479327,3.684356164757867,3.6496429979496163,11.077792230395554,6.965181888349987,-2.5199831622707984,0.6906461091572145,5.652735534010033,3.580238356479141,6.137146623755563,7.164998304994444,-3.689173841810916,-8.56470187009559,-1.2386586016733108,-1.9794169201667238,-8.78885015292136,-6.48619251898993,-3.608291681632317,-2.0623098083193137,11.237025891428047,22.513833747866816,13.63320801107336,1.4629785026671567,-1.4469067602836503,-5.337315365564249,-3.7946957156324514,10.58959896474565,15.601740637350002,2.2321278325832123,-9.59005115335881,-16.99992374114853,-25.747682361006113,-21.065072765257106,-3.627524515662764,2.993833837040466,0.3862807144025011,2.8969759170278193,1.678414803710484,-5.572518107912869,-4.325479515353853,-1.7188412161809343,-9.698277755937406,-11.863042657789642,-1.7093150671365582,2.1475462014617706,0.4198221054531841,3.0036545082381094,-1.5981571025859982,-12.110542934320149,-9.699004932027556,-3.204811079684045,-8.589282403036822,-11.76765630665121,-6.172576233061753,-6.233438667274173,-6.258590388678211,3.1849330512123823,4.516456626429807,-6.4314977000735905,-8.849464391682798,-4.291626222742162,-4.749828453113006,1.9441110252551348,16.7991162471828,17.71625056404188,7.275578064999027,2.914757028653601,-1.5390560835969342,-8.093234506136225,-3.251417234332237,2.6487463021616287,-6.996836883292982,-17.539889313190614,-18.12630565757666,-19.886830345845265,-18.583298716374692,-6.990004926648098,-2.847262472328693,-11.121019828142032,-13.699009188494344,-14.00503262360959,-23.11613105651812,-25.94531087113942,-16.890224814050654,-11.725883862395488,-6.361159293844257,7.475185937735267,12.743944117696795,5.5935464050089365,4.845285327924135,6.805611035795343,-1.028015692850257,-5.592889650569597,-3.1037843928327487,-9.973058471189479,-18.256885194610362,-13.185365326668936,-9.511146381817383,-12.40747454066454,-5.216233581902282,8.466660961571051,21.230176211654424,41.577184369443586,57.536065047310395,51.58260131681202,37.98205139197269,31.100606295814064,30.516631897917907,42.062790959053295,57.71394441594538,55.31564441455551,42.49855060096938,38.91330067142743,35.38342889045182,25.444062038404184,21.029041128377084,15.494631019706167,-0.30503582709912536,-8.60944180629168,-4.5229939283685034,-6.72289354191428,-11.007428201268237,-4.337070442856966,-1.2742485319900492,-8.361082640609169,-9.504116460963575,-8.630944225334705,-16.86948219040909,-20.02848823280011,-13.322368304424757,-11.903596515853167,-9.867011731936678,3.2024477822126123,10.387639223338084,5.0174655463035425,2.7659546080223456,0.11355949974415702,-11.057453311998325,-14.588758267708162,-8.82250380061743,-13.985703134955461,-24.63900609201415,-25.476936480103166,-27.60909536564233,-34.20217449288673,-29.73892395777399,-22.248190401172792,-25.299179194626443,-23.163537404911267,-10.45962960467221,-6.294150572345968,-7.835020274384596,-1.8182816782740678,-0.2822106119146552,-7.591630264611045,-7.236223906595495,-3.539060286823153,-8.586013966301774,-8.664015743203471,0.3626418076561593,0.3134466362287991,-5.952072886805895,-7.05400374711494,-14.829377557363987,-30.378694718112875,-35.999959000646356,-37.18132815056518,-44.459153285098466,-41.407612604006005,-24.69963043115273,-14.900390717294817,-10.815909169381682,-3.8688406320144155,-7.860785582893593,-20.260111225086163,-17.884604951379885,-6.516229203504317,-2.680362549156562,2.547807178768241,8.621816353212717,-1.0587175475024324,-15.995196672616204,-18.783465126389437,-20.607497950906676,-25.385417617980316,-18.517550427727176,-9.03317602140785,-12.36594080410738,-14.739160081148933,-10.58721428781693,-15.731442620339434,-22.787847623013718,-16.823421644320224,-12.183600960108734,-15.689890217126504,-12.331609663329921,-8.182561854531208,-14.983526254278996,-16.773274778191052,-8.970455033813774,-10.470450402742987,-16.88697132281954,-13.4607566998781,-10.805021054772363,-12.146365628819591,-3.3664583387868663,5.648935166098261,0.4484996466528761,-2.689018755925468,3.6083602160305355,2.6518487192755607,-1.4754930410926552,4.240052161868409,6.718009964669126,0.8144804886029329,1.3573702797361327,1.2737187211648446,-10.681125631304447,-16.165630621708733,-8.149451165240402,-5.342298822094046,-6.508515458921501,-0.27669502388599865,0.3963229864039508,-12.323638880969542,-25.3221198847309,-39.526375097615585,-58.595760254999476,-60.28696786467948,-38.269260918106,-20.666538640627795,-17.531203658220125,-18.148412021300942,-24.928681798328533,-31.851075627364146,-21.031566831796933,-4.301140526654837,-2.7680645197409843,-6.5071373234733905,-7.436440779164235,-15.099029653223875,-20.26943972143634,-11.607113959856154,-6.144358952439767,-10.456613298264209,-7.926027846936552,-0.9956234841538576,0.9292862709212328,10.061345358827916,25.437596692287,27.086429302473327,21.946282164684767,26.493177366476232,28.576003051728122,21.82312181011505,19.335939886669816,15.051212086623785,1.59910050513427,-0.3597948776077404,14.24540197758179,23.288167691395383,26.968483513757768,34.90652168303449,32.44569619841933,18.90233483607512,16.693239508667308,22.769073645943013,23.631240139207826,31.792472042902784,48.846553767616015,53.553172083765176,49.875339314061975,53.68828792026141,53.63301232611396,44.2174625003951,41.023764968343556,40.71622837494263,33.805477342426784,34.66375765313688,45.43390002164388,46.01391602915744,38.74864861593902,36.50062688505863,29.703594340164408,17.92759301214664,18.006705903128825,23.162490985194584,20.477831148155726,22.913736101834505,32.50786715119361,30.731258752043466,22.901365509331008,23.60049602036353,21.99719361320842,15.737457141431602,21.545609792619544,31.90195204183749,30.423465560681663,27.76537341843829,28.516227796204248,20.126794947209934,12.827075988865413,20.3958151926644,25.878946453232032,21.24903835813135,22.195257236270557,25.02422775664665,19.40727222096597,18.70928711760887,23.37226016888684,14.482293055504178,1.4265069695351116,3.2195982159276966,7.721490305855532,6.449244252330773,10.699050245370508,13.061966906940068,3.8686197345905153,2.500961832566506,15.708978328711774,22.589902853655204,22.749115498168102,27.87451126847334,27.51203839144197,21.40492922869035,27.45996203789513,35.848810367935684,27.61435354463456,15.711013262001611,10.489997310248302,2.198141690248023,-2.3047938699431145,5.818152235195815,7.329415904291467,-5.700193604168891,-13.972969611644787,-16.474060647452617,-22.962955166813444,-20.989175945067053,-8.260872012114918,-2.609655727312809,0.8020093078294284,13.718353410048566,21.151259845348676,17.34852488992275,18.000056810223263,19.224939910132917,11.76263227743015,10.622959876012949,17.854200399687524,13.678126514174174,2.5141547271098452,-1.9052129211561535,-11.219946451217579,-26.893513163120886,-30.712132059591337,-28.19420694567935,-32.16455232682428,-30.485410197392532,-21.50360840442062,-28.513083621202604,-60.14380502782127,-100.26326747055076,-130.0231564561613,-139.05644319476002,-122.81244678801946,-88.16797276474009,-63.22424152820291,-65.20819799470863,-68.34429181177057,-49.39875977126227,-24.040485205379472,-1.4775374437444344,30.76270012478908,68.17935914538964,102.22741495193249,142.33168604718207,178.99767534702016,185.93044417206505,173.72556520079448,169.48123295051374,166.24990185914615,154.23973716735577,145.08188621911683,135.73533841946193,118.10050145265474,105.81781420356405,97.94774756643358,75.12419986585701,46.37311629480857,28.615543176448192,8.64971910765227,-20.79173384307209,-46.25030174222399,-71.7479543148795,-103.6333397403354,-121.93781596629931,-121.59906780914378,-123.72385564237439,-127.04235367834316,-123.61468932821164,-134.46654602515486,-164.38728135395482,-185.16803350727704,-190.61120579525803,-192.39169560845656,-183.4335811857208,-168.70496924966682,-172.2093279494883,-187.4205410829862,-194.4915138842996,-201.7678243441606,-210.34539572236693,-200.85374390035662,-178.98279146692158,-162.11977711207098,-144.86980536779143,-130.41784179796824,-133.0417631932824,-134.96489402535585,-115.13573334754136,-90.35011818110539,-70.70937139629672,-40.514928662728224,-5.939376826394085,17.71894700369847,41.8129342511844,63.42694255195956,59.033141302763894,41.764248186485624,39.74361025676046,44.867447480099145,47.557487941261414,59.04049323013548,72.92502575302821,76.32548670753687,81.33616806769348,91.17232033280006,89.11592624307363,81.18803236931475,83.38536317144813,85.82161973940296,81.1819912606662,79.68744457691746,77.40454429107929,68.87934928483944,70.63444504778695,84.1544279550049,87.43761003651008,81.16784387994988,79.2802023890413,75.13829825940806,68.75946501809736,73.24460527686561,76.0882995029798,62.357283619014936,51.371497337356026,55.094829244732765,59.0272886027472,62.52532400837969,68.49965028932459,60.42913947661078,43.25844896143963,44.16693507809942,57.0256123449595,60.179907819452154,58.585806515868384,53.22027098906053,34.20432205084267,19.57884547998495,26.715863173302786,35.30312527575074,34.715827504801496,42.15592348092275,53.41656076335253,53.483422255029225,53.45907216424152,55.70984039673797,43.67086679843056,29.174535979784892,32.28293192259831,38.67650149779639,37.491471431573636,40.25502633278268,41.774510038703184,32.97626235918403,29.414922170076238,33.694548460856076,26.867873584061996,14.948899899804635,13.88538326962437,12.84672263500071,6.739930880570882,7.983407049044732,8.490352978414524,-2.141106620732282,-5.639233278510413,3.5780213835331023,4.984675209605863,-0.8002713537509067,-1.8194318981659574,-7.173224367697424,-15.810671162358144,-10.918009196690022,-1.5759153895636413,-3.2892870561199503,-3.4569492358910656,3.5037145418366875,3.2108086717624715,0.225918410540755,4.644112933296449,2.2838082053970097,-9.457606441091059,-11.39306569391196,-7.987245014317407,-13.823232144959599,-17.3813801553023,-14.610269609639657,-21.46950196678996,-31.731285986757527,-31.055390472704005,-31.57721636615222,-38.92375276101179,-38.61344681392381,-34.14132114282845,-35.73346708861758,-31.89990536659515,-20.801753360579358,-19.355161664885852,-23.226742102786982,-19.85599998798885,-20.991425510123207,-30.714912096132004,-32.87905172876862,-29.660806397582654,-29.639529990223146,-20.455642672162828,-4.326492251225161,-5.259670731254174,-20.239498732182227,-30.24189514786306,-39.644204333415146,-49.04538528776714,-44.44556384835061,-36.159773721798814,-40.027301570728724,-42.40647120540853,-38.482549799898145,-44.665377690466165,-52.914157912301036,-46.6550188479209,-38.088900754581225,-34.13540270802641,-25.600461912586162,-24.078886474706547,-38.31743764170093,-45.6853080486657,-37.4850305407002,-31.318904616362452,-28.346765459848356,-22.792450922478416,-25.95612895167457,-35.21928737162015,-31.85536768400454,-22.78326183474474,-23.468116539164487,-24.066449974503065,-21.004333488798576,-26.39399990374231,-29.576488781903258,-16.942042702017176,-6.578269245148604,-9.138262608029072,-11.372906192119107,-16.839698999026254,-31.8032326416145,-35.67548678903772,-22.56688346444863,-13.36570216985597,-8.06852274852061,1.8685002207896235,1.1018011067752171,-12.07697662999842,-16.17427790897972,-12.964010690024082,-13.767710478444789,-7.677953307076678,3.481761198798038,-0.25294951646330066,-11.700403061793333,-13.447319607445136,-13.692232760495646,-14.778592789642346,-3.7714994372667507,7.293295667514592,0.9202292820979037,-8.720781161746869,-11.813498172163566,-17.76554074575712,-18.53863162708625,-6.4672189537081675,-1.330742267275018,-8.128000401911912,-7.023434653870315,-0.6222016925020406,-1.1592265215862156,2.1122114932960967,9.10785729691965,3.988183849815137,-1.4494418749762754,7.464851222368199,11.601550493232912,2.622720159926609,-1.990076312316015,-4.753772313308615,-13.092888289744606,-9.115025818752775,9.246369643143865,19.873212473631476,23.8297156464877,30.950496584576992,28.035772698525932,14.496522457317422,10.859944279628118,13.457786123826065,7.299252502455072,2.409350982859232,4.056279264573888,-0.17748141856269406,-3.056146509664304,5.9384150332644925,8.51577383574622,-2.8793126549937362,-9.351788379444283,-9.178437897138886,-9.569069185276648,1.175175663863382,20.680516433346536,26.839287729574703,22.101052860309537,19.85957675918506,11.919099476773447,0.3274219979647399,4.821781785321285,18.806408640239965,24.695939067069794,29.883148682993568,34.46926981799107,23.08752157617615,7.272710824500092,5.229739418193117,5.112094161815943,1.444748711862459,7.377122945587894,13.31626089453158,5.096445057543356,-0.9057110764529696,4.364627972057119,7.754218958613724,13.033470149181012,25.637070568336032,26.598639771177112,13.972823847166651,10.294973819571418,14.321617384599525,12.961288009189541,14.26677496165281,19.73068830149584,18.050543400838766,18.41983098031589,28.87514427999359,29.117202383235004,13.514910275744775,3.7776170925899843,2.6238636381286384,1.9337119184322185,10.191185684238592,21.77933874525804,17.428345831489665,7.4018360826292104,8.774647488342843,9.33763464721001,3.602155556704993,5.599993770518915,9.239737308735137,3.1510524372081594,1.5537041802027405,8.458221551115592,7.281119392331744,3.4017390272321855,8.818580899306733,9.097326878691494,-0.3812866532148713,-1.3411588751563348,4.579268684989473,6.103041128410255,13.986756548531883,27.838697009012115,26.76629377411692,15.942154390210774,13.198587339418555,9.500003827331648,0.13739615387975412,0.06846500748587969,3.973871044751576,-0.5653635360513363,0.31230909944730967,10.04132818799572,8.589659227495552,-0.4615800146554765,-0.6108269204675711,0.49044161675987,0.4131368546655747,11.241501569083415,19.994282829799413,10.14266075260491,-1.3086179266105162,-2.6374001840854486,-4.199242456931283,-0.40121817774149426,14.77734418706361,20.933556310101796,11.64595988235288,5.7001681478410005,2.927504868678187,-5.678532256135272,-6.935121480014072,2.1429427619357577,4.253278761130881,3.2408296220707897,9.132302050083931,6.747313236463064,-6.563088985138149,-10.380270907951619,-6.190228805829026,-5.3428186663974175,1.6528967235381726,13.171802909528262,11.476455342620657,5.309215692410881,10.442744217514008,13.852763018992373,10.570935235889774,15.347508635627268,19.303524782936204,8.545041286262856,0.1294142494549766,3.2540803465497525,3.6112915309763967,3.5816126051224053,9.789076361942161,5.702306011896085,-9.262234391703766,-10.349973754465694,0.9379126054014457,6.192781840181071,10.726047916812007,16.91044912284672,12.56522988617682,8.005835796218161,16.06673884265241,17.929048841453515,5.019216748526901,-3.222608684041711,-5.4492688642910165,-11.27022809156228,-10.028296163792136,-2.984595025730554,-9.799601588404615,-22.49703635132134,-21.57967826675157,-16.18631192883113,-13.910998984763657,-5.10965437878145,1.9360174933717464,-4.0108421239813365,-6.691465627100614,0.9475131477495968,2.3525115867379096,-0.5546499362479511,3.3453352175076905,2.861767607073486,-4.264504051922746,-1.931914264396442,2.611919258821981,-5.078723432921908,-11.537333087204821,-10.355045570558737,-14.854029918582928,-17.24524690953234,-5.659189134399508,1.8320635393710363,-3.546010575329955,-6.107235264766654,-8.124899426545674,-16.513295667686506,-13.730051674516044,2.0199240506626337,6.846687560929235,0.5458658984618254,-3.155764252881651,-10.591653915490182,-18.790670968336524,-10.516108474319282,2.6445593424223626,0.7434351318299375,-4.544130129998863,-4.785265720045576,-11.553368828899933,-17.935027260505603,-13.015658698977376,-12.009338370411701,-18.67613531632769,-14.620463255591096,-4.303805192083136,-3.0070185469093293,-1.2832141190707143,4.764794593239829,0.6332351599091091,-7.452912312101728,-5.627631841012685,-5.107899836669428,-8.544194634747514,0.16303935217323717,11.485256529716215,7.029595589515497,-0.9453541418722304,-3.414160918149643,-10.15456598030664,-12.588400131665525,-2.5373643045508323,-0.9311822753095045,-12.712662440068936,-15.223829204680317,-8.205170799363081,-4.586108739552179,3.000357425389483,12.963627740558898,8.439276336182001,-1.2593518699031763,0.15123805004932223,-0.044031673881031574,-6.87861031391853,-4.442114503369881,1.576487571126343,-2.022819499483747,-2.8719356513309315,2.881931588478471,-0.21845977747013912,-6.445669074039328,-3.4489738057392074,-3.8299884146621324,-11.088941526526634,-8.369045351041175,-0.11166537404746402,-0.5944810420490501,-0.6827648771096493,3.0660587145264637,-3.04137189521573,-11.535935611963401,-7.051052232815661,-0.7327060192977968,0.5748388363341586,7.819509258372314,11.633943917460273,-0.8430210396478186,-11.030114532253112,-7.521274577775193,-4.91522827949851,-2.636710519421416,5.966659675148787,4.701405612505076,-9.029034894398503,-14.24270329370135,-13.149183841509554,-18.91695017442743,-19.69067601892273,-11.083993110391848,-9.07955871136947,-8.622774493565213,2.9495326507700224,11.44692658443366,10.622728539446882,15.406306765855179,18.91933011848049,8.369678432668094,0.6110454220673931,3.176341089642739,0.041287856050909344,-3.3931961665065025,4.826696550753132,8.436761092396532,1.3015634574999813,0.00807011022536508,-0.9563122117858904,-12.370823311805971,-15.814300749579271,-4.539532712305334,2.45582037268647,6.118815814174084,15.77943080932079,16.681755673292386,5.5091179667675565,1.8581806087908062,3.0311782824198237,-3.114484140762297,-2.8092888542889254,8.09647756503797,10.844609196454497,8.610898525939476,13.805937390490673,12.984098822861892,1.729371735074853,-2.9697729585365766,-5.314231343361116,-15.44818258640792,-17.21915957823797,-6.41745179326095,-1.6419172556414836,0.059281330332620716,8.99552119458374,11.201565358752648,3.5548387533773704,2.595717456146574,2.7369995295084526,-6.703900416490361,-9.344641791496368,0.2946121874866945,4.27996790094486,4.544667187225194,10.689103612026235,8.905607787762012,-2.16288373196756,-1.6989213030397021,6.2392335838347055,4.716022774555498,1.4895889616114686,-0.41711455442006795,-13.747621406000748,-26.764729907648828,-21.13012062912646,-10.371056612263608,-4.707664333144765,6.631858235101842,16.551785231674735,13.37308023144542,12.277663743674646,22.921455786692423,33.51480221891129,36.62461272768644,32.86061197309289,24.0509323786195,11.893239031659451,3.1828587810619418,8.814852485839378,17.938252779035324,9.563962073129074,-3.8949318271465474,-2.324991234284811,2.4746499423396338,2.3299069980387905,7.345530993889595,8.03108078508641,-5.315591204491622,-10.873655207102697,-0.5253428250057448,3.7527332933841526,0.6202027062391078,2.5312100982744825,-1.6678035685971426,-15.158748643371169,-17.36028062697927,-8.942215087624243,-5.2311821720841145,0.6750586865715462,9.888361282106112,5.065916749966993,-6.8578409591238785,-6.926955750818969,-4.115194709709879,-5.465627637282824,1.306046305725793,8.52143581290563,0.5806689364818767,-9.781490648577606,-12.65929006594741,-16.917054800782225,-15.523451781349586,-0.8158804768094132,7.2943299686826935,0.3927969382351586,-4.67894453650147,-7.7607185495287,-15.359005114634616,-12.501776492373434,2.4217380340534076,8.529221307304907,6.812071168595731,8.078256026441904,0.8970670204383229,-13.571646572458135,-13.087459501370475,-2.7149605464031774,-1.3673076538302895,-1.17494843636653,2.6434983271703043,-2.868621817452782,-10.00071564139878,-5.287128879188531,-2.620356098055497,-7.619217870633237,-4.62469067348672,0.9463074163184086,-4.013974205035714,-5.933126352351401,1.0981145463757143,1.5083127640795342,-1.0180392565777727,3.4369074175775136,0.9072013934247103,-10.237609688858964,-11.138279859146422,-7.4916548675870915,-13.393532976075669,-16.989365751208904,-14.639449200439856,-20.815818059668178,-28.603970523938564,-25.74519868263337,-24.68799627690351,-28.660313864403395,-22.861909537706435,-14.47002497831351,-17.30031022319466,-19.075481452914147,-14.446403957888222,-17.55103654580375,-21.60330273864977,-12.998774994902075,-6.754755610465574,-10.469088615176933,-8.551258836569806,-5.995312811894842,-14.634397442971057,-18.032807343184405,-9.721845198748312,-7.2139458827371215,-6.93384478556739,2.6620891912639215,6.507283094724004,-1.1514062413195445,-2.828019056543077,-0.6894239494480143,-5.409817343100335,-4.070836113866692,6.229878615826115,6.984728245645547,1.6352384005102565,4.107231528624132,3.326316674887874,-5.990784634004054,-8.082292654840682,-5.161661910051279,-7.543584455393059,-2.2644625768505438,13.296872353261818,18.353583989454965,13.71566400478245,13.52595282168175,9.034653756186847,-2.0703401182095162,-1.4190586410623274,7.956664172082995,11.092477693161587,16.490611278246625,25.1850497109472,17.657599577433785,-0.1852950642047766,-6.157409657857663,-5.394976058012491,-4.4829488970149605,8.226362357794546,23.58475038909222,23.377993610614688,19.775237799581614,21.566387399137028,15.65255863911209,9.160093751957373,16.75318088887229,23.736895151587245,21.359729784059727,23.446264247201864,24.62959683447418,13.029784252431337,4.639891802699903,7.6285185739795205,7.393906297573924,8.673673650786803,21.622633894251578,26.90578943708854,14.875646950400721,4.393822804238725,-1.4547356767107829,-8.89950787850777,-4.293244532422573,11.72696996973099,15.853278331170864,9.691473817421176,9.275524510596238,7.639266875604064,3.6066934591784063,12.796559553437303,25.80264508292892,19.027648010659846,-8.285496495005702,-42.59666593858264,-68.82547712941879,-73.76758084449119,-53.071809246146685,-18.922298846687482,-0.10082482177734109,-6.146421389374857,-8.834295902775548,7.598866752376739,29.09036749875349,55.50611108155281,92.74172911260311,124.00741156560908,144.37078240508666,169.51734011001128,190.05387884780671,188.53438084662724,181.26189269993583,181.0817051613841,174.67106031078717,164.7734371173065,162.1008120356906,151.77302320410556,128.94068870288302,113.32237957107624,102.52563087915537,80.33424927928598,54.5073147009945,30.595450794333367,-1.015682525817855,-28.86074552023815,-37.940265923561654,-46.99352181866272,-68.641480267307,-85.77815060108689,-97.38299872880083,-116.0275866822966,-133.2533788352286,-146.15265371934538,-166.49461951064004,-182.48388565850303,-178.50364940740727,-172.01456193717473,-177.46265356897644,-183.58096245260333,-188.75780355862202,-197.95069360297592,-198.13603897297506,-188.13100853963786,-186.7603146551879,-189.93047866632958,-182.30427360276224,-173.23238059555246,-166.90991953153582,-149.71806472940068,-130.9902989200373,-127.59294175369641,-125.71680051833415,-116.2063025492768,-112.01068321787844,-106.68950376498489,-88.97823953076394,-77.90917230850117,-82.69699320241847,-84.49907647775076,-81.22291090751301,-79.67075159261094,-64.33351504214266,-33.59690835001467,-13.582208443950991,-8.995694311941117,-5.973893356697657,-7.99972595985614,-12.316240612607572,-0.9797480265474681,17.924057933533458,25.019464103087813,30.105878592340712,40.53140706837176,42.355106669043934,40.49248877882865,47.785772757161546,51.26562626852935,46.32199115481757,49.83436709640515,58.50657243265246,61.24334233679224,70.1114805372672,85.58743993193987,87.50159242577683,80.70691059083772,81.90911201296527,81.78959862118367,75.59286103385116,78.55692593597674,86.5525222909609,87.13943597934386,92.04595761316926,102.51575200973676,98.52672531415844,86.61496257358368,86.61242489260867,90.13741784797847,89.43504229679526,93.2475675161455,92.57165736499223,77.81518239354682,71.82404361948784,90.31224058166615,117.41527439374504,145.28508903998835,172.7584768523838,177.7415440476836,154.41717404410016,131.67165478288294,121.81529951596328,116.56223703472207,120.84440850488006,129.69213309004192,120.5002502825374,97.85597125756564,81.80287630991992,67.72919710810388,54.0467105236588,55.41094362577365,63.803657914529005,63.2480533678445,63.25905431582092,66.2619112880309,57.71313872810878,46.984301730030396,50.4275449551115,54.06940161059784,48.06874648152432,45.537083805884244,42.989750645610016,30.25365390595764,24.016213430508806,31.762205186028112,33.89107247277944,29.598501700706144,30.339535320023842,23.124039308913858,3.533002779960495,-7.218341042940074,-8.744707089520515,-14.560595464463967,-15.090293657724674,-8.995881494761706,-15.292377494825754,-27.834905532294496,-28.858400253504954,-28.9491404327298,-34.89627563472529,-32.90546672912594,-29.04344974280834,-36.19386008875176,-38.56545305719063,-28.17648277433313,-22.925504788697523,-23.639227406660265,-21.343539268929824,-27.7153448749255,-41.651709678105036,-40.77412447261187,-29.89110142789709,-29.017573070103058,-31.084125711135112,-29.30845590481265,-34.630675253826894,-40.098544421026226,-34.819120851438214,-36.08996484473299,-50.356232583109154,-57.072241486730974,-56.381396328451586,-61.900461806759004,-63.28705387626448,-55.47743778574851,-53.20596272201651,-51.34289427235174,-38.99731023847817,-34.41856873004125,-46.787158823997935,-57.55933382580422,-64.03548031760944,-72.51207453231497,-68.64115308113676,-51.71833933718961,-44.94844626142252,-48.95527605227723,-50.49611718408674,-57.752913457171786,-70.1038535736871,-60.317476800087775,-16.529236878062225,41.94938254079388,88.58481816741042,104.88579247534562,84.03317491594358,39.73251748741724,9.227468958288672,15.313608323566925,31.010007479873213,25.31962946088512,10.786456467186396,2.7105473054393308,-6.441494359826526,-11.230773330711733,-5.009933108292468,-8.14969804943203,-25.186597437340186,-31.176546435273913,-25.8362549161152,-26.05675160485314,-22.810306979437016,-11.117735795172248,-9.233644029302033,-15.350599971538838,-13.501711791222219,-12.833415174944196,-20.96172655029231,-24.272137814337952,-25.75490587400101,-36.75731269603225,-43.319727024570746,-40.83184747402299,-48.689883006803186,-62.1857372151191,-63.10951832812412,-62.0095330714383,-66.94314766123333,-64.58077148797346,-60.684697678147614,-68.12073765147402,-71.35959281874266,-62.414624111716996,-58.38102133613522,-57.9776795522867,-49.447707891098304,-46.354601868156735,-55.35672790658422,-57.38891826875055,-52.179556692121096,-53.299950787665786,-49.91349203382151,-37.39764706848216,-35.19360910580718,-42.18724042885383,-44.3838103996455,-52.397726338810216,-68.87468426724988,-71.85013752732605,-62.16843029094649,-57.51184258267112,-51.85151760092257,-42.91041587816423,-47.76030973721829,-58.61495908592715,-54.59984079098578,-45.4299361678668,-39.85276392091026,-26.243875594052838,-14.120757000926439,-19.116086611662087,-23.762514759010873,-17.1993049812482,-17.032652448955133,-22.566489713044405,-20.884736820372748,-24.536132361486573,-38.660442500527026,-43.13272317896033,-38.47558430925183,-38.840932976231095,-32.801227549197264,-16.07122863279273,-10.380502492277767,-15.424652238553964,-14.438884381229173,-15.236160443245183,-21.346985718342,-15.614134891771004,-3.1202859358965203,-0.3006020953820918,3.1744409277280403,12.977695215587632,14.24193109715496,12.274503073169491,20.271334944391125,22.624093969629193,10.22617198179556,2.2955928467734807,2.5855300064078133,0.4350467452316049,4.221750253484069,14.059519382943506,10.642753612410942,0.10689224947147036,1.843069844475932,5.465747321569023,1.5856540830740404,4.838028528471334,13.463553543616115,14.714878201345513,19.84648983073933,29.01498100462704,13.900743802483326,-25.652145467349367,-63.21564994370177,-94.28724754279584,-112.10156207006362,-96.71778812409198,-65.61731066755412,-52.011367828990586,-48.66070526554161,-42.5617065910058,-44.06857030833905,-47.45144605954163,-39.10155781010644,-32.81446318895241,-34.70844878856626,-25.992695464367564,-9.394120713605334,-1.3517837011296465,8.098496712418497,25.24900141820132,33.51045002457295,34.98637909558538,42.92220192373266,45.2628504120337,36.58449073019996,35.49415929589398,41.5531778764346,42.80306733510827,49.816649643731694,64.30508853465098,66.04849694373172,57.95454658244505,58.39393686191665,60.81187972227532,57.98920254686231,61.501117876495066,67.10255064171885,62.82270275219261,62.91082360195307,74.99668190830269,79.53343731737847,75.23135160637352,77.19276228886235,77.7282895634774,71.8651497295031,74.69838330467013,81.1499647987002,75.67741151909294,70.81888289328838,75.0486361831064,72.72759231664797,66.85810234610165,71.89053524706267,75.28772960593476,68.32453271463405,67.47513333676811,73.22673163675233,73.01716100335025,76.04069385896415,85.46579428341792,82.7166527604327,71.4165206483821,70.49599774946022,71.64481745250232,65.1388762692818,63.10527537862256,64.12312659100485,58.61816189752464,59.492318260193024,69.9813296826044,69.60137406791033,59.97922821205002,59.00474000785316,61.095202718651535,60.88045997313149,69.21359959867237,76.29386107066247,65.63864728973583,53.37700173327315,52.53481661347134,48.83560900847496,43.15920465025723,46.84930811418887,46.192335371697716,34.96726837240859,31.85870420421548,35.101805491092286,30.043355673585488,28.713994302282973,38.781846245223996,42.475875136795246,39.00930795006827,39.971252899127236,33.579019025860255,17.044402481296896,13.290961767743967,22.265299979822593,25.66014568304811,28.196616041783855,32.348935992514456,23.06145498444137,9.413980582532272,11.665702259713067,17.412304300672883,13.578983941120487,12.613915303759814,13.16737306753982,3.972246782454459,-0.6372747199281523,6.6176525217341915,4.903216127932189,-6.476482828451365,-8.800967226463964,-8.063092931481199,-11.83696579893706,-7.456476682036164,-1.2594396232693699,-10.702529222530488,-22.22508620789083,-21.850581461702227,-22.52476217001803,-24.856185865296432,-17.488526011436694,-12.458886293920253,-18.19382398795966,-19.34535896951924,-16.913469266860794,-23.61367693143147,-26.68960559405774,-17.897385367829436,-15.705451807732299,-22.09437338530383,-22.99958652267747,-25.962438136764032,-34.585251993200586,-31.328963801516174,-20.940226122139812,-22.707401227458988,-27.443346838220847,-26.024747832715406,-31.841721150339318,-40.07757978031023,-34.68999257846363,-28.024596350679687,-30.31330295322261,-28.12549286574954,-25.08105518054145,-33.88878401505752,-39.07591699112001,-31.25846956411172,-28.870101856205917,-33.030895044402016,-29.931855165840588,-29.207029601981993,-36.301266555530866,-33.593728854028804,-24.267109894634885,-26.339244974023952,-30.0197724438654,-25.987616890258007,-28.785481272240315,-35.73058518430446,-31.8137306983741,-28.68682100749261,-35.32970821052382,-36.87657092136632,-34.28677497500187,-38.3208309541378,-35.80792899601039,-21.740066700911605,-17.16704736143106,-23.97702799108166,-23.960104112564466,-17.857647455979446,-14.1474499189769,-7.382221781899872,1.0193939619775363,-3.5019170340053916,-15.03655163850378,-12.476978857884344,-4.008745452134862,-9.059946581745418,-16.354440627499567,-14.99575136221954,-16.555965232782096,-16.785860856751782,-4.815670794415164,1.105377748175238,-8.931240662378576,-14.440533756466948,-9.878307916642079,-7.251417030344395,-10.293496978009308,-20.94610456388216,-35.45252926584535,-43.258872182711826,-39.41079950039379,-23.506427986784367,-9.229587679598126,-16.222897098883852,-32.99448438005964,-36.62831198749283,-35.20868864570515,-38.14805369982061,-34.24415922242969,-29.286401425437546,-36.864188700953044,-41.71109813214648,-34.949132302685506,-34.11172953324491,-36.1716628928167,-26.03490462906512,-19.015486526818236,-26.284225375588868,-29.07767991902233,-23.387747220734397,-22.097643425103758,-18.79894558865307,-10.633430076749173,-13.839059357347825,-23.59678068153218,-22.582575788534776,-20.77893993030935,-25.697208891591572,-20.999357936565964,-8.565304654732307,-5.565179650313941,-6.499020091377673,-6.2572094600680135,-16.637562421761334,-28.465406057913466,-22.489648634916996,-11.987269066939007,-11.653491278703305,-8.769568962836228,-3.6320285549414884,-9.928564153928725,-15.82334238601575,-11.410443416534136,-12.897661302561504,-19.564140436224427,-14.753264806416968,-8.36613661190549,-11.26144321863182,-9.474606163221116,-4.291698476424971,-11.197724342287621,-19.567679003930476,-18.070396932286997,-18.8178772487579,-19.711908055795394,-8.94072308375048,-1.60953125637621,-8.314960997289518,-11.854529944005414,-9.783692443003616,-13.589554921728876,-12.60708683183527,-1.5399553527474348,0.8403447941829535,-4.8280174139104055,-2.4413722604964865,-0.8088036869631754,-6.843445191341774,-4.476812808488854,4.025184516028775,2.5656572878613186,0.5112706313497299,5.983588656169473,5.004377748307274,0.758176095911502,8.040004286353133,14.538514879733162,9.363838476776685,6.819711198042146,7.848607761713993,1.8371731096756907,0.3491711090807048,9.602071821231107,11.912334218234003,7.927914771113388,13.75274642074376,19.751445163588784,15.431039354631547,14.399264328980635,16.24275115074625,9.284140224878463,7.599148371022993,19.695191254047646,25.56260111023879,22.541037406430288,25.02223969622322,23.84115148528377,12.605237861400356,9.997857002059806,16.198322493744975,14.773489803934133,15.246479874721802,30.76920315375241,52.00788115152543,69.09168180504228,78.2126171436504,74.32578952217985,56.17827778220756,36.642868101489285,36.5999026733174,50.993042999086924,52.3973617268393,40.263149600336774,33.25448462644897,28.542640209604304,23.196428962722052,29.225888728067382,37.34929197876559,31.337206325954753,27.643898260179217,37.755203688127374,40.452208931255875,30.27676075181118,22.911611454169197,13.21797326868106,-3.4708081466116267,-9.297755323625127,-3.9537374854614296,-2.446634604074021,3.3921605586872463,17.983672969496922,20.501487065480394,9.815485372559657,5.529749571199629,4.156558189929077,-1.0273858954810087,2.5387679369765244,9.834547811873001,4.167631522251236,-2.8191445172558924,0.40456611941662013,-0.32075720270523167,-5.17456095774932,-0.14596792674908388,4.339824557451177,-2.683484695739373,-8.487979926858904,-12.313240075330244,-22.907040829699866,-25.16717372263047,-11.40834080140576,-3.53662688936282,-7.306624603917222,-8.614101016304225,-12.202999685961439,-20.881419142892412,-17.52715168195064,-6.274200435547809,-7.378688087697548,-13.08251931047722,-11.95594063485758,-14.956188350455674,-18.948262910670497,-10.056195602521862,-1.7872486016676778,-6.269125757349051,-8.791320449460182,-7.315098748214702,-12.360158905865227,-12.346614834257819,-1.8054716559810413,-0.20170531123681557,-7.447656068582304,-7.4567581096085185,-8.58921462180638,-17.044984190025968,-16.48438852912176,-9.248033608720526,-11.832207646668769,-14.444382102443466,-8.339245933591986,-10.650090899470769,-23.47662567357469,-34.53019931870444,-52.973466274856435,-80.35750671905375,-92.82564615314877,-87.04074379019082,-80.23228110768318,-71.70126730372606,-60.77256564374643,-61.23337928547485,-66.34244077916988,-59.06985563571817,-51.05097539702375,-52.870624802138394,-49.36245396980493,-40.432638695320655,-39.66771623914504,-36.234892644462334,-23.013760635190387,-18.42880088520351,-22.290235995644366,-17.458008855000564,-12.627041022143324,-16.74024466793569,-13.586529760532144,-3.352910891282292,-2.436649859477189,-1.5958849303444005,9.54042666719361,15.195056355619272,12.604617648571555,16.007921037129556,17.35066722887163,8.464903011760704,7.1060136918959405,16.014833444240022,19.828976354792182,26.11268559661267,40.368035124717345,41.26008066189908,26.570588702844695,17.2089457082864,12.718807904365685,8.946886414708512,19.63648314887629,37.1950806732188,37.91821474789307,29.205940636921053,25.45324086199365,18.005480485851418,11.529014284020949,22.228983489921816,36.569509765702634,38.67305904026213,40.29829124293971,42.098091788433344,32.142165314428546,24.840226551741694,32.26490382183203,36.7614106107433,34.558484274704256,38.66378481607332,39.43388465019615,25.577020483274616,8.816084557002595,1.5788792668002778,4.775501219962218,13.726354700265517,25.035729708927125,32.095931367739304,21.735744839996656,2.4911889018760656,2.7942537500249367,20.123607464962546,30.651128500247047,36.155998657227975,40.343858344277635,29.57479029370311,14.53584797927852,19.768059070425785,33.79995151878339,37.681580891712834,39.87377420198873,39.26440768753051,24.713439267353102,14.611479309651376,24.11459607751729,32.69703434051976,29.483657285228155,24.70624297375486,15.699049041853925,5.1506734759784605,12.347130950120476,31.48479823875604,40.383784804534535,44.79317504825738,55.48238388860714,61.27106815409812,60.73088822099101,64.17011378144126,64.41754927758363,60.950963072139075,75.35727869055097,106.39381704959042,131.96838167405753,155.43700715460878,183.898194749112,201.22031725135554,205.83845844337344,210.014808531746,203.44679410685234,182.59344058510004,170.01165248434444,167.29232069862505,157.31352179015295,147.08954240715804,144.0945252226157,133.3860434220914,115.9027713582895,106.47309187527642,94.73981580095541,70.86880828465715,51.0100306522551,35.87041166069378,9.525402285471667,-18.155713329797052,-36.89279254686523,-62.31612525036864,-92.87871033429802,-111.37322308165163,-129.63376793330588,-159.0098180580603,-179.88742603615526,-187.93672640570986,-198.9976936074698,-201.879760363445,-180.47845272883103,-152.10847650755852,-133.9003387014499,-122.2353119497457,-125.20995457895347,-154.3886919432636,-184.6531575187952,-186.8686952488521,-176.51998292300874,-172.01844060423122,-161.56826106525966,-147.8587343223741,-147.90031733342602,-149.72501955146288,-141.4399852922975,-139.2888948790922,-142.29497906322416,-131.62366183859422,-119.19816480135128,-121.25287105800774,-121.83610203199596,-114.17130540526378,-110.58968320933597,-104.2676679815771,-90.37124327744662,-87.17200083847447,-93.91785647764394,-91.15216268377294,-83.49086896654467,-78.86296838698654,-65.09350500056627,-47.361116297263735,-44.70047216268779,-47.18348842220114,-39.93788427426356,-33.10018617257907,-27.2598744411285,-11.700760728527023,-1.6484662126193763,-9.849539475944848,-16.185712922977828,-12.255991181859955,-11.339636805896262,-8.202393504668901,0.5419719313374185,-4.5379478582523785,-19.42325163645091,-18.2691334538612,-5.0760004629954105,5.154074344672789,17.843066516403514,27.95081300713443,22.64660781940982,19.042526281340507,32.08215215229349,42.3440286055516,40.48620078348426,32.934669379583156,0.9899274211347695,-61.856626879346344,-117.23400953638739,-142.19475516034157,-143.89883379942754,-120.8821215201337,-87.0631103767331,-77.66582767879518,-88.23640950606189,-83.14352836289753,-62.78400310023346,-47.86610788511901,-36.154693284273996,-28.29916469249772,-32.848154799450306,-32.82714616315779,-15.223919100867398,0.1435062363635633,6.890239565422502,19.912223614562862,30.670964345870853,27.209108165046576,25.55125219628826,31.636266140427693,33.213432996167704,38.544836980597836,54.101728964765684,59.33346047220407,52.892795972937186,55.288516358326405,58.95632088141225,51.55650848271422,50.24062857775975,59.76426883009551,63.9159820870331,68.67598349642284,82.4911463227062,87.52874115764774,80.5373547135329,79.7343070588073,80.15720058466859,71.64541512183366,70.2323367453602,79.83673454498876,83.69034011025363,86.32120376958734,95.29532262838,93.03515931568691,78.40002813726349,73.5410099881552,75.86546021572197,74.82470195799145,82.43638608989566,93.57980209832553,86.27394568680785,72.77170242715019,73.90468480075472,79.2840040774715,83.73904214808132,94.46720510681496,95.09861282614108,75.51238751859516,60.66946415759499,61.64711475240732,63.02297394790571,66.34183503434852,76.60060222690643,76.8906397376329,64.95383938624762,58.29175250760508,53.69172905356761,44.98284914366143,48.617274085113856,63.93114630648716,68.23784544554007,63.44897665630961,61.60972538598793,53.90557294102493,42.19338781229089,41.77064831017317,42.34845195568474,32.7937714306535,31.917634774113402,51.02936709997358,82.37027904825467,119.05099292109827,145.06765999009843,145.80897625202803,127.98486928138075,105.55810648716854,93.52721583486573,98.33052851517034,100.22071848786828,85.43678268509599,71.37145575686253,65.42716938808303,56.28824518935299,50.950654996569774,55.02403124827104,49.56400483921611,33.64140789078146,26.461010014474258,20.037090562465202,3.3682520636043423,-3.8133738842728255,3.559228039150401,5.037423159617078,1.3399581603182127,0.396605388257237,-9.219175736079222,-22.79992787291868,-20.320072764970874,-11.571493388843114,-14.268426849586266,-19.598959608979857,-25.687838465421216,-42.366804931414876,-53.11356822092486,-43.072634036548195,-32.46638528062934,-32.32990478407884,-32.26661521166472,-40.01430236374975,-59.74899043331966,-67.67181432844953,-59.798393133496916,-57.98703539500828,-60.80921275099579,-59.320830440079874,-65.91104537033475,-77.35804091487759,-73.66759940962088,-64.0703284224917,-64.23759455019811,-61.91901437108433,-55.57835220546226,-61.045008135438145,-67.8687914946953,-62.12461435703325,-59.879563627025696,-65.824059132474,-64.34909198032057,-62.256549748189556,-68.7626211912883,-68.03889244609097,-60.21925963296586,-64.5241237186097,-72.83808132600602,-69.89123658066661,-67.38593128570588,-69.16597152840174,-63.74355769109509,-62.46548476295255,-75.98957556681557,-83.43392886744832,-76.2328619953274,-70.69105406791866,-64.4313100266862,-51.78795112444267,-51.24104445480256,-64.59683198611854,-69.94791527535467,-68.11662989467843,-68.93938136905213,-61.67990894230417,-48.97331238805758,-50.305065426676066,-57.75468131350517,-55.764786603648034,-55.50093183907056,-59.9546645765893,-55.641453217320816,-49.6914772834103,-49.75065041292232,-40.18073061989253,-23.092673110579174,-21.1785422171383,-31.02690039128562,-38.573652870040476,-49.80818234748265,-60.252236312714814,-53.34468899244296,-40.81641539866759,-39.93138628681813,-39.434424847813844,-35.00187160272944,-38.984833703191725,-42.1415904983198,-32.73817821566789,-26.744649091780126,-29.094912318549444,-23.38117619348789,-17.915355135115075,-33.39933638680928,-61.57865871380117,-90.32410296187967,-119.2337662214508,-127.72165687340829,-101.45132629356814,-72.35812987835189,-67.09180729976406,-72.66086594441,-79.53428763988018,-84.5798727555715,-72.13957680414663,-49.50976425725398,-43.566890325562085,-47.67775227518351,-41.86133595030053,-33.868817083145856,-28.297535071884255,-15.920413640711324,-6.939842548238584,-10.454099867755554,-9.093773860767682,1.6438327969516435,6.335860739868035,11.062346415878997,25.78838664123661,34.01039593562186,30.57059118005467,31.766156309901145,32.85441124842947,24.682230494384434,24.339410994207242,35.84052030562046,41.56120087540786,45.76839649667981,56.35506677250102,55.407393220592304,40.58728944744559,34.208593141480485,35.67446604982045,33.437122146838625,37.54899876899822,48.32865335057465,49.9704040758227,50.45551396676022,61.17002856654274,64.75026620571927,55.19509870515273,50.51870224345252,49.98565531367533,46.32009150232392,51.65800033334652,63.397308131328515,64.49106418096787,65.21851682954873,77.86966017294351,84.6821479666573,78.44185246264873,74.28597555936935,70.71649656280118,62.50753311804413,63.017483338022764,68.87293244730567,60.75820696906874,49.10803960326288,52.13934022255554,58.33601371625644,60.12279245709635,65.74222773284289,65.82841047283557,53.28004893853439,47.61429637081529,53.91436580861908,55.03056339245208,54.778611770714704,62.510788546319915,62.681937439446,51.94860273464933,48.46050139996153,47.722786836900184,39.48403304740632,39.241939065039475,47.93775708497364,45.428249691518126,39.036964305220174,44.076731917348916,47.25870732660552,43.906542101131336,47.86524176743533,49.75876355199287,37.48839021862378,29.556196703536948,33.68263383536496,33.087654748624246,30.400418747665952,34.298180148891205,29.710266512596377,15.711803097703132,13.047486273261287,17.809087959997832,17.20152562408333,22.120004018576886,31.716615659118425,27.840185242450943,19.037015170909026,20.210090409080834,18.47672245760304,10.82118715538152,13.49893693927085,19.268012886618536,15.342705416234352,15.488465855048494,22.044511469554397,17.592101453658362,9.443611924338176,11.833284667240076,11.91106932041647,5.5587817474497285,7.627382291592433,11.534442412573686,5.825310650661748,4.9138192542332915,12.631702372285243,11.95405452289485,7.521298553663316,10.94209317932136,8.826304002986262,-1.3620326413461141,-2.261045733182703,-0.10944330739260266,-7.8538252951165965,-11.736903913838656,-6.953047839525264,-7.683384088122941,-7.073465444422545,4.908435867628203,10.607211921127451,3.5210603877037023,1.1525039042194338,1.180244637182946,-7.151773012954026,-10.243314026589516,-4.22485141165614,-6.41998334758088,-12.507793852429364,-9.628472443377124,-9.493896078666857,-15.43878779201653,-12.294915420799182,-8.021361003635032,-17.367109265997584,-25.640066210850044,-22.855820294303538,-20.134276463790986,-14.447791905201179,-3.0403133046432202,-6.9487227055546565,-27.740978708995208,-38.824124332610296,-36.16276267862011,-30.511484859205588,-16.117671817953564,0.620284799469875,-1.2312938992573117,-12.85268465419806,-14.688007638481487,-15.530084926989188,-20.251370679536286,-15.968668365921673,-10.587848949915212,-16.964844169788464,-20.58806373216961,-16.28450312254217,-20.509307050370875,-28.463762723925235,-27.333380950184647,-29.07840484549932,-36.66630826293608,-34.01563339194274,-27.789454588491868,-31.647819431860963,-32.85095203790448,-22.850800389625626,-12.579753554963215,-9.230276445421676,-13.309330347221936,-24.041556663560964,-39.47729280905672,-51.302282821067564,-47.75849484628108,-38.09130996600548,-41.136610653747546,-46.590870093460985,-39.25485553040643,-33.5063694115278,-36.98978381308028,-36.59602579483484,-37.063678087504634,-44.997903776768275,-40.84576224407627,-21.847158470493508,-12.125107508616392,-11.655353965958376,-7.029446235983898,-7.680058495067883,-15.128266855951413,-13.285211541653236,-9.936132570998648,-20.284309106459904,-29.785428784317368,-28.31146688530346,-28.127640495577403,-26.033195488294947,-14.799365449126311,-11.551023437105666,-19.83959616823024,-19.265077150087023,-12.893054784038895,-15.333276662800856,-15.462388485623897,-7.873606830340826,-6.861284133646694,-7.967697418019233,-2.0012189977854833,-3.9655613293005567,-14.962787880063697,-13.313959948589364,-2.9048506927654425,-0.5329984545745897,1.697989561316517,6.17837156160074,-0.30221910750707526,-7.061265001842402,0.6432751410486914,6.451504281274827,2.0317412829411787,2.082856840701091,1.3456425031643873,-10.621646648724953,-15.918809998704464,-7.6645829514006705,-4.2015189452597745,-3.890263646378643,2.7422609467825425,0.9242340700311689,-11.183556604493177,-12.473950092074448,-6.345795540932272,-7.311077097962887,-3.5377338597194457,8.876619347761865,11.177737571509677,6.233495753009024,7.858498889664998,5.4181815634122845,-3.209666755018292,0.36308105827987935,9.66579970254863,7.0552962379922555,3.108573092358652,4.211262523776514,-1.9869712322243878,-7.327225643995302,0.15984980213023103,3.9375844975294627,-2.11606230156566,-0.24830234025536502,6.420454425422584,4.818217532491367,5.463782936913094,11.144045262010934,7.359335395477222,2.527160403396296,10.614599516781412,15.821474178849424,8.950497826399669,5.857699668449262,6.829836295502735,3.0471073510421975,6.49474548440504,18.26390349646886,18.82186296185079,12.237523023296255,12.596040921453866,8.578936862990096,-2.422904806937808,-2.5350745999925732,3.7748095245384183,3.7299368374817385,8.328345896653854,17.392174215154434,12.372207206850096,1.1299426969106188,0.2854385372863264,-0.42648136909447665,-3.193516001502169,7.300352521459535,21.059925017848098,21.36717101632909,19.750767767549764,20.03246225117472,8.55884779043087,-3.682119682915051,0.1261077708737508,6.493111800488158,7.094877474267257,12.671695213726515,14.144812573911128,0.08440456107353711,-10.45739032285081,-7.732622791350659,-7.017345928798207,-6.17675659444959,2.8055975524246994,3.70436400819081,-6.847016180177015,-7.785507275035387,-0.09336931410850724,2.5884804618035373,8.786776955275522,19.12889383210774,16.353510793201615,8.00477973274576,10.869197156943777,13.307234303342074,9.992002670595015,17.205306584919683,28.283867241906986,25.736434440256104,20.12454261840535,17.521649819572673,5.694094812237213,-4.450211572489902,4.384316912357933,23.905217953177385,51.944511183128895,91.00627585777083,117.67214489139951,116.82402461805474,101.0988815321951,78.83403623923812,60.112296674732676,60.9054540477174,69.2025029744973,64.7644673412899,58.0516260609872,57.5502374378015,51.682911816612666,44.75301385998939,44.21096651761734,34.38138320717697,14.888433930978366,7.329363717912162,7.617526201335667,0.896886766003937,-2.1673076649118044,1.5965562421398267,-3.8340101485459734,-12.026365706356392,-9.00016375770247,-8.286619185852821,-16.312014304522954,-17.969023736032412,-13.916142883846035,-7.733991684120327,10.206975640436541,27.467613464752482,24.359317157140225,11.188478961392551,-0.5836558691139162,-11.026921583155568,-11.841706014073136,-8.117025271162,-19.444449319678746,-36.8469616251399,-39.494480057609685,-34.91236358325354,-30.006268168978703,-16.339828908431446,-5.797684614628562,-12.488267493176204,-19.311390199328763,-17.528000258084663,-22.3921990641989,-29.162099758813667,-25.85375712768932,-27.758140877689414,-41.12949415326841,-47.665891245941694,-48.04750233206264,-53.715513478266985,-57.232623207211816,-65.59054405584345,-100.57416034158946,-148.11064852821528,-180.09787282786795,-195.63072380548522,-193.27467790502072,-166.9362633248343,-139.3993017074029,-131.34080975757368,-125.03880989079762,-110.07833984837498,-102.36531611462387,-98.33577783983924,-86.13784933773316,-79.85486417549555,-83.09203797435347,-76.91406571568216,-66.8607379880832,-70.36170410850447,-75.51497421138663,-70.8736466581464,-66.0474022402669,-56.86742411798832,-36.82339482700348,-27.94536673562988,-39.85877958475877,-48.79199926816575,-45.70685504905175,-38.30736883567939,-20.388237719302857,2.911241267260287,8.94513547910849,2.6392340092154507,3.447181540803438,4.440423930883421,1.694991791793751,11.226889667408475,27.457135130689373,32.759826384577565,35.07650067122758,38.52981519079817,29.004421842282404,16.01811905763014,19.763315873702773,29.245397063682102,32.77650953445081,40.08070573158799,44.302050310938995,32.86780284241109,24.50630306064192,32.470814146935695,40.82672242452483,47.03556094654486,58.80524018410715,60.87915656804943,47.28685757498543,38.71233151266964,38.2203694354022,35.656410576253705,40.742688782991024,53.75027621052508,54.90730359196818,48.627885556002944,51.67540666408209,54.03119231034324,48.13498599554194,46.773224370607295,46.88949230229135,39.2319272684723,38.224666239521255,48.43833073426043,51.04715292316351,47.80015133395189,52.842327867926464,55.63574150651642,50.06788309356129,51.29481576582531,55.93935508765487,51.50920822078348,50.690516171160866,58.96909278637413,59.852682767250116,57.792648069160975,67.84262333944329,79.50408709229899,88.7549308928422,113.96740264621013,152.2890969390419,186.78054309528935,223.49926767048964,261.6178087514306,278.49998899838147,276.28054568347983,272.31910007948545,257.4505533084819,228.65422240259562,208.61384841301927,198.8045097447963,185.02425575909524,175.87826322976048,170.8939589630513,146.36879567714914,107.04357444997399,76.94893224231336,50.4838035526123,19.232272194452737,-5.5297495227342095,-31.076754259542252,-71.06995317860788,-105.7886489914752,-118.75570844214256,-125.24800658969731,-130.8133324745073,-130.5987811036161,-143.1899525973113,-175.2224392595897,-198.77781201254894,-204.58386860060455,-205.86375592805513,-199.02225943851948,-187.73749227121337,-193.20197544729862,-209.06273104332536,-214.99342169091284,-217.57620525285466,-220.75909354444357,-210.06144519837193,-193.08513483161448,-188.35854812718162,-186.6315556308478,-180.24187137826036,-180.3851408470865,-178.97115277622368,-162.32680285164685,-147.47711567674799,-145.11304724266373,-138.27412892480612,-126.46996543210537,-120.91490178312793,-109.26384111314103,-88.23161009960702,-79.86133877218849,-83.19828502302691,-78.85377512752518,-71.38594707720398,-66.12464978439036,-50.57345563464677,-31.991885112056693,-27.834210777754418,-26.04000937971289,-16.021369589349934,-11.468148350256854,-9.464729818653408,3.6894403063032186,15.185942692688279,15.444642158920193,17.341648029716893,18.091819877265504,9.18635884690835,8.622560325076124,24.887848536702506,39.6607219463096,51.05960654577589,67.28101861239952,72.72964083296455,61.10135202192512,54.180145373555234,56.41570120093877,57.775906450388774,68.36670139960431,87.43741655719727,91.08224215110415,81.02935267983668,76.45769842049333,72.62535990638654,66.01276345802762,69.78274060743874,77.06712285101928,73.3588631504593,71.3492421927096,78.60695284895623,79.89530702246917,77.676048564062,84.73039043075238,88.65101639948833,82.55291809066054,82.7966929280779,86.51445593838973,80.25444491629801,76.75830561239181,81.68921676952976,76.76696664776145,65.37697104188105,64.71536067932752,64.66309087806681,57.02940919515049,57.12497138298666,62.47877180770754,58.891287406107836,58.673093244798494,68.64056240587826,70.0552548417015,64.23907527136448,66.17873212601795,64.58999434645894,53.87866977964171,52.58091732955644,57.3675413998617,51.002048712415245,43.46137575981359,42.518013853183284,34.72117247320617,26.415112075114262,32.980866467650046,38.634682785570966,31.479829510905937,28.122319929425526,29.44127384565174,22.54366676741044,18.10140883472874,23.374013895572368,23.557363188630752,20.682526059420137,27.18264514223772,29.991070776109627,20.799889110092995,17.995326473729836,23.588957714774867,23.12812161207214,23.216090219028118,26.883942176940476,17.60809905322128,0.9983333552114262,-4.562071579785688,-8.125970196158486,-16.68983626467447,-15.14974011375013,-7.039907736646646,-7.431949659067036,-5.992448648973196,2.345950581751929,-0.497223133862978,-11.755145868114463,-13.723440368783674,-13.2578886236269,-15.880421951172021,-8.663166283559233,0.4701230792931619,-6.113517942156971,-15.016698909832067,-14.68557420862522,-19.53171895246839,-27.73929661709672,-26.24596980092901,-26.629232730289672,-34.06311093415178,-32.313663996572274,-27.001847698172735,-33.460655644741145,-37.220142165224864,-28.760848159013875,-25.184185273097548,-26.67130880908471,-22.200338193041176,-25.12672571012517,-39.54554226019226,-43.0378936701203,-35.47247721841174,-34.27767305746149,-32.08422622913758,-24.249009458380392,-28.51539720926693,-41.30273397062414,-43.30536093204227,-41.72957229539584,-44.79397685623971,-39.891346403339014,-31.643978643572865,-35.70981416557084,-40.3316335275846,-35.83477481681187,-36.96804464110279,-41.61398776714879,-34.67450869813935,-26.23963272660034,-25.172211105337347,-20.05704522536496,-16.836418005339713,-28.37789517438629,-36.84005057507467,-29.386031803190285,-23.424284985806462,-23.082764920184882,-19.527125965663103,-25.26483353476062,-43.634070635967326,-50.80462242976817,-43.63623943936382,-38.29360015817842,-29.87455749271784,-17.699572090874234,-21.615076887148355,-37.42869167539899,-43.82132112486526,-45.430172871796124,-48.24074857510177,-39.4027063426578,-25.02305785912727,-22.350224840495308,-21.827386560611288,-16.19121982344182,-19.576445919773786,-25.91225114389789,-18.346099144908344,-10.432245932424939,-13.603686228687184,-13.64721808008346,-12.133231151400297,-20.24515729483359,-23.14479523943894,-14.517946214918826,-15.30355716073777,-25.40181518291474,-28.518068520580865,-33.19108493706078,-44.33607195262042,-44.527448516827114,-34.6438586961094,-27.19839427057582,-13.242195343531884,7.044005626843709,10.073269498583377,-3.640049997907165,-12.066713584820373,-15.058485476686567,-15.938892822206697,-4.698855621453339,7.616606090901376,2.8902576274637184,-4.645895637832959,-1.4885459789176236,-0.6668860596439227,-3.1939662999440834,1.629362446168138,2.5532404919578964,-7.465723088938411,-11.463924891970807,-8.688260089573646,-12.346440692265057,-12.496915222353223,-3.2383634272341357,-2.4265510148913934,-8.165371343167442,-3.42998857927868,1.76532345352334,-1.859188580373805,1.2159173935261207,9.564686537230862,7.720945309052825,6.285416431376115,12.922020433176655,9.98308982566977,-0.3382729505301749,0.6646099099952689,3.7790318581728153,-1.4295091633579338,-0.36066524071058326,6.489433575869558,4.691206090559126,3.7828748900614055,10.529051585576632,8.77793507404434,1.2465275157604092,4.549774932404107,9.371184703919289,7.608072729489411,12.582166172669906,20.09746355363216,16.036435259752004,12.600185126309885,17.92083349978392,17.380868552965023,14.220973043890272,21.376086062482074,24.945250936640416,16.72495431468142,13.752777264781823,15.571872150419672,10.25106064792839,10.100637836710906,19.8060633453382,19.550773487621477,11.086989052068779,10.637315109200662,8.722762811348536,0.4592279629410809,3.2993293775215538,12.962446810409869,12.049661245025966,10.134107854591173,14.665490685439055,11.204798490021204,3.8499059766483104,8.86814918967098,14.553710846626508,9.607806474740539,9.126916352365487,14.365144999117051,11.94575871773101,11.339997050624776,18.695599872777713,16.829045207509623,6.391496122485997,6.9212192660273,23.208962197622004,47.096883265057244,68.96697713169206,80.96656224723742,76.39393428018053,55.76539133409295,39.527493421892906,42.53611501062631,46.43639542843733,38.23459722506735,32.75577538333627,30.653883028451364,20.50143539599961,14.41779755926014,18.37988794262942,14.691003132306566,7.655392128790709,15.26500534302805,24.000453590898644,19.126652653489252,13.356174536808123,8.571602280376577,-3.0619370679122846,-5.87351640476272,7.86471683269329,17.06636485255396,16.436973141110897,17.766055835040184,13.452273674056627,0.6516831925252742,-1.4261809859626906,5.845776981181278,5.156321440351345,4.312160821530739,10.496839021095289,8.176250088271741,-2.2401647024162683,-6.585752964098594,-11.960649824837699,-21.584292621675534,-17.8244448522666,-4.2517408129137815,-1.862654847896942,-6.9462062878552775,-11.57623018465424,-23.23498953316991,-30.48681309598514,-15.78226522123251,3.3302830953234785,8.473048006043232,9.375788767166517,5.3244543593588665,-11.333795285685367,-21.2225398034472,-11.88999221891339,-3.5495207249474428,-8.214841036982849,-15.06460286747408,-20.91845097456793,-29.94225499673956,-30.92499097995705,-19.127217851965725,-18.20456048760424,-36.39457490219509,-48.39115411910401,-46.6875827225217,-44.46648693514829,-36.06579723308364,-19.953170389194362,-16.69971415999042,-23.927733532857662,-20.72136865699661,-14.033956969138318,-14.106913649486774,-8.470056857733491,-0.34596006857358175,-5.640236390288772,-12.993337045014412,-10.627598868268912,-11.994569909129561,-16.784355150161428,-11.44931367608736,-4.565179983310484,-0.5318897982894251,15.110336672385857,41.81803985943795,71.33865244267352,100.37719086965865,117.70707288603812,119.38371400950095,111.65297599218631,94.71304111742694,77.40672698405061,71.05761243452883,63.35806358388857,47.61623007000129,41.518426513503094,44.19979220789575,38.66864171792531,32.681690638999115,32.5025394576564,21.361661420518402,2.7745086034867787,-3.90588005009442,-6.8947005004197575,-15.538713238729528,-15.706445720627109,-10.157272725393383,-15.597150540762179,-20.879740188366338,-13.65987765746673,-7.628520179524106,-5.10491160004659,3.1639889757251063,4.367088140789527,-7.622130561352426,-12.04633594133492,-7.250638556697169,-11.04042898257283,-16.961234005759557,-16.28461682163192,-23.103915765067676,-36.43800180980707,-40.395192580153974,-42.81335077395162,-51.052052710910786,-48.412407733596666,-35.97431106267063,-34.11893293353487,-38.226577934336554,-37.79532345292419,-43.2746702463934,-51.11368995076319,-44.96070660656071,-35.56917082220967,-34.911439531743945,-29.618767029356903,-21.29907972553763,-25.813189218789468,-31.881480507544893,-27.721303394195708,-28.348500018091613,-35.252429449113485,-33.9185184851593,-33.02068851174867,-40.72929600758793,-40.71375094570514,-33.80962510213052,-37.64580266654367,-42.95581430821752,-38.26220897121378,-37.64326699711651,-41.276879298030394,-34.89369638994211,-29.057908892063132,-33.13074706556736,-30.903511859444187,-22.172413365886282,-22.75389888301099,-23.973815408247297,-18.056417418681473,-21.66563168954761,-37.81082315632625,-60.54724681382884,-103.02458573997579,-160.86070008352277,-198.83043169142948,-201.43515220346882,-181.95455115596945,-150.83797173061646,-122.10043585120994,-115.6547464555469,-121.20553766452646,-113.13058226804739,-99.28011053942633,-94.39762009569543,-86.33966722396238,-72.53456062177,-65.24525889008292,-56.3675373723588,-40.54691748475071,-35.10850039865937,-38.29629126719483,-31.712770435223426,-24.403630432860957,-27.801145847774283,-25.046984562047385,-11.52906509104799,-2.2125034987400536,7.607339608847069,21.95206206185597,23.044741280005685,14.157829313575547,17.49660634044621,27.167031134079945,30.79279142860239,39.59169312039012,53.09834375190449,56.65198849009492,59.46039825680766,70.5651634363638,73.42794074831748,66.92043721169743,66.88484693074858,64.5696243938518,52.02306217492317,49.054260600866684,59.30006379630974,65.2086357530339,69.41109972892934,75.90089558573362,70.53036098901593,59.80538736915538,64.11428405018205,72.60113846521676,70.37840541709089,71.32950700002249,80.206885196052,84.99729589483266,91.58356888330253,102.94841430501607,100.16260907830986,85.12088366754185,79.72455100709082,79.4136055852299,74.19631745933407,77.34683101444111,86.45738842444317,82.65239696115779,74.41493521397923,73.2546071477,65.25839098271595,51.55303207595732,50.010109436443024,53.410036658030236,52.488192772983965,61.41687609321368,77.72250353271569,81.36510944524521,78.58868050015022,81.74737153491405,80.06398765346343,74.05596430784782,77.2711384923528,78.47627466664909,68.14938939368798,64.90361129024258,71.38620610404558,69.66854977216664,64.73559558080564,64.75664603579746,55.61812052112668,40.420081473157715,39.10543275866246,42.7746472352952,37.46979165094871,36.70401682349093,42.55540972880724,39.8034270182808,36.70756536919969,42.96051997371937,42.499706070323924,34.05674840115852,35.526878238749376,40.69015932965911,36.973189951897794,35.16860808983978,36.43653163687851,28.173090901437963,21.384865532404344,26.900469416207756,27.60903755019771,19.407511829617423,17.433786171638154,15.401405632460683,4.667626345688739,0.520536030742031,4.998254193682156,2.9829611783629773,1.8616976981292968,10.289960123430987,11.592151290338299,4.2112106200319825,5.801653053109174,8.887382113404977,1.0618907622347153,-3.7398663064101294,-1.8599897442222275,-6.493183622680491,-9.797472463057165,-4.1514576904112275,-6.623664276916424,-17.292319749160992,-17.030202999305807,-13.454486703825102,-19.86186588329407,-23.421609765968782,-21.278772776977796,-25.110088244050303,-24.531735879326348,-12.434965487616683,-8.918434034792853,-15.76934017794127,-13.551827125154558,-9.041732477519027,-15.060023335309957,-19.213298383210542,-19.70089069994205,-29.221714640951298,-36.37080950346012,-29.388841872667484,-24.948499200014854,-27.80036105082052,-23.495469166500122,-19.80122686127249,-27.653505375085587,-32.23143126271242,-29.86358970984883,-34.3669679460135,-39.021673639353864,-36.15366506633151,-41.02560115033852,-52.74210568064916,-52.19573392607979,-45.230459689567176,-43.09323427395318,-34.598626220067864,-22.562096076805066,-24.966513539869887,-32.434164863209446,-31.04370009217821,-32.65716718612967,-37.26904775943454,-29.637018791428126,-20.9863830386562,-24.790471143116214,-25.953241425242247,-22.75426397398533,-32.24276409091302,-43.70537050315079,-40.69605626608526,-36.2401092673436,-35.25770223626437,-27.16851180482565,-25.08144283418285,-39.413687924698735,-46.871571219039,-38.252670255287605,-31.916573802440084,-27.122714093872915,-16.60630464591558,-15.370466359190198,-23.95756483281168,-23.5347125077527,-20.66519376422617,-27.8305244084721,-30.10695450557722,-23.611596749649856,-25.62511142707416,-30.90915338520204,-27.24929151215558,-27.33825791551128,-33.315109323957685,-29.10652435958155,-22.27423021333137,-25.061891886261243,-23.7923558985756,-16.55063599028746,-20.216079213232018,-28.597321804753538,-29.18505851360697,-32.145831119190866,-37.179268771709154,-29.616475449061596,-19.47637671173356,-20.355340441243484,-19.306603867359662,-12.921821379621546,-14.469285051296234,-15.685458759478124,-7.11945347865065,-5.69560069289642,-14.150062253995541,-14.111971829643421,-10.490795392947058,-14.124630106260371,-11.356057239036701,-0.8831695180324983,-0.3849127384990718,-4.038381438341656,-0.8635254302276165,-5.424877908406486,-19.238465249950448,-22.655500698633475,-19.650380386893428,-22.114474464427705,-19.265000617319913,-12.100666705724054,-18.01222531323002,-29.197552044221695,-31.4739459213106,-34.78737270116835,-38.27533100821971,-25.94818006898127,-9.64194697136946,-6.207798404149666,-2.0947320026041796,7.574268388828218,9.11504030393213,10.528113123719368,19.753216018606643,17.809429679529615,3.381171566811677,-1.932563224711282,-2.0187035639022355,-8.27268966011685,-7.350683044812417,1.5821074664397652,1.1920421225778102,-0.9238300654472807,6.135416726489055,5.606926493584526,-5.503928371582988,-8.7771407203825,-8.775884268383946,-14.940348365346718,-11.651882157353992,3.47572271382782,11.825180536344153,16.118622474447136,24.08582683465645,20.613133230596578,6.414769700115627,3.4149506891564245,8.024972188589851,7.147931551256266,10.40425837167247,17.650126899295962,14.292314745618695,9.073599479871195,12.090569311971398,7.1902106130963785,-6.9513038837852354,-9.322431139890604,-2.2945335413651815,1.6798561670913938,9.920440236670247,18.4885952775964,11.351651959717053,1.8604185105302422,7.755050505324882,14.736866492711775,14.421125236058314,18.98755262120358,23.306905812217515,18.691297315666205,20.35577738343352,31.560703694580692,34.67027735662725,34.34136777336104,44.360799509382964,53.48391118001784,57.03674483566286,71.27981735995152,94.5179245051206,117.11086799380442,150.46334535094815,191.85948555189447,216.80146600604206,226.20457733843688,232.88128219561116,227.39694980081256,209.20226877055154,194.70824079816433,178.84725975850034,152.1804144170582,130.34147905603942,116.83692618931849,93.41571489370673,64.26416517923766,42.182881278599005,16.467220542324633,-12.485223385483625,-28.23770998229576,-42.88852959208252,-72.21437881141031,-98.64677004306603,-113.58256608887105,-129.65268476187316,-139.65512030910833,-137.0844597079274,-143.6840437344266,-163.81541638257738,-176.27649627656723,-184.17759875192488,-198.5007555139824,-204.14095235724378,-198.42606574265562,-200.5058360215507,-206.71346711254716,-204.73058885573028,-204.61618865931857,-205.98998454714285,-192.61929969101175,-175.23449157165106,-172.11342359539228,-171.39020466480213,-165.015180695872,-163.5018122029374,-158.33846951963562,-138.43782349711614,-121.78547012966003,-115.7917433605883,-103.38576345513371,-89.2153615326589,-87.01493186603129,-83.75380999555844,-74.75104469890739,-74.61114751856803,-73.40109992336335,-55.84393098401371,-39.11397323992429,-33.86766775278512,-27.492577973630524,-25.042943626878827,-34.08919808919409,-34.06497523667566,-17.854521535503135,-5.120344403640517,4.677338107943689,20.670296323119707,27.507780997585503,22.257052570206447,25.598072323273104,35.14052518476987,37.98034717768233,45.798713339354514,60.963397564425364,65.20887141571484,62.76586633734985,66.81502184247461,66.55295594807353,60.94208515018879,67.78601190572584,80.24716149714735,82.48909668958088,85.35770095269872,92.57287353051048,89.21242233185365,83.69908357254792,90.22257139765294,92.98986348024542,85.0294195530069,83.13050858866293,84.6475914879098,80.69005749062998,85.37968499883738,97.38464282921026,93.69086365990361,79.60499084397046,74.6920486126665,73.2629051389096,72.81213251951517,84.34094397577591,94.34659295578618,86.1928011608573,76.92340673388905,77.11955362972154,73.40068190864257,71.08000775817345,81.14934154438717,87.71174771029965,85.07056859980047,90.25055967964687,98.43302356719337,95.17416937888395,91.35592886412266,90.8241000967445,79.54833410923982,66.71385293406897,66.90935810322172,65.43535429705206,55.95387080907759,54.249247449393806,55.425524652104116,48.06151162231469,47.04798951486883,56.02020062918719,56.63656931031545,53.39532177152836,57.68489565858429,54.84532451788003,42.66809028790767,41.9522920616708,48.14619012142634,44.95280073705858,43.56319222334737,48.81941362886518,45.10728128677263,38.96744583789233,43.397578069105634,42.49907507779746,29.392268726306973,21.000089136608093,14.485638345827784,0.2669419537066027,-5.002268469668983,3.997280519166351,7.177130188791919,4.266205464158384,6.096868146259141,1.9788627004395356,-9.336416495244219,-10.229196966441068,-5.980975081212195,-9.545480227815935,-6.461183130309733,8.962278428387044,16.015050093083055,11.645222767788411,6.966412202474927,-4.669581921427677,-20.335545127440334,-19.391687352277906,-9.06422831185613,-9.958283628184097,-13.449796689249524,-13.262410547184324,-22.667373306248464,-33.91997064539265,-31.794131629496174,-28.53683538337865,-29.577632913702608,-21.115040278945102,-12.10969203915508,-17.977501263208644,-24.347750197085567,-22.557818874976736,-25.12788488516054,-27.244205920515554,-20.50119590768895,-20.98519970038812,-32.49228585419869,-36.55475781753539,-35.00026676925512,-38.79809831093616,-37.57035844667025,-30.412956338992153,-34.689180509505356,-45.21330814836387,-46.92754148787657,-48.10192082827467,-50.95798105033151,-41.56071312963091,-29.569904872137194,-32.19606439098406,-36.035985313057495,-30.845331405278614,-29.291407091920682,-28.65048318066159,-20.565871308335353,-20.80323258228771,-33.281566487563566,-37.74132144319835,-35.51483425269701,-40.5376820162938,-42.63838781410645,-36.85117973068042,-38.837224172718,-44.60767957461116,-41.70310194879536,-43.37956533269305,-52.95800366434314,-50.54439939386864,-39.08355870600695,-32.54504141192376,-21.642416961341198,-6.9519222827172085,-7.833891630420271,-18.602369710934763,-23.18917962418024,-29.908366979538023,-38.47651701140564,-30.533333081721935,-14.29765442327441,-9.800751808032073,-10.520742614251496,-13.424568399969381,-30.035140017584947,-46.62481571504114,-43.57252846687055,-34.67496520135205,-31.973172079758367,-26.262034417640955,-23.763979718104824,-33.67473295475584,-37.22965705169847,-25.162185765153882,-15.686423291611042,-10.9360267702662,-2.0023825375653894,-1.6994092616035719,-13.527379308586521,-17.79583675517813,-15.4444741062202,-19.649967119183074,-19.781397498002658,-11.713282071753785,-12.481824415394833,-17.917921512183803,-13.647563359472198,-12.369595671569968,-20.86418062885548,-22.44810597089473,-19.202195382538147,-22.771827507599603,-20.31809676489677,-8.677999546357576,-7.717795075202603,-13.940490060804292,-11.484682087166252,-11.200508912871019,-18.74050021561192,-17.80489808527102,-12.54814102973107,-16.587099517316403,-15.391502758326114,-1.6859222709597086,5.062571010526099,4.18193295166318,6.833828425353921,1.0245881339116365,-13.427691885868146,-13.11551483282632,-1.5424547783293985,2.0067414995601007,4.04698806001833,7.882879994293203,-0.528822373232646,-12.463665030365734,-11.656647641766892,-11.715548255438147,-19.325858853141273,-16.56612421938191,-7.183952808809956,-6.4755335399159755,-2.776303669160785,8.623404199384288,9.624947879460723,4.345983008962772,8.762172238731196,12.458318718573137,9.863538538236405,15.565265790320117,22.338520204832463,14.765804326774603,7.316770420958628,9.359590943983672,5.927642532831288,-1.0527457982921007,0.04062940613675514,-1.6505275607548027,-8.199526488152113,-1.341116417160436,12.0042270113621,11.781874136964541,7.748588184956345,9.608162203496482,5.942409661526086,2.2974555816168483,11.18791570668731,17.324181938719825,12.561317306628021,14.36686744844938,20.31681952821489,14.837448630505158,9.06041896787145,11.246098868401706,7.405941414772996,1.4329500684984402,6.315044603254801,8.400119658779674,0.13915372219474342,-0.8349897367032153,5.9828562391962965,7.511717439131219,11.580981742318578,21.663148845428296,21.824148538593622,15.712156668154506,19.11972306462125,22.969958295106363,19.97875547705813,22.905740445611638,27.76866192358411,22.26339856473522,19.026816435299548,25.057746562330475,25.31711047901632,22.110019455771454,26.636563092374793,25.304484297708395,12.018050731147085,6.453708479886792,10.206994042660575,9.790266745158421,12.8652620282806,21.819791888389567,19.194870561746384,10.339731493041587,13.10582545889832,15.76365753301044,8.449171615064104,7.911931935635753,15.412961649711116,18.070940179217256,23.664478028507343,32.32480176071204,24.32191587347426,7.494320805299232,5.121486456131204,9.168779560101417,9.53339332631019,17.015804978057027,24.88498346381891,19.19232131472215,15.047545926826793,20.777147396531785,19.054298009260553,12.688892065808863,16.369935406840703,16.62393613043855,5.2889918263594495,1.5025533776324662,6.175203033062042,5.326915180050191,8.524860942396208,19.587169992416886,18.682063899547177,8.21761063962649,7.875440865461259,10.826084027103875,8.30433535633351,12.211075022819077,17.308521282899758,8.582853801294824,0.549604340379539,5.833530627780011,9.938136805680191,10.985274661820583,17.727472066773338,16.581454312256444,2.3958597334708585,-4.202349201470628,-2.146474133768794,-6.105914378128299,-7.105062352896422,0.6520881777956533,0.7197906126416924,-4.199330678112734,0.7279408562739316,3.457300845309677,-4.685558573137387,-8.362164574562529,-9.406024186784258,-19.746540589443,-24.23048201761583,-12.980309076745874,-3.424080474756689,0.8181495988561932,7.692137559811879,5.238200005982796,-8.495246483579999,-11.48338943520643,-4.103821095762993,-4.092173557086728,-5.17945681611374,-1.3361513956042346,-5.220830456467626,-10.30683806540792,-1.5652309999022957,6.219360178664098,1.457963687458414,-2.0577806673458205,-5.925527321301491,-20.523121548410987,-28.748983807750548,-20.213343913558674,-13.686506074897064,-11.572906744763625,-2.2128161551721797,1.1426490114918093,-9.762359801303159,-16.020701236958484,-14.651604508309976,-17.47698280039249,-13.94259622132513,1.5077036663946908,7.90702529073276,2.22316961542713,1.2528606264057989,0.35195037679087443,-6.416236381539579,-5.417349801092902,-0.07775933808548885,-5.058205796572112,-8.438691193417009,-1.0699716360536682,0.6367123827970655,-3.8699852819638743,-1.3679029966382106,-2.3717446806486695,-13.663962284081492,-18.4105071323606,-18.105305029294172,-26.845421795201357,-31.519272611106924,-21.179668994459423,-11.126057310635748,-4.065622772603033,7.7580060211034905,8.998835381812693,-7.429895161654695,-17.967861722761924,-14.605641651703426,-9.972218204118423,0.4193162309187959,16.53879342208024,16.892465158036796,3.567207149541034,-1.8463110795885416,-4.637339033960263,-12.5181196348808,-10.2998439958245,-0.5210999836251489,-0.3148565923800404,-0.7898251261449285,5.380815506835516,1.916511982076655,-8.933768976959339,-9.656154686806769,-7.92100816548072,-11.466665268616163,-6.709055829199356,2.606971947125989,0.04334055255743774,-5.4628780080404935,-4.304403637716352,-6.869288115069371,-8.556251720479107,3.5364987707633455,13.96128153550597,8.9589208908323,2.9737099522217996,-0.03960393297031661,-8.82620993088982,-11.580103285062865,-2.0127582645614375,1.634738823543827,-1.4832853241113486,3.402949433078636,7.061115129736034,0.7102460859792696,-0.36169955289768463,3.940189842440378,-0.34463405097886035,-2.248626815960096,7.230020777859247,11.447843169097327,8.956212248615465,11.734159326529381,9.145202936578201,-3.0219025834586812,-4.448380932989988,4.014919515958642,4.048008704443698,2.2112287114617457,5.843346111688872,1.304300699553714,-7.881471505659807,-6.0398392489821475,-3.7595406088118817,-8.877372668353978,-4.394984275230394,7.191093126744303,6.511343133306051,1.051547640513971,1.1776126020344395,-4.268018237005032,-11.165812116126563,-4.552631660021545,2.9479190445109764,0.3490788843985233,3.0845170213107767,9.991932196400395,4.8139855445114765,-0.8901288516647423,4.2106044681739805,4.593643124910871,0.10071148403227426,4.229411185290308,4.639653854817199,-6.424843650774857,-9.037196761283889,-2.306440460624925,-3.076905605855118,-3.040966728703463,4.501353718320983,2.5258012455295096,-6.784031525146225,-5.728737685059676,-2.2081457187694387,-4.312807748697264,1.678957376420974,12.11333850774951,10.7298333148977,8.314705721293642,14.453939849055025,13.868018293539695,7.495599865947813,10.338629682195934,12.466813960321803,5.508231563111276,5.154012065338431,10.774744535368777,7.0105795309672825,2.1553499876566855,3.087034193916945,-5.661499653253441,-20.529018768199666,-21.75154139163629,-15.78800263583378,-12.710406461353024,-2.825827180043332,7.794782854530779,3.9549857372890678,0.27974792001489324,10.11678613712749,17.821345385617015,18.818959109283206,21.870844800503214,16.072334130719426,-0.4342850096436095,-3.544166457311256,7.8773250407324955,12.74265450473424,12.945204951344529,15.162205464025465,9.156801523634554,0.8459231437317878,5.830417059738906,11.110070097021705,2.877284504317348,-5.368425429250375,-10.316719147751911,-21.881466688044405,-26.814942917089873,-14.675116095083833,-3.8524888234417904,-0.13146062827425942,7.096269901626854,7.545388317424159,-3.547530499269787,-4.717280070712372,4.121834279363685,3.2385253148297357,-0.6495304071691421,1.6968723554312406,-2.11695236743218,-7.319207502673703,1.6447135780506845,10.658529680490428,6.647477068798892,4.423550875981487,6.125519161191185,-0.5517995626028713,-6.283764918961732,-4.465752877252052,-11.30427075046677,-23.897841167983145,-21.639961782966274,-10.616370189980818,-3.438826479642671,8.004883621852784,18.76727688158936,12.82114344512714,2.3410385331368424,0.900472231684021,-4.438872999082257,-12.98314063807836,-8.918149079491782,-2.901899368181622,-7.326397162297214,-8.286785276931708,-4.01015759846244,-6.6299513780819535,-5.7482970732865954,5.47287671067428,7.754975399554926,-0.8224140729603966,-1.8944820544484937,0.3210975438500301,-3.6144375632123893,-3.326060253805247,-0.6177708899414602,-7.33939568056723,-10.59676655636716,-1.1703725879534428,2.17347554981637,-4.460405764556457,-6.411836811239194,-9.167153429706612,-18.150175217795894,-18.42848685074973,-11.05968182997008,-9.61018913978673,-4.128033513695538,10.811115391509842,13.855747832299592,2.446632220701762,-3.321718422711222,-4.728833699529357,-8.254028280316763,-2.402023333625355,6.983918063587367,0.9320254015543297,-8.856193582241538,-6.231401667728539,-3.6711507678191744,-4.662156105678694,1.9003494308487054,4.428258714291092,-5.686025847764752,-8.020276931073804,2.5718729069263766,10.245157586977706,19.000210197599067,31.70953837902354,29.08380455002868,13.649361683102876,7.466657052026116,4.852757259439023,-4.332070422930803,-6.648476767485857,-3.0075364122398653,-7.413839109727252,-8.053517738105363,3.4993561407247062,6.918797235906247,-0.33577796525224857,0.013746545118615394,2.1156965619657004,-2.8786346885738006,-1.0534008405822366,6.126809329862201,3.055888703487864,0.6895341393569876,9.92139880399283,13.106631653780644,6.605429746281344,6.572138628877146,6.266794708237845,-3.592474510183816,-7.487762799312971,-3.4020186612595813,-5.333347113968327,-4.778158976949509,5.129729814902508,5.473891971791476,-6.3524891511513655,-12.077403173623907,-14.364260415137256,-19.964253604026762,-15.354788207074396,-3.2657334167623846,-2.2617425360049026,-3.711677292474527,3.479248903430015,3.2560316968113847,-5.137217605258062,-3.300421830910092,1.8432946236146408,-0.27907549227381256,3.734910233556557,12.530996727102787,9.466052417881402,5.424947742062177,13.317784084270444,15.769705294679124,6.467140884172547,0.20476962774715649,-6.280799006074205,-15.913515606520484,-10.06634350365441,8.623074720744297,16.0742384254462,14.275666546855946,13.32374834518059,3.4633077405323087,-10.612774518647802,-10.500502108843826,-5.086498775313633,-6.428499757664052,-1.5389304747355874,8.268610892182451,5.531250449447976,-1.124405045864613,-0.5715085209413928,-5.8711487006835235,-14.336148489730814,-8.276097836296975,2.1529301325888093,3.3634630045779588,6.409819424572712,9.57125847640611,-1.5116963516338604,-13.243336056330504,-11.085163665673246,-9.48802822483227,-10.722488789986468,-1.0486354276242507,7.7665795634338926,3.408953717899711,1.8268370042940205,6.264286785743812,3.0883431052248302,2.0034359952074707,11.526294919428786,12.804257360513692,3.965322852037511,3.3899058084972506,4.307298809125314,-3.0611022494355593,-3.0996532463763247,5.015736384007539,4.93514484622972,4.5305857588567875,11.25424478740248,6.573195107211289,-9.44413952629016,-15.308836313602146,-14.871427462488743,-18.800288779783173,-15.741387629950887,-7.253574277862186,-9.627068354764837,-14.224948042183826,-9.30148736431613,-7.5189219971475705,-10.129280911563901,-3.9059876539201692,0.8871985838970944,-6.6799708124845685,-9.99995313759035,-3.185718663107235,1.5472302527864437,9.672251139387521,23.3820188531328,22.92608426144644,10.602581972936592,7.330481707599543,6.7200187627950925,-1.1917856986657602,-3.3296210743926316,-1.0404366594436583,-8.665994595177743,-14.368835542827533,-7.420847607736061,-4.871285326579102,-9.09207432657513,-4.804642594893052,-0.9590809530010949,-6.746698108245972,-3.63552172193534,12.251368363627844,22.952467501099527,31.9224535094445,48.08479124990501,58.20559969709515,64.16496433052924,86.77743970129306,119.55275224683885,146.4013093425316,172.52054743540936,192.70383485340625,193.5504757654836,190.04653501825157,194.35110291276987,187.06997188983826,161.17410784183681,132.05473266806763,100.29462835347576,65.96373566205045,43.73952499672488,25.635663069620733,-9.19020059015893,-45.18785413360243,-58.15125236218574,-60.41216479203647,-67.49671260274049,-77.19628406949818,-98.16838001785399,-131.99952670687054,-151.16971506389598,-146.55235444085247,-140.2185403869768,-136.67697435523132,-131.2079263781304,-138.1727383232237,-155.81767972006168,-162.01986157017345,-159.80245931167912,-161.3609654839952,-157.74096711187025,-150.15694400183293,-151.53898095449307,-149.74391279241053,-133.7791122292956,-122.46985933899079,-122.15523334580033,-118.48183557437221,-115.9958730015419,-118.58340690577042,-107.86693840337117,-86.05900845208663,-76.04081952079437,-74.55045249556296,-71.10186310088935,-75.29965474172333,-80.06453557194018,-63.961606308432486,-38.48987476172686,-23.4555573238818,-10.800652944318024,-0.14094282714992845,-3.816127087175312,-8.0582733673672,1.410644776643382,8.333005254381412,7.3665574463593515,12.685769902947015,16.659488038034052,9.410515460731363,7.120496779166122,13.57773693322181,13.395136891533,12.262048828368632,18.749181486902653,17.492528385968228,8.702472855478028,13.290415985115711,26.438515311824926,34.264905485759876,45.399761458098716,57.70060417984728,56.06919175070968,52.402708901785864,60.248146426533914,64.1363688253399,59.9899405568532,61.85613267902418,62.382328010965814,54.32786490917995,55.23795344338363,65.54791395091371,65.30621177927124,59.30215557845054,58.734699613907104,52.193223488449604,42.425541015573884,47.85388682792674,56.98755262266515,52.60162207649276,48.60360051819005,51.59369683914143,50.114741459039244,52.930527867218146,67.0397124993121,70.54055766031689,57.645876393651044,49.08574268332534,46.33714673281197,42.75711875794869,49.42736661055498,60.77896845872742,55.47436047863591,43.07745753157381,42.259631969831034,43.415272730615065,41.746927599900005,47.05522056914908,48.792018370304746,37.798447450500376,32.449235763375526,36.5680108744535,32.61259096817503,26.001745731899028,28.094771552080008,25.95107535793798,17.545437252082852,18.00100994024942,20.53327508362846,16.121564668716818,20.009545022395052,32.303321411408255,34.019216496614554,31.427483304854682,36.649470157315946,36.20446215007737,26.499512001518454,21.82677875025253,16.60426580278269,3.352812992621124,-0.4789107464631489,8.507611497240598,11.849249102975694,12.920819007469978,20.35968232734861,18.182347493129676,3.8041228536594573,-4.0914238450339315,-7.350768188853013,-12.82357403620657,-7.060972215319202,6.90538001386826,8.21701638953921,3.4296149301649947,6.423585178847628,5.586341643903502,-0.5859852662681391,2.112792029423937,4.448437202627615,-3.446597089731901,-5.338764250463287,-0.12184369591889777,-5.100133529811872,-11.90591412402997,-7.688159645810486,-5.744868782403376,-8.659386519394895,-4.375277190998615,-5.022605356421197,-19.820806414047784,-26.05725933827526,-16.610617588969188,-10.263572099998992,-5.850995242179105,1.8335179406661744,-3.398334910160348,-18.273276416509393,-20.617880190579335,-19.485086025262863,-30.799967492557727,-38.137158438847095,-33.77410693432255,-31.95391439996075,-26.781670241269676,-12.831972078283338,-12.335352454518489,-27.341712119022077,-33.68030378098657,-32.515778928489766,-33.881138224892,-25.144077391338186,-8.500246670455613,-4.488352001595225,-6.332117814243409,-1.0268900059397423,-2.5438484009006888,-12.57758150228149,-13.036147712600478,-10.651215421481394,-16.93178079366876,-16.774712982134336,-9.809396497683721,-15.72606296438465,-26.320494139030192,-25.858583087359165,-25.949128916212963,-29.362290195975557,-22.56997502113635,-15.508809731742499,-20.281442311187572,-20.288495778891527,-10.500344597751106,-7.881697125506745,-7.885448239621057,0.014323209013346716,2.0693077460243687,-3.949476676454814,-2.7042014546392785,-1.6354982360042807,-10.624752084547548,-13.375817319338353,-6.5929961118434335,-7.935673570217569,-13.713671986005977,-13.197774604472373,-16.975492364119695,-24.346790503424142,-19.44784052132303,-12.218639257339829,-18.22021514557312,-24.74863436815295,-24.65106550459409,-27.171119136289168,-23.922953939421042,-7.831149119227413,1.7185169628885826,-2.050071869928867,-3.942409763536618,-6.339718591511373,-15.400817866287944,-16.34290001801526,-8.766907893645019,-9.716462426633502,-11.3771948219499,-1.5670418682729585,3.3242387307764023,-3.1160391103116374,-5.084961584916471,-7.1326398130962385,-19.04862676653259,-23.89893651583536,-16.683853906662627,-15.042521838488076,-13.976968853810448,-2.810183954266832,0.7460460277119029,-9.774838161796383,-15.70207054745493,-16.978241103743027,-22.04121318929911,-19.048241364280432,-8.113483408519766,-6.122656450001336,-6.5451478246409005,0.3586956968246029,-1.2961098802321789,-13.1865434968127,-15.52520236668154,-10.815216014161042,-8.81845278218129,0.5391504470617856,13.050077135439029,10.118236041935836,0.8729488052549734,-0.9989219910523243,-7.834505303663084,-18.983054984798155,-15.32574352603429,-5.062061910251005,-5.472189466736244,-6.737110725774494,-4.614549872257892,-9.877815737658983,-12.048873656434324,-1.944436790294524,0.24564238807466543,-10.036345712784145,-11.628458982084522,-6.283453560571708,-6.211265932900191,-1.8568313718416851,5.868450184126155,2.171509693809237,-1.7372500616218687,6.65295139719953,10.328087545323214,4.043199937632125,4.157799392620892,6.885963670637039,-2.287554259165478,-21.325733587327015,-42.86077911033461,-61.16954619000635,-68.42861892237829,-57.55399503416399,-34.50368936367161,-22.5527183942064,-28.392299193098307,-30.875140736765147,-26.653078397111855,-30.38888765453302,-33.451868289532634,-25.680536245865504,-20.298750731918133,-16.584963327178855,-0.5889206669947002,13.984113611538374,12.67473677144947,11.856452862710803,16.471762866222257,11.763422277646644,6.755063451019746,14.840877797108002,21.40366930892826,20.28684353668106,23.905631066568684,24.919536892968345,14.725379339041435,11.944594167403153,21.15950133074595,23.622289296485242,23.101671571063477,29.664464737357694,28.478230361298063,18.51898371510286,19.772982160348935,27.2261732353042,27.509343305947205,31.73332223371698,40.48022778919662,36.82563792976397,28.08022134340676,27.853529236947782,25.216507402306057,20.06429442201587,28.83273087401652,41.59917903981645,41.571288571768,39.622910347613676,40.360608827717826,33.05989573727939,27.917018447378688,34.032688789304224,28.462387782093806,-6.661105570867235,-58.70901230987177,-105.40516000143697,-127.2969330416621,-113.69151275754433,-80.65225173020247,-61.27803638303453,-65.95379937974279,-79.09144492949382,-82.12400572529425,-65.48473636106135,-43.618491617041094,-38.31335234615743,-40.08630509064652,-31.537765942591747,-21.391881906039956,-13.721251432026989,0.36980625461298633,9.575658215885618,4.595257459939439,3.459400085932411,9.834148484244757,7.319055635381896,4.1824402734299655,13.420387178462844,19.133908401940154,15.849414902234743,20.27335033987058,28.013280263662825,27.235269335109464,29.260339336429812,36.32303496112108,35.65130541325691,36.72964035588247,49.72862447144183,56.86082948407444,52.509046397539336,52.87684590124795,54.61775856310294,50.35301349839364,55.35318938676298,69.3140485938095,70.90735555296193,63.42686555602867,59.75116054372619,50.8896837732552,39.343803068052935,44.232101495726226,57.28122132449569,61.368575046720494,65.62353985876568,70.2856774175964,60.54108153943912,49.713461265986666,54.79668725654596,61.38504792892694,62.89117554661827,69.78496677615817,71.90157678789149,60.01239909360085,52.94535604591212,56.36198645519241,54.27612653229628,51.66619756989538,57.17490813124552,54.22312394177699,40.34683015827953,34.43399238349557,32.890719440445416,26.385258061311674,28.889855595366953,40.6392081225404,42.52508112172616,39.48563513577098,43.00104537232689,40.70795037503434,32.38352972932222,34.952857754728,39.40455281327457,32.203140544791886,28.530234594465394,32.626251883666775,28.15294274721364,21.72233336745021,24.405434986701618,20.699972164555913,10.047076399071042,12.647538919140072,19.235650027217595,12.740414387411702,7.537390855997573,9.979269478486199,5.983206707197026,2.9570824263369535,10.371671589783219,9.408091870662533,-3.7921340951982634,-8.286789847623401,-6.741497034766626,-11.617271217779734,-11.573208176900758,-5.119090066862647,-7.4950084279208875,-9.709322397841706,0.10946517467410377,4.6722707791439495,-1.9844514774121582,-3.6693543069325005,-4.88734906998572,-14.87897513081206,-17.941188783370244,-11.648477921328602,-13.94242961517563,-18.170982993469373,-12.356458084260142,-12.50589369439347,-22.26745388909732,-23.607753770476876,-22.425103595980477,-31.03180032103267,-34.88393641258452,-29.669457863008276,-30.319498841406876,-28.930923892297923,-14.517369547521596,-5.707358387014393,-10.16577618451188,-12.0180161767843,-14.9284965841678,-27.703668979219938,-34.42466748674888,-31.23642535560461,-33.99314789648621,-36.638556257488005,-29.929229776992194,-30.707473721865888,-41.99683709835025,-37.992567850168456,-4.837559600665314,52.369840674447666,125.1062152401447,185.66358819496227,196.95552365127742,165.46123643037362,129.8700770829139,