-12.980883816318292,-14.388526905367613,-6.619934727417705,-13.420467653091006,-11.119059137857422,4.647056780478467,1.3213412964645945,-9.119833947154467,-1.878010004850767,-1.952038548447507,-15.110335134504092,-10.086678426457581,-1.0441322068827286,-13.81429570045653,-20.918017507504644,-12.360849769048142,-16.263641767609037,-19.048608960962312,0.42901477225536766,10.05869246163282,0.12363432427835619,4.051405057797396,12.332568070187781,1.4110062282261087,-2.246538606775938,8.635006764387569,3.1878690145021005,-4.243993045835626,11.288822922177816,18.42392250940094,4.554238112259064,2.0945146251787263,4.414481394274637,-8.630910073798347,-10.7467390844464,1.441148862460837,-6.1865727234748995,-18.740106354393557,-7.387326724787573,2.057456009008119,-0.7379700272510656,11.017018232699076,22.706612198326905,12.396364330373178,9.414535860149181,19.606193640225847,9.245300438489283,-8.0461043779394,-3.626114890908362,0.5015857910863024,-1.6256906231739068,15.226696934686984,28.974501006288452,12.149784904361915,-2.2939772651209633,1.628158886574011,-3.68843216148669,-8.89603380474664,3.9589933635838896,4.6472969217035685,-11.758459913956532,-9.199772424510265,2.2922448154058346,-2.656455338433956,-0.15314099591430197,14.812495215909601,9.877045147575863,-2.7829079526532516,2.495356012739342,2.3392653795225953,-8.362844775032155,-0.15452661200268825,11.614174774724342,2.0728389014274313,-1.2029455828254045,10.34304948310933,5.9894655294290695,-3.687757347063002,2.862424683932173,-1.581370701404977,-21.301685752353297,-19.20741013846425,-3.2386589617852573,0.3442727531766381,10.74119080045065,28.078748679095995,18.538304031899653,-2.4231681394433897,-3.8647734465451107,-6.4026239925953545,-16.252245442972274,-5.360818855213766,11.546420283978927,8.235408508533498,7.0795391386736854,13.455494449908661,0.02430093738543082,-15.707960587081534,-6.855838003381947,0.5839640136517695,-2.5430286906655923,10.635854645524091,24.321375954118807,13.691617380924052,6.228364806910625,11.51182972525844,3.168412001447423,-3.0080890806884,13.772217388776504,20.08060512185514,5.467846935106046,2.2311369220062467,2.948928205100806,-10.068349474752367,-9.236967932884369,8.217536269721037,7.889004703968981,1.3591107354545886,12.731407401513591,15.880652587797432,4.681092904570356,11.802288935089818,25.521586940524863,20.443293163580066,19.832412041255893,27.057056650775078,11.28880670432044,-8.768243206310697,-1.7872544128126293,7.687355047673829,7.874331155809985,21.861354041301254,32.19045247291512,16.374688703942766,6.048790518205371,12.078922556703459,4.332475109714849,-5.513586194291333,5.09484184387528,8.57762835198501,-1.2629481801885198,7.2688442176120205,20.240724555631687,11.864306331650043,7.541378163460365,14.646841048861004,4.745777529902401,-6.704257036204764,5.434964181570455,12.636429079577864,4.356788954533053,9.984047956628563,17.273418011626408,3.8032976253004565,-1.2958784391930567,10.203796702781466,7.153104868818956,1.2102646985946626,13.248266351613395,13.939612787697936,-1.8594833152413326,0.7121261403207972,10.27283348333199,1.8499821360521613,0.5940811232518424,11.9421432003512,4.890483231264152,-6.587191878452316,0.9865089030605585,-0.01594088541320149,-14.342503319740029,-7.607617611452118,8.163398409466676,6.501384262309495,10.193968663822563,22.97123062193624,13.362164301381654,-3.7801115602342623,-2.007603142248057,-5.151478792286973,-17.222299603314188,-7.356973266228841,8.5559471716337,2.9974177622665326,-0.3250414393174302,5.0807014321688815,-7.8338902852308605,-22.1079500059379,-13.413246579660814,-8.607856949194183,-14.268455882296262,-2.939729713832537,7.638333126637228,-6.626148917544291,-14.722439744053464,-5.126748570398637,-6.325246907968683,-7.25229563217967,8.823556545091986,8.67499705075122,-12.121578356236249,-14.85041808718226,-7.732660346303109,-14.27382756839043,-10.268771977839622,7.3360113834460705,6.004763826076067,-1.951128910325651,5.116961747576051,-0.3842189203477262,-21.315666150729722,-20.157381445591497,-5.856880171593415,-4.44655516568263,3.720329909223628,18.335892784574888,6.56173646911833,-14.487991191874542,-13.872871251032898,-12.341708388758518,-15.68336416443568,1.9056792645613463,20.51146600601508,11.632255918187564,1.2232466398799655,0.41500876791735597,-13.29262190796362,-21.759591304183896,-4.338924936241165,6.461790585819903,1.1590454393135543,8.474803778049273,14.920678281965992,1.289325339203998,-1.1326109651360086,12.386275084479504,6.034429525331509,-8.83929202569817,-6.939552950320724,-11.709653159950374,-24.910736418678404,-13.225741118984796,6.600864274091153,4.375975740870543,3.8678000274823545,12.44895016630055,1.6879069642475697,-12.011425581874484,-2.8034203605983476,2.9162788555219525,-2.545994179682963,7.857260923317767,17.647687540471573,4.60016622380212,-1.231093642430381,7.098321958369973,-1.2001875015324126,-12.202560759411016,-3.759014526271593,-3.936641405740184,-17.079177984974248,-11.04605303960478,-0.9080217308077358,-10.856440939653872,-12.082038393428352,1.9571374656942266,-0.9651983542177889,-7.909436510352235,3.3736366520892815,3.8340539091875336,-12.148328438080084,-10.548688137558639,-1.6487047541244668,-7.542778111015732,-2.818222395035525,14.72691287011024,10.767171752267924,-1.546791964779974,3.4441160779259867,0.9562400673464411,-12.969735875632317,-5.548096641499858,9.062323538825828,4.3803399869426745,4.18338388780721,11.490432792380599,-4.704945635795943,-24.554899313964693,-17.316420726297945,-9.794423786117031,-13.376784468790047,-2.784103310861534,5.877612338846821,-8.4783207601093,-14.422515903391442,-3.3849487880441234,-6.3983985351876,-12.470817307497752,-0.41891104712688154,2.837363787546426,-8.243908745465125,-3.0407383870875955,5.718473499729887,-3.742988816850292,-5.21027249099606,5.522393171202639,-1.061658985085236,-9.530955774904657,2.196221010801114,4.64701352772223,-9.288184066641609,-7.691832538998676,-0.48493764667648653,-7.432105113993955,-2.73908956312782,13.19770928802793,5.354143955845985,-9.586944755764844,-2.381982482352523,3.1161654869944955,-0.6109677695170173,11.200109754458524,20.129299742162985,4.7999608111674545,-1.3523033693551436,12.099424032837515,12.438681628908258,6.471066796299078,12.456277353559429,4.442495292767472,-17.679787838041406,-16.83544212295415,-4.400107182181895,-7.187096680033925,-3.4386504603105164,10.39144917335779,3.5545569250816107,-10.01531246196591,-5.885290737167841,-7.768456934525378,-18.10088063513521,-5.851420620810172,12.334523081010971,8.988993749067685,8.47440807354795,17.67327666883256,9.25447011074932,-0.8656151589666359,8.96627023723416,7.8045975291384835,-11.34092901247534,-14.094821412855206,-8.813065342088178,-15.844417209011864,-10.325509568910427,7.328824516279097,1.5931990979959694,-12.37056096721512,-5.868048920083983,-2.5525913569384433,-9.610474460330607,-0.6307609967147929,7.581182316902041,-5.997412102079176,-8.969024440624546,6.4205962647703245,6.867980641015508,1.6145317963308945,9.217917620438211,2.289564848067302,-18.5771265326204,-15.812732747764818,-1.8281401674890558,-3.249033436873156,1.2562566547769243,13.030141521505607,3.0145926579168387,-8.473539062385093,4.922008140383644,12.85937311662708,5.34350098228691,11.080405562349036,16.520024799678698,1.3882208116699646,-4.0167219798300255,6.9000772285853245,2.4828218241999434,-5.445084313469165,3.716887046801167,1.8570629244444996,-14.835819049232859,-11.995259497849464,-0.24119843774395022,-3.38961313305794,0.06364746461766657,11.083718331319911,-0.16787094944790226,-15.72059555086089,-8.6542760509101,-4.029234710641945,-0.2081387301448574,16.590574353785204,33.44510264934232,28.340034282826092,30.10363458136802,40.837154744860804,35.43475129439767,33.532055373179666,49.83591913563831,52.611743490091285,43.034122051679304,51.06745792642608,58.05167320256494,46.51557615992337,46.107661516386955,56.96326292515096,53.87616527125296,58.54724240485105,83.24784935258742,89.36179908383525,74.95934779853606,74.16112012816927,77.3261628471614,74.09349348443652,91.20665419629746,115.94125249491066,109.52713988597692,91.43574312900543,87.97475194156,79.59907328186222,71.3369516796835,87.80472010423094,103.61637816586477,98.95938165362438,102.30061911958124,111.63891241494618,100.0467577996008,89.78173557628597,99.80669839334655,101.3548690516241,95.0953839984571,106.4910636790658,112.03212649726449,94.74623690234894,90.57200008234277,103.50851049768599,103.00354846277943,102.76473353143439,115.5502317117259,111.11700896751178,94.87740229494571,101.19002852698979,112.02861078642111,105.80791736549455,107.92301516534647,117.27322746690719,107.07187503165822,98.6354467187443,110.23080098970385,110.83268183634206,100.20107223565331,107.17093257794635,112.4698310568234,100.14003400987842,102.50251808986482,117.34567350792702,111.1265524157862,100.75994808465275,104.68975817520985,96.40883259467881,81.76675717879934,91.97654023373128,104.65608492588515,97.40136591200877,97.49743062614039,103.70310635788475,88.26627424465477,74.56694575888315,84.24112038980577,86.842520600653,79.4128498394524,87.81348197853308,92.39273622642749,78.05235009538703,77.29586272501109,88.61101263274787,78.72927559731968,64.23352681994922,66.08259762009365,60.33004349514047,50.19066124747703,62.464328618564295,73.2399092787393,60.81799848024187,54.971051949555935,59.23852695568641,49.09857793979626,44.231592953009105,58.66765521626161,58.38533604191733,42.99932872249005,44.59799197419571,48.82529490709189,40.309099985712834,47.0913451302308,64.54514960260667,59.96382037586553,50.55011965968814,53.87398235604672,41.85568080743897,19.36920780989429,20.937773330824466,30.375229836559644,27.697479122837308,36.63062107396874,50.59212276169528,38.72498655939596,23.151447381415203,26.112924763797764,21.23219987510445,9.887822598300701,18.207618658373924,24.182986080533446,10.812737771563059,9.649634259219223,20.205798999576405,12.922459269909206,5.335187371649286,11.97670107179002,3.084539608618398,-15.300782837200186,-10.097490811309246,-0.6941530235247382,-6.5829777216321395,-1.4300605097070243,10.702571014753065,1.3865698596563014,-8.178384323082769,-0.7579478636954455,-6.605436175291384,-22.434865213239313,-15.809522311860706,-4.580124611398762,-8.47934205838971,-3.9965912416360094,2.7420527488886397,-13.89978633453709,-26.190765354128523,-13.577080598689669,-10.222548970628328,-21.00887723055196,-19.59735968763963,-21.248559082245208,-34.88791322994723,-28.245670040888406,-9.028643921405548,-13.518895199402934,-25.10777318167277,-23.978140231018713,-33.16017151221123,-45.88507194595727,-33.37206866498058,-18.588909833396258,-22.70769619952681,-19.37345644955905,-11.197863420387986,-25.28605344949095,-38.78456658441804,-31.66973037594206,-32.448075626202744,-40.24601610394503,-29.308365706287375,-22.930931131028057,-38.51434947222769,-42.54865448862655,-32.20119119259474,-35.14243748362112,-35.21722525043989,-20.545887706303283,-23.540868407919994,-40.67856308307516,-38.06616591343402,-30.752270528393584,-34.9079773844488,-24.57216090026514,-7.461945648639098,-16.472115765286123,-31.949672642623728,-32.58526675993802,-41.02019311532591,-50.875736841201615,-35.10958364215995,-19.359815619638105,-26.177722112351237,-27.328438281917975,-21.588903081852433,-33.218088800485106,-39.57287558443846,-24.689459552122372,-22.23718071422654,-32.93860790027843,-27.537583159745502,-23.61297267207556,-35.87741976861765,-33.40282084920257,-17.82218683630053,-19.670415739006152,-22.938876704420057,-12.935417838803291,-18.837867606371177,-36.45071187222315,-32.924228391168,-25.47520642330143,-33.315009590538665,-29.715968351333196,-16.04898965973394,-19.055787158734645,-19.047267873517143,-3.0474351932307053,-6.086618093088898,-26.741497709767117,-29.60383502055013,-26.267615066649928,-31.135799473584413,-19.41416298500235,-1.0702446187226453,-9.663908742583834,-23.34072149123353,-19.455751983459987,-24.857838726623903,-37.70553412503393,-28.833036684040007,-17.99233994801877,-23.35253788433074,-16.56896519846925,-1.1195769446974566,-7.709307712183302,-16.61447982079019,-8.028397216114755,-9.620540646778656,-20.17569459507765,-11.647784849244182,-3.8691451032722397,-14.192079714849157,-12.541102327734103,0.8970460157380549,-2.986482267297068,-7.707082625944885,1.6255941371763454,-4.694253778423391,-23.257413077132764,-21.394458906198768,-15.55500616295816,-22.29982879929302,-13.485999454552463,5.683477105805711,2.931312856948776,-3.2342327935228847,4.220812332963648,-3.426687215582346,-20.94143336891811,-15.51068147910809,-5.60401595871074,-10.026811186995507,-2.3469572802598337,11.673822640815075,0.6754275819845947,-12.886120666409807,-5.999008082081223,-6.3687266927417205,-14.508324160583822,-3.4272441975165853,6.185472200557534,-3.3984171584123324,-1.5124568737122348,10.576235151202487,1.9058085296270795,-8.378392958414754,-0.3517816552421005,-2.269097707970692,-13.1846549624376,-5.131561237303918,1.7275117309759431,-8.555649016497487,-5.442920505299626,7.081376863428994,-2.0568140975130174,-12.561117188840736,-4.693113092614562,-4.7684176516160495,-10.270613643332682,3.729461245564335,13.483400136759899,2.6140298194281115,3.813665477734305,16.092969081154543,9.580772235017111,2.8465803005922643,12.491719416376572,10.076821375137598,-0.8078941589943582,8.819831800451187,17.933864161822346,7.952396511714055,7.790886440154756,15.747760404060967,3.56106736131656,-7.0891771421259975,3.682164040852115,6.374809395425011,-0.3033490805975858,9.31412027766886,14.57907947768462,0.010546845666214999,-1.4326116984481025,11.235428938379687,9.533365104319898,11.55836537785769,30.960710985140306,33.23533233491964,17.534034257779012,15.264799643628336,13.366987163144586,0.2627245274826233,5.739651970064008,23.77933079033654,20.75956426931883,14.839381097876657,24.99154668510935,23.260384414481926,11.44040652964332,18.016187562758585,23.36878604752486,10.555332169006933,8.863486518394662,15.727072960278477,2.522343722148573,-8.481475503733451,2.66212542263827,5.520394472746771,-1.6726235430522274,7.8421837429407795,14.824075605185072,3.9146713088568275,7.505861830258751,25.38446666583606,25.47124951559527,21.967665351181658,30.058474541951405,21.799951844169232,2.6459739335926677,6.965588344393641,18.248961206542134,16.033187978511016,23.598351036047767,34.63528557629775,19.010743820010433,0.9638745121871257,5.784371104605071,6.430244860879929,0.6156783128546071,12.388529074086968,18.06876583589426,-0.09225657396370934,-6.414727765176889,4.110391853157219,1.8196704169950375,1.2882597858620293,17.13539519426303,17.822747307386486,3.8965396539558856,7.803042794135063,13.501083883408883,2.3602095772251213,1.6045389705575688,9.985666366086491,0.0874845602383525,-7.346297895787716,6.272297298868428,10.217631616279107,1.690790233673217,7.493991611312439,9.748641724718569,-6.429515937081223,-8.320073591090669,4.56474159148108,1.1034867353935267,-2.9758245516171504,7.721890045329742,2.9341676006673323,-13.825433870463437,-8.112713843893843,3.164482734070925,-1.1467052774051285,3.9463318547013375,15.628416180195236,5.947468974332686,-2.930028157471898,8.4250391334064,7.853620376119357,-7.298602156533986,-6.892012852905472,-5.389178371545837,-17.03520771718246,-12.02025821751171,5.7073930741721,2.3348746290061815,-5.594692373550742,0.8505296923097836,-5.288420345045566,-20.15609707729182,-11.551044067206801,1.4108645887332494,-3.1370167196717538,0.30996942483558554,9.53449885133278,-3.309753636623383,-15.582940604844115,-6.87111421695522,-8.019488264755301,-19.666868993774862,-10.801426906283709,1.1451404435955435,-3.036694820492913,3.520056005362017,16.334030464808926,4.099407527841109,-10.147421837612052,-2.9636318098963175,-4.102351988380464,-15.537655938820532,-8.601822105826463,-1.9599914438327941,-12.128843092767115,-7.3887622675095574,9.838464146227745,5.309022871063041,-4.148385813422654,1.4510000391269413,-4.139612866158801,-17.94516195966272,-10.534292756461113,-1.7435554141297764,-10.473353016563234,-7.805066276166775,5.953410112134789,1.5377465709308815,-3.4785076783522153,8.066475247510247,6.657616699024686,-7.1823511316147695,-3.541505543241849,0.7097829980053625,-10.332507718005418,-6.044150891449861,11.91029055256488,10.050679932281374,2.9979797510446216,8.856655472045077,1.5223759033854876,-15.332920457798046,-10.46938357629202,-1.908035105165446,-8.860163592587043,-3.6847447832081155,11.575799170568914,5.543202077336081,-4.356329922110559,1.5253285529167195,-2.975752390290079,-15.323233033543701,-7.021923410270034,1.107284106420367,-9.630861741734279,-8.849107337306126,3.3564883911447394,-3.758492692009738,-13.027265527552252,-5.5376758175821115,-8.712882727636812,-20.655526099815564,-11.63988419012848,-1.9542588877808043,-11.763146670917909,-10.660296986723466,3.0082661104219364,-1.2987320507106306,-7.706409950429726,0.8828999851511687,-3.7997005561646002,-17.777060007125314,-8.813258607493145,3.45686598406155,-2.013213694694163,1.595705096155894,11.983564083067652,-0.8574152282961762,-16.6893293821351,-13.495345742106018,-17.212453623735694,-26.40129794295377,-14.282964433307969,-5.16353631929133,-20.499366446023377,-27.326799220500668,-18.567615162095585,-19.415684568459877,-14.294990874907256,8.20587923502655,13.154857958314947,-0.9712967770453655,-1.3333338569045738,0.4928773309241353,-9.258534741035533,-1.8924205786311878,18.490481185036558,16.833325251253356,7.139832587961876,9.174959901147293,-0.14273351056997274,-15.102600698890392,-4.463600492528242,10.953500307278595,7.442752462458579,9.985271460432317,17.84852308301206,4.301377699195104,-7.866310419949845,2.9255087708218106,6.746013058633444,0.2009166526145365,9.780053294789278,17.055911672020116,5.6021266014035405,6.107955834018187,17.8134457233393,9.892988130498203,0.9518571534470328,10.895055011402471,10.908010096003382,0.19021253780625447,7.712608223945518,15.476805423251381,4.792349803670698,4.704907425190225,15.567485997363361,7.49954297812225,-1.225508097282308,9.145697781070453,8.390841096598242,-5.904064395590322,-2.7682729018650445,3.4431234640056907,-4.221958920925905,2.795671189212204,21.553689432469092,17.188883621127296,5.494447656348279,8.367676178166812,1.4866248050565223,-11.560654781206768,-0.17153001128056555,13.962837148834938,6.88837691985724,5.688806307259072,12.173543693792912,-0.19310203010723903,-10.490256612381264,1.0229242150823206,3.2509223270673657,-7.101123666455376,-1.5732763565698642,3.53851227647156,-8.072544239770368,-7.008413720713727,5.273522400768619,-3.045277456330332,-14.974100300441496,-9.036122075410606,-9.599877656779018,-15.269255906949502,0.9998181532589188,16.365414861153845,7.790635568141117,4.527947265170922,11.37027584043706,2.929918038141329,-1.4944024118442072,15.17752602735656,18.871436611985068,4.490594320356976,2.4265914056254063,0.7650304974110431,-12.981015472192077,-7.322322069581567,14.738524297986416,15.586309709373388,6.467237058902672,7.088519730048171,-4.675473249342844,-22.62434087659665,-15.227973790584278,-3.2230979942785414,-8.880191171999865,-3.763876755494544,12.63868607216283,9.246318397719048,2.2721061232035433,10.080428752723662,4.291680016894008,-12.843269489512073,-7.5740490610948425,3.417215715835703,-1.7861410938860498,2.7495596468848436,15.666090232765391,6.0451086535046805,-6.9579207818966395,-0.4672111221184716,-0.9402338619005135,-9.405897116609244,2.0657747986762685,14.15804350221371,6.083474131269247,5.261125547615264,12.78808732069071,0.867480398908695,-11.314323991766935,-3.118991214010089,-2.4010884265096992,-11.229787333636608,-2.2467660645885354,5.656740537700287,-7.304680606622456,-10.633060186824409,-0.3552734933556856,-5.879856947549854,-11.407499055375983,0.8851409867915923,0.3991307921325098,-12.956082447274227,-5.267464525893568,6.826594179278127,0.3443107308302116,1.8614684219943582,11.834576776118423,0.43501769061270235,-12.290848425801434,-3.6336024895730477,-2.491000806055654,-11.758748995558449,-1.9409087106895901,9.526192243077103,1.3983333424226947,0.6525409339397445,8.05215068925196,-4.631252355105412,-16.41888733355582,-4.875271783164073,0.3418641049652166,-6.059757637188088,1.9195048281765352,7.3936670718774735,-4.558760786810862,-1.7314204499545913,15.191787020980328,11.589978988091495,2.122960182668387,7.3729056430715065,0.9341333195992187,-16.72416937942951,-14.576551039115376,-8.61698313557643,-17.59370702476206,-13.162585423636685,3.0839647565078065,-2.8077629255828755,-13.489907995517536,-4.124173694079984,-0.15203030778537907,-5.353649118226068,5.327190966820964,11.715077600911352,-4.026565699110105,-7.3388097065311815,6.178514719266086,3.66647546420481,-2.4103981342255887,5.397132507160785,-0.5657185615180835,-17.990467387632798,-12.823502130167682,-1.3791676998308122,-6.846918973442527,-4.156617229184635,7.106071373143246,-1.5271875592981052,-9.752671478145746,4.098743495094357,8.859497161280144,-2.0522629848981593,0.035581794409974776,3.5870012189789775,-6.0711570062326325,-0.7825686002186165,17.413049104396624,13.335645786505477,0.767415806408644,2.8062737465502576,-4.5199124968999325,-21.05041074658225,-15.016841682235754,-2.58587909370093,-6.970188187967727,-3.623981214755352,7.117325892332968,-4.534150873590998,-17.676818290313747,-6.853740648968213,-0.556234860258239,-6.062989121531096,3.1095311972722195,11.36855034621082,0.47460127458817336,0.02302880694855447,11.757153009581245,4.146597348693363,-5.375214991362825,6.145058623245872,10.53214633998946,3.3236226465691097,12.163504373491797,20.19543911642105,9.220884523582306,9.251804507154146,22.262548623871126,19.05613618898159,18.115760813949432,41.72382905407593,63.46887391303159,79.91639677266491,117.00999970079198,155.41236589289798,172.02341765017633,191.68056661137382,215.2966423565991,216.42892086152182,219.7740598484584,254.16163233683704,294.484515070161,334.7018587404435,395.62545770143555,449.4470604864498,466.4853028013979,470.0005525653956,460.98142716543936,411.0272702461826,339.1879817291827,269.61805561840913,180.56801976887567,76.5248633024288,-6.530314034259975,-78.37930903231972,-156.79615268402927,-216.70230112683478,-259.2045112767429,-315.90995278736034,-370.3135775008191,-398.6801214925053,-425.4722692106002,-453.0312498574573,-455.5641527411109,-454.6659068601057,-471.84170983920137,-474.04665267761226,-453.7280367993829,-442.1110411700596,-431.17344052676924,-409.0469551266259,-405.5593418005951,-415.7106433736277,-397.99904302107154,-364.0544604173771,-342.0289676111162,-315.4616418442473,-287.5843262513391,-286.0088680001825,-287.0321550208309,-263.49256922813834,-243.0590208513555,-232.43269929355912,-204.7500240589943,-176.41205656938703,-168.4229917614619,-153.21925953234845,-126.9463726759544,-119.50920450995267,-116.36789661048027,-96.55977551211043,-86.86775369653068,-88.2129416741984,-66.72491332365283,-37.33431054007555,-27.20457442172441,-15.086998068285865,2.9652785219356907,2.4127904313505315,3.6339339839083693,29.591369182817584,48.53537702657454,49.957584424589875,62.17820157336594,73.8765025982998,67.96648659540975,74.22636085452012,95.56251584208373,99.09348702221249,97.98946667821531,113.25232331366436,118.39273568805697,111.73817723320661,124.56162859972179,141.43536522061245,139.9120269088617,146.04274109518906,162.1370350715296,156.8823717283044,144.5526299351636,148.3329846167668,145.79776462687494,137.23778173313514,151.78125297584484,169.9224532625436,165.6681963794491,163.79963937836516,168.9941116288495,155.72469771988517,143.1224575943115,152.3496368232232,153.7840223368891,142.43341567617261,146.68936539578198,151.21942555008036,138.1984247187439,138.7915155952642,156.5224654318579,157.40486083683072,151.84304967477743,159.32735464142246,153.66225521042446,133.2091860594441,130.34726754122994,133.11585994124246,121.79571654859595,122.44449221159277,136.56614683077837,132.23148375581994,122.79863460077655,129.88486707995162,127.83003668041043,113.0388362632988,113.82470987711605,115.50597079768725,100.58115523638088,98.9084881764867,111.91027475410714,105.32252091550625,91.61570549232854,92.90688086261912,85.50812263156914,70.33536598182901,79.32860256319499,93.42955967877418,83.44849877754517,72.99758050969616,70.26605238622588,52.374264035794795,38.591870086836494,50.62098741828998,55.56482140571416,42.88843337536104,43.179922059173045,46.91374495103664,35.532007757390176,34.83490515190708,44.86879305187323,33.73655624631829,17.809709049054618,20.99470014999843,18.66841266137732,8.898895700934794,19.810021357462436,31.720804531762223,20.404164600646325,14.310118211850595,19.713395131984676,8.019928516291799,-3.4341994758982013,21.24271732187256,74.38717731782218,130.31959182955768,170.055382801505,177.3158252983523,143.6881358519664,90.9325580143622,69.05367108786326,84.6308065888695,86.63399158640789,65.16763339372807,56.085010795440425,52.59514522164713,37.04178975984829,32.08155984085343,32.828990998669454,9.45383865397373,-11.700072308806297,-3.8460032896111054,-4.234299823826977,-27.127101013332567,-39.27337212155324,-44.71349622368942,-59.466072044616794,-58.238111223457665,-43.05247454788859,-52.08296542228845,-74.2806103538245,-81.449237257059,-89.76966794885925,-98.03329624438928,-80.38164881950142,-62.419855781718944,-75.87388779775515,-93.37829831497112,-99.77756398863701,-114.07912567717594,-119.6898378207056,-101.63714964616878,-96.1373987873973,-112.33543285250562,-118.18355502128296,-121.50792118425652,-137.8362224178428,-138.07597847812013,-120.36543612652468,-119.10481894418625,-122.53479901729366,-109.49663985114623,-108.65599454620698,-125.64396156594047,-126.52791331323004,-120.42211493510592,-128.34282986722062,-124.13751903695669,-105.3754295964683,-107.65747175499126,-119.85702038020058,-117.24904533440365,-123.34070648666393,-140.06259447500304,-133.45898271078136,-116.2452543707609,-115.08973964963693,-109.76347154654822,-97.78008601503497,-107.11324177331787,-119.76423021143316,-109.38968193117326,-102.92736813357867,-109.80365174285825,-100.9901585952278,-87.75996656160898,-92.19550101503309,-88.84873450809097,-73.8361716122763,-79.95816896465097,-93.80207227936837,-88.69014318727326,-88.20272198852484,-98.17438781510415,-88.5395710935509,-73.39067573914869,-78.37529602050893,-77.7281464306194,-63.90271513442533,-66.91531920783625,-73.38444377522573,-59.394375235562144,-52.022238256620255,-58.83686443521322,-49.67430960038254,-36.56098900761387,-42.3487242099973,-41.16863859833595,-27.298976218683983,-32.4433133980789,-44.58989432616181,-38.726243450046056,-37.8306264965034,-45.52612724149426,-31.71940761098673,-13.364489761947219,-17.773721527485662,-19.35426044369725,-11.02190482319087,-22.120864134371956,-36.97270668123269,-29.81735475363135,-26.482816250431632,-32.06079475248231,-16.046072225406665,4.3103988361432295,1.2674124297916385,1.2728061974945675,12.965149784685872,6.611324267209331,-9.27048862263802,-21.980576566131084,-61.212912546272634,-119.19213574433942,-146.25000408195328,-141.8612597389747,-129.29112670940162,-101.0779945459376,-71.48980793986368,-73.54840686297193,-83.817034420844,-70.19043060187751,-57.66533853289208,-55.911893045897685,-38.64572862830432,-21.165534176272484,-26.505174057734788,-26.071392555014338,-10.892884392216631,-9.350855265193898,-7.645653020887735,15.101525952760733,26.88233331793097,18.4515462332237,24.370712277821905,38.34786762885778,38.647481692779806,48.21814645157769,69.70884366616454,69.98438718814842,61.37554467912335,70.23792081082213,73.19333666711039,63.83621786969805,72.95839808186449,89.39284406748791,88.17773057064132,92.088824022084,106.98837145692706,101.65426819354354,86.96212796231092,90.19168732124513,92.51042602690558,88.69359028996458,104.33877277860006,121.30285507359243,111.96789538318912,103.37043230217442,109.56002851404162,105.32419907241506,100.39654290404883,113.45350949367914,116.54194717832571,103.6859093199692,107.91346281898484,119.03663851589384,112.3851961722809,110.74683921223928,119.93034959838255,111.74269271734966,101.48750833330311,113.85627418265163,120.80006310592601,111.95132423052692,115.02601418203886,118.06758712628746,101.98056357499067,96.1291750920309,105.23474724202194,95.86493831415736,81.14300135691064,86.90446388002907,87.80739980327093,76.80540256760167,83.34600939682376,92.73850600864736,80.33449293108501,74.23351995512002,82.90875000962399,75.41092072582862,65.16699549339651,76.94691353501362,81.29063535641698,68.13901433818874,70.18380362105401,77.39250725372213,64.87932598045892,58.850141146736746,68.2386281285001,61.77860376597114,50.72963840981879,59.56836343074859,60.303061324636545,43.30673493922569,41.537622202477294,47.467922702750144,38.69367700226913,39.316907928378996,54.26274016748452,51.31359756706706,40.7241096864645,45.00342997623651,38.79142026812912,18.19255367989765,18.55033478069885,30.25469842649713,26.954683544620917,29.15793155015937,39.5112773967912,26.835981015452838,7.8287838675290855,12.760430665315855,17.04553078616752,9.04464804638727,15.727096283241357,24.84508599103549,12.410384677020238,4.574099485796323,10.178077776182487,-0.6460177046026949,-15.133900882029986,-6.956966467041492,-2.045888831650406,-11.428869373672677,-6.7092398379431915,1.6302743257966523,-8.071734819585519,-9.1472980199191,3.668273140725182,-4.053135593532718,-20.71298470615751,-17.515100863319187,-17.371129025690653,-29.58863366190099,-25.51212290029114,-18.188349890785933,-32.68364501863855,-40.23602556066908,-29.146411846164376,-32.12400870306163,-42.06143693433036,-34.51379490231002,-33.917356305522496,-48.53947285940943,-45.851195545723996,-34.992219048760994,-41.7272149891432,-41.910929581673905,-27.15396774440664,-29.889584838773224,-41.58046647876485,-37.44315220621702,-41.42574047072924,-59.81127857937312,-57.77326655457207,-43.35601272554641,-43.72872172988359,-39.216089459547604,-26.17765831736787,-37.36132351561392,-58.59111372371381,-57.25084008256547,-53.643845402760476,-58.034428296891235,-43.69084752610997,-24.196319220506396,-26.88459824714001,-28.10549525940873,-18.990274278498198,-29.43516654384416,-46.60649319308395,-41.83286243412814,-38.37559637412333,-46.83164702132056,-39.68480719842074,-29.238746141537398,-40.0911490802244,-45.404315551851994,-34.81836582144712,-39.14048867950029,-49.12007023087296,-40.667703860071384,-38.119611337441235,-48.21178581186231,-39.0883422676328,-22.795150667226082,-28.069417577100452,-33.03328506549165,-27.606158429001873,-37.78974567617423,-49.72936847614024,-37.55616316405646,-28.25431573872293,-35.65456385720202,-31.968394755989127,-25.990175226683252,-39.50996193682331,-43.63605411312507,-27.92561004053872,-27.353373922860687,-36.489366774578436,-30.90638748041706,-33.07938720370153,-47.406345432539084,-39.5235292188885,-22.19799286083977,-26.034339400521013,-27.457455092549687,-16.42938333528295,-23.98091808827138,-38.7033303720857,-32.48319733647034,-28.52938306360279,-36.17521155540042,-26.367255399492215,-12.06930269272478,-20.769423518885162,-26.215332958765845,-15.125820736029723,-17.412374229422515,-24.906237080224823,-13.109180936237276,-7.992873725686512,-19.565046644286586,-14.529043082101056,-1.3583974022279062,-8.048479755766175,-11.693464970272988,-2.3800893907957974,-11.56561812436778,-28.180242888178952,-22.144594800159624,-17.177560487726907,-26.527162366589472,-21.14397715342448,-9.601858792981687,-16.856987394643195,-18.1896238929809,-3.626480026944627,-5.8096039227374305,-16.696652180959166,-8.026030146894797,-1.6040563923865108,-7.973599035684578,1.8744951330669783,16.04004296415083,6.149742224024548,-2.7383691970675876,2.932428383067217,-5.074498545139224,-16.122203588663297,-4.138608289146511,3.7101989586890674,-6.052273556405755,-2.1790250704863583,8.005520302448339,-1.1284977623102455,-4.993000553701206,6.763315121590836,2.217812718389849,-9.39833675627319,-0.48141244648146664,5.233527725230616,-3.322383787510967,3.3591127693827305,13.682423939884185,0.6394929486221885,-7.592083904435227,4.3303184118552185,6.059489540592381,3.0378650604729462,16.08094432747232,17.026198702285193,-2.691610216645519,-4.835077826957656,6.459793540380987,2.7916986006753555,4.0181556739687165,18.339862142457623,13.296674300790514,-2.161456259835594,1.610584305864644,4.124218966064315,-5.168270649340865,2.8054752564627536,17.736846536117582,10.73888182479583,4.172832361190727,11.632879033467082,5.653194004681416,-5.4468345151527435,3.373427511178207,8.48682997078506,-0.2781989500901201,7.711654137335714,23.583745287924582,20.691822084520673,21.442454059603293,34.974916122269825,29.60664109395948,13.75782471782458,16.084048793644907,16.758193242323557,6.662081285406812,15.24720080653426,30.259287286211286,21.336948540436225,13.003206887156487,20.591961122365575,15.215671681194529,3.834733814606772,11.218104817103995,12.854393148751882,-1.6766721213708173,1.2762062179432045,15.632945895817885,13.187742572274157,13.848794636208119,26.128495305917856,19.030549549291916,3.493123461573434,10.191438445227968,16.639188152494725,7.6705139584999715,9.331836900242347,13.087042827768409,-3.5724729547116088,-11.42110807520539,3.797744764158548,7.968582826554316,3.5921956456638027,16.321934092273803,24.556662633645182,17.13950668090574,22.755939328717336,30.74656912126786,14.673903021816617,2.806891673674815,11.511983146976217,9.71576483822208,1.2631290638220256,10.847657288124186,16.828923076582225,9.702771297977556,19.207534087135052,33.48340249924275,21.76929394562209,8.774622680165102,13.256593475940823,9.514672206016826,3.9931556192157336,19.157102904916947,26.451225458349086,11.078403251676637,7.741212193052346,16.559089368522162,13.39404598848493,17.779136041630576,35.406472512063985,30.202757206948753,9.467707189796283,6.073939586212136,3.0671436322516685,-9.799486794313687,-3.398934363664786,12.916055260130424,10.379244389298101,9.964231090552321,21.621905188025522,13.634661736534833,-4.896146080951615,-2.737582665700949,0.008434825140650137,-9.380087601025751,-3.360419644005211,8.009848032566886,-1.8662730975622566,-6.356248933576667,9.221517318860732,12.017451479722123,4.53639398628495,11.343777786195282,10.946337073534725,-4.949938590032809,-2.30362595265321,12.023564130443026,8.134537829899141,5.856851596913331,16.1456753766907,8.700676248809387,-7.373969600879265,-1.3881690797893507,6.14128118861025,0.43502244414451896,6.33015048828889,14.187709668434753,-0.3779438878412087,-9.63704113020556,2.878734816634033,5.597637832651042,-1.1505758479261194,5.531526921816559,4.8814311490277245,-11.791881593904975,-10.882587686482314,1.9984518196492296,-2.834372613699425,-6.045265658585099,4.554375029517695,-0.6980118145902106,-14.288880816169591,-6.328242701494434,2.7359547042253913,-2.0929241522498945,5.574007170492834,15.931188500742042,-0.6466842747299566,-18.14837982742912,-13.324137250273816,-10.715386499587616,-8.925967712323159,10.026583426841691,16.317866437116766,-3.926918851114678,-11.77501196776531,-4.4814406415450705,-10.040664900173311,-11.665235871651278,1.014829563219652,-2.3283277138492524,-13.893367687450063,-5.213652983864673,-0.7458554733784338,-15.705421867765802,-16.863748630973156,-6.352944127432561,-12.317279421428768,-15.595729040368886,-4.651818475430687,-10.149848584611977,-23.88064086507956,-14.66566869120447,-4.595530423185336,-10.600537006822561,-4.197872762926571,8.853027825200469,0.363357915854273,-7.804266327039296,-1.195909688757952,-9.424602241063631,-25.111897304541543,-17.607418613940197,-7.947929586757489,-13.130666517523114,-7.746423878331812,0.9025319855051599,-12.460108038797017,-21.960734431739247,-10.813409432543637,-9.900372978132197,-17.30490618426426,-7.539036022508098,-2.3083733918380265,-15.027592092496697,-14.669765635436548,-4.895120570599659,-11.813955340635204,-13.228048787679967,2.6904210508030157,1.1983621375806726,-14.65097580048079,-13.79810748319397,-12.640656150907938,-22.65113937481283,-14.312038236609482,4.541449648326853,2.3789989376056053,-1.3697358171961649,8.020415522004383,0.8398792517617188,-17.819229573673336,-16.918678472255927,-12.861300529297772,-18.344894470583707,-5.896804981893057,15.069549378240547,10.989893010547368,0.6421772520806073,3.430065447296389,-2.6482389749807758,-9.719319508445972,7.0023101753401065,20.649900950715708,12.393039822298423,11.691787006227973,17.037443182992533,3.432924962996454,-7.604293597663233,-1.7797653483719138,-8.17981563245947,-20.740296897825072,-10.638743225253705,-0.3040689536260448,-6.91173373665129,-1.9558215804006243,9.706085439097949,0.908346169480895,-5.336771839298234,5.634520121581856,1.5033149808660893,-13.587566837408929,-7.909969783121182,1.0333687077288591,-1.9852152500874234,9.254927046936135,25.32620798559347,14.899419650541748,1.7973790230836855,7.0634388440691716,3.1927553082117663,-7.041847724546858,3.0215214810581594,11.486739884061198,2.2773866879360765,4.684250074614853,14.646224226847304,4.201599520774465,-5.10201014360059,2.9069780637799036,-1.137899125236181,-12.640243818268223,-2.386950974092332,8.561683925137013,2.5917493333831074,6.8997377684649575,16.690899789184613,3.7111295972240654,-10.422134648019265,-7.064353306959077,-12.114842226195881,-19.62269839775547,-1.729671191380719,16.038297556559584,10.65458667530549,8.694516555865537,11.244814060084932,-3.0364935032407923,-11.346344484694704,0.5682672193562892,1.7081682751503617,-5.693898823916673,5.765538323301812,14.85331343482401,4.062854796129416,2.4833494621854473,9.745275077907525,0.7873975018933468,-4.088622539237276,9.134919387655403,9.096617198858333,-2.3106004986046615,3.91093696748762,8.575338222377455,-4.221415113507412,-3.5809205090022487,8.898750778539348,3.3779599676921928,-1.7181388902315513,10.325486577601232,10.658024081739757,0.9537827360411946,8.274838862815141,12.39513208838277,-1.9721202794617945,-3.251517146995702,7.744487741670709,2.481269641034942,-1.1596057989955,10.264377704105913,6.638584083319863,-7.035686668591552,-1.0164502296379174,4.034833431686527,-7.356271805932548,-4.8081454231381375,7.007777228435419,-1.3617664554147426,-7.747515143204943,4.2070580389736865,2.272956123556905,-10.402437823732498,-1.857459292975319,8.64283664876964,3.2107002777773657,10.483110721991874,25.016148750828318,14.055600376177308,-1.3644956437802036,0.8654095851757968,-6.258180914601272,-21.170990333823855,-14.767399297838608,-6.584232326534079,-14.771084011951356,-9.37926335482965,8.650028907611192,7.993219615219449,4.562346798181229,14.549380343008988,9.125849114905778,-7.500303322200535,-1.161421274338025,12.361254941172845,15.231660843035227,34.23100868594399,64.90103617763965,76.98320795134214,92.02142784940894,129.88194611138204,157.90898217356147,171.2535890743212,194.52758637982487,204.99315124883515,187.1139682642588,180.02639761258604,187.35222637597826,175.28405734162408,157.13078354467746,145.79098958974492,111.36911940412338,63.43469873744661,39.534520555828394,20.38927125366766,-15.686399651306779,-41.187477071641716,-56.32139353796673,-87.11865512234388,-111.8542526690522,-113.82507798110964,-125.84077431493183,-149.6405774874883,-157.17859535612226,-165.50732092245642,-187.59325623532573,-190.46158472437713,-175.8122332975698,-177.48942607762814,-181.39623312819924,-170.14410022269627,-170.40043336122386,-179.68552783689773,-168.66782626508711,-156.1564203868547,-159.22480178854286,-148.11660284666635,-126.72947067420361,-129.38006098603012,-137.77969376595357,-128.32561664421354,-124.80954930796139,-126.96932562338611,-110.25168364926154,-96.65526256438667,-103.80984281974952,-98.6495877866253,-77.74884799616883,-71.91487846973376,-67.93855435241227,-50.023162808605264,-46.74872350517033,-56.30617094339517,-45.70223503225358,-29.096890100921314,-24.917719412019338,-9.816401915419334,8.684408220885917,-1.414942011078275,-17.404472911563936,-12.953859480299222,-11.590630458470018,-14.321531499753885,2.2990840391444642,16.27475205071479,9.849592665969286,13.944301260946503,29.732234450987523,27.62635258418243,23.95955468525916,36.405810219286614,37.52295340602399,28.83510641866539,39.807343459533755,53.459776851999536,52.95780256126112,64.6271705769282,82.6706319531685,74.74845910265893,60.705987309546884,63.85136683265192,60.02921536290287,50.18166331214239,60.0379199052641,68.12041614292045,57.12486314482247,59.26698875421678,74.96271151029406,72.15432303202839,66.17793150990687,74.73988013878693,70.02677281599185,54.0679128689354,58.75293268149022,67.8938134674678,62.365894344341996,68.69175182615159,83.21226243774656,72.94639226406059,57.15905101971227,59.74462597314651,55.03741843526896,42.76488545104562,51.36183324389819,61.331612886866345,52.101745819835315,52.80927409962956,65.18166255262494,59.47888590180675,52.84672956348352,64.23829940196728,64.20040506077866,51.28443875258294,55.56008121596,60.45726615946371,46.946174839146195,43.465750285740064,51.01801010286373,41.25800196931561,32.96724348937158,44.57479635191096,44.82358386813813,30.221505973676237,29.291043814486486,27.61595576903977,12.132350059114724,14.651194765961952,33.39728346924353,33.68635794509555,28.947063272767366,37.24054571320615,31.736250092767513,15.010815473324703,19.446455143024096,27.90538110094941,19.80854195631523,22.4393914769951,34.5081754789654,24.051270407451142,9.32583073337632,13.742089719379528,11.700709014352672,1.744824787463525,11.437044192216042,21.372194464034404,10.42903839998177,7.703794050804297,16.49555880372833,8.422560459052747,0.8219758171495011,11.83634750747833,10.627491185210388,-4.1774632935349585,-0.6159630812050607,5.835327253636039,-4.167352047496855,-2.6171348840313744,9.45920023294095,-0.1264603969542133,-12.953717829206585,-6.381188470112508,-8.574689521042894,-22.145778254433164,-17.65194448511616,-11.052004629220308,-20.5063034825661,-17.26099356215598,-1.6915758581836888,-6.716191032807399,-17.058348867222282,-9.95528068940094,-8.982285632739892,-16.20814715479152,-7.548580782649382,-3.394966982519744,-22.009049110554827,-29.459101518942145,-18.063129585896778,-18.47960854303649,-21.67370254885785,-12.762507788566422,-18.401354447108297,-35.50799484070731,-30.252549778277675,-19.143663568678544,-26.051266484392016,-26.73078241121096,-20.399052847572044,-35.75577662695998,-52.77190880244456,-45.248199239944896,-37.883730573292254,-35.570204540653435,-14.478138202548545,2.26829974314007,-10.390385757967953,-21.277117111284742,-19.387456405573865,-29.477820528809453,-35.58328350309356,-19.979000045155107,-15.710287560519118,-29.986224895176402,-31.500765021467465,-29.34661305483589,-39.31921201057464,-34.07771011188128,-14.514089463000257,-15.591544059972806,-24.766314596184266,-19.504141332846814,-23.162221748925607,-35.911383257626994,-27.111688759479957,-13.025659215486304,-16.853368177700556,-13.642070678250555,-2.305967775184154,-13.696556471292299,-29.731756914397543,-24.387530216063247,-23.151450123567155,-31.265857223775775,-22.231238077490126,-14.132268863684677,-28.503620371629108,-35.197007701564004,-26.13084284031356,-28.167632615106722,-27.344951063405237,-7.322064891715371,-1.4107842590241613,-16.02416735570099,-17.629121941930183,-13.927896727013497,-22.268916321101553,-17.95514279723255,-3.1566498942193353,-11.432442777075563,-25.13121112433764,-16.511181870448926,-10.681881570215463,-14.762410857433316,-3.168588317497186,5.932407219471215,-7.661374129400436,-10.689139857086838,3.6166976562845354,2.242782335498261,-3.8680249226671997,4.529784192792076,0.7310776682621114,-14.581931677958522,-6.677206254508698,8.730627815813769,4.743027443052373,4.525056071076349,11.191320834986401,-3.662436286023513,-20.94275484848375,-15.185292446771566,-14.143084718650316,-23.923024114554963,-14.51605173067528,-0.9172458724656614,-5.718769898742054,-1.3739859616219197,14.846266344952395,9.21881982832723,-3.207774354397445,3.57606452765382,3.8629119329030726,-8.077244007881017,-3.6384496605248495,1.482478331413173,-12.437825242955055,-12.604594347924689,7.507186593526801,12.107062127950954,6.66849801048029,9.776408925453762,0.705543691598014,-15.835380690383,-6.438568759036338,9.741573426065113,1.8726661705683485,-6.300446963564191,-3.5296672743010626,-12.696328707522866,-20.321235782257148,-9.453618216370375,-9.460131028223135,-22.73818294400197,-13.887042477900252,4.886920028016719,4.756686621611395,4.1442502925328455,7.713304547835606,-7.229908380006008,-18.410521741031683,-1.6589141015128757,9.573702610691097,2.6847545715174155,6.759203755102242,11.874742328085176,0.3129070316080105,0.9992306765488641,16.140490157054266,10.821665015748255,-0.7026688800908336,7.508421348299935,8.219398585744287,-6.560938161834152,-6.348837076080154,-2.2275951567571206,-14.02902081134209,-12.937833021956616,5.492056022219229,6.114083177538758,-0.5665684587893813,10.109525800007207,13.331103379153182,2.779228822827326,8.343228679122927,16.678356977354717,5.395845354995943,3.038127515331324,16.46134331394041,13.178539000142433,4.010709173371884,12.250135785892764,13.314681705651726,2.282173054888693,8.813607513484301,17.95675664511852,5.832287417706048,0.8851467463879396,11.804656735777009,8.287084264086182,1.150425558455375,11.112877623825824,11.974639319987467,0.5192564671015161,9.119442293131355,23.759870180948937,18.174476223863195,16.72309643328156,27.112851141665242,21.02432070501348,10.909231496022274,18.80370529726091,18.447238979754616,4.599946776637985,9.50040257690018,21.576018813303566,15.471344355822382,12.984539190935077,18.181574742580366,2.3968459884705666,-17.47714439355921,-14.200603447298143,-12.248022229472104,-17.804740324489746,-1.7437554164079936,19.02009182080643,16.443071170260374,14.916821281218082,22.661493354128712,14.013103545521403,5.828650329508466,20.71724489081099,27.859037621124266,17.788906601716807,22.693007796543288,33.186589154700144,25.377634061243334,21.879081990958728,27.550909978448022,14.150893578827263,-1.785654148828253,4.575246410731829,4.600362644634236,-9.752950274452171,-5.4346877991217095,7.41748706274432,3.7378033070295142,5.687287307534293,16.892015002601216,7.426695898164705,-5.896173715341223,4.1075567867906,10.007568760004364,2.0283292210822976,10.452982811859567,21.96998730723245,10.162153742280523,2.951131052826523,11.931836859236501,7.195661826773943,-0.13813876182704687,11.997813588464192,13.003818200701858,-5.193130560987965,-5.415478685683288,4.924090608650172,-0.6726521874540925,0.03673587320824301,12.560182649554307,5.125156405398673,-9.0571701250425,-2.2724812683887574,0.8351193934822823,-9.677324779446595,-4.467976344672195,5.5558050598877955,-3.7032484641422307,-5.48385933632361,9.53841633105024,8.702799372260655,0.049225470229785184,7.693385019127742,8.145514775688094,-4.933749449661057,-0.18941790748026843,10.795529617971434,1.8446315535999753,-2.062818646005784,8.833688631190887,3.589782476728379,-8.217746042594992,-0.833859038080428,2.1130229432139367,-8.118758547116371,-2.3561934708141536,6.383785733241366,-7.880624006726116,-16.887064392781035,-7.0723101831250075,-8.706704643978963,-15.319159122146658,-5.755494893767588,-5.457459979143622,-19.639898316775255,-13.08241714786621,3.4472265987799373,-0.9607931843837569,-6.545093673321034,-3.7697381866324933,-17.611627480561744,-30.51612361841713,-13.818470123590654,2.696827331798088,0.3809634469090182,5.697690503967605,11.125721782699623,-4.3989508093927405,-11.66903296485871,0.5660289011723938,-2.074341336100659,-12.52608478960052,-4.079861627052075,-0.909290050575108,-13.205440930601371,-10.378814447481032,-2.6333028613550873,-14.680610221334554,-19.62125619150292,-7.370110272165936,-10.92931776467578,-22.60635908991823,-16.356480128884908,-14.402000424490465,-24.313620584738775,-14.576865157064496,3.0977730953040954,-0.7623518123505582,-2.6496306696769767,8.980340303279847,4.270832068634331,-7.398934456482654,-0.046685052574311214,3.2468783489772166,-6.469233174192846,0.6993737709061039,13.397246570390879,3.4885549777924254,-6.6149722571239025,-5.37767667881597,-18.251111445653187,-31.890280716970874,-19.701905013196146,-7.144521399405795,-8.953279911390942,-0.25724493622700084,7.96188801273119,-7.569045863856007,-17.429986408516275,-6.622501977916762,-6.300129566239917,-12.33181542918682,-2.4095287457842427,0.468811606086591,-10.123903067606074,-1.4837510031608545,14.829347809011994,7.302849681316714,-3.0673011016306635,-2.14018558372618,-13.160658726261051,-22.265205196302457,-4.091030954348763,11.086675298205586,5.587622042307659,7.445415158137596,10.149931152356471,-6.749837662589074,-13.756842945698878,0.041150458039425075,-0.46734039858419596,-9.623144945338955,-0.7514008994294326,3.195308074762742,-8.386272522372808,-4.268756215855783,7.083961765262334,-0.951624019103555,-4.04954533390599,8.201803883305956,2.308434269505497,-13.856432592584177,-8.64957404885377,-0.6137174726273169,-3.324819336756618,7.925887367758817,21.91598088462457,11.368192593509779,2.3636887915499902,11.008683829259269,6.891570538972937,-5.244470692407754,0.9326962709550415,4.059505468896649,-6.76342553591113,-0.4659653326332065,15.687198191942308,12.244255225815088,9.05830769676927,17.73756541940748,9.132321833640175,-6.740281221187427,-0.35864985337597854,4.986813926735645,-5.482328064076073,-3.1688321605036855,5.906451525162845,-2.4033620481340483,-4.53879602430221,9.452958592301115,6.66783222456844,-5.688998022122674,1.1616643872827481,6.068537022518728,-1.9947010965184635,6.446105493658161,20.350100441067422,10.21217325661257,1.6147046395567313,11.48264121951899,10.344536476647468,2.6287538272204025,11.609910698302722,11.882993891913346,-6.979580387077383,-8.424011649297015,4.625600805203679,2.811458123318626,3.613427270619127,16.64224882783759,10.66002898405959,-7.170678169858623,-5.036543121403625,0.9317743509753533,-1.4724167614519486,12.751111117135473,30.412625135076304,19.017494391176903,2.5671349814225954,3.428961471010068,-1.6182199046027104,-7.234404293142977,9.737913206875177,22.57950069747169,14.119385766291874,13.644432240757359,16.655690285036243,-2.5291148510383703,-19.1846470373086,-15.884128311724009,-20.370464542569653,-27.903368921169395,-13.094338054373313,0.9299881711106606,-1.8593625252243036,5.104094755281187,15.515354601819269,4.189036116707511,-4.545946074753267,4.889303946051813,3.0921278997279344,-5.735296682646588,3.5618127646390496,8.031830090054259,-4.735397900370853,-2.94888110982313,7.739630102811404,-0.732133911443472,-6.4192060750702815,4.0567526968624685,0.0950054392046602,-12.234346262532952,-4.634303561192787,0.41788098408994945,-11.299485513104678,-7.550621046003714,7.354856215061421,2.811852779031751,-1.8852716846318722,7.42531560511974,0.6615755942051571,-15.094031146750716,-8.42169615814027,-1.0103603346767482,-10.03344596718041,-6.827986234991207,3.9058372169376754,-4.460566773588605,-8.827554605874031,5.6649801515211715,6.6745690007864145,-4.923113132263918,-2.223732759280773,-2.8060209640945044,-16.804864405840817,-12.77707648866226,3.65127575097174,2.1604248613927393,0.3022564640711142,9.642202047885466,1.2239348188094525,-16.04780274538882,-10.13292729572538,-0.19079505084660164,-3.36718284885992,3.6931314667523614,13.290907118069732,1.0870670573489774,-7.253110026095655,3.4979508220788844,0.5927902070888069,-13.73875913215269,-9.200467496194486,-2.721920095176732,-9.052972339074298,-2.029870693784273,10.283980483410252,-0.6114607594274952,-9.306108497661649,2.8437205133445147,3.729253739508398,-5.80463821352094,2.34733780592067,8.346699540248007,-1.6011702525961953,3.447798152448108,17.465172550467095,8.31462768442487,-3.865299847440823,-0.061183564322428996,-5.939129589650889,-15.948312976483512,-2.8162859232195334,9.315605385707295,1.6986741860045114,3.8281592253934678,13.649526003058314,4.311260547857036,-2.711740188945287,8.208482855799964,6.703123370581404,-4.543284305342725,1.5625702734258518,3.318931072795248,-13.166500344794004,-13.022375079619803,2.9201681147201644,3.135801398358855,3.318978612316302,16.320465219281203,11.901916624552964,-4.369751405861903,-0.043854556558851954,6.534927912499823,-2.5597796356059623,0.35159151025855717,12.176924488915944,2.8197837219693387,-8.800443968653314,-3.662311915625252,-7.892908282407098,-17.875222595861054,-5.992007229993813,5.281123024018911,-3.8034666817541343,-4.395292504760302,4.091499001374908,-4.76744186941066,-11.633003158381978,0.07139282792902168,1.0725638034932587,-7.61321839519963,2.1461543263732263,11.380302114020893,3.1304189050304667,6.417274118614513,19.0063870005179,10.422091663300325,-1.994815471644825,-0.2771778403981995,-8.780737646442088,-20.90326192886701,-8.089812359632797,5.881646905499594,-0.7954922392992776,-1.503179821170882,3.9323311211070715,-7.4884418109154405,-13.740161549522238,-0.7865950594554523,-1.1506047369155308,-13.419577886747893,-7.116189049469754,1.6261172526025143,-3.1819089188428364,3.8394545574555723,16.46461471189994,5.192869359356226,-8.48252563689825,-3.9253997941048206,-7.295305561381453,-16.451302885226443,-3.9462827650641286,9.472798067370658,3.4713447064030314,3.897870268179392,10.822279505038745,-0.05596493211907472,-7.142948351869096,7.588163860777003,11.81079956303932,0.5365203624915047,1.5785095939405585,1.5299033298888092,-11.07551299010319,-4.19518519631675,18.322462622413113,20.305231334974984,16.4127578324978,26.81773610745244,27.064581601456485,21.511010081879338,41.22008500394511,66.25124517282279,76.05146155822736,100.94045470072734,141.47139186573924,163.17771193057288,177.19518381421858,197.8556296076139,195.93245562698505,176.67163992563616,178.15001920266877,185.49449678570582,173.68467836546694,163.33864157584586,152.44585705557367,116.27967229053003,80.34791036911382,66.8468714403406,42.92149541574332,1.7021196227240996,-27.50327562546575,-53.19379717171536,-85.62470741451602,-97.25054346250819,-94.95400795049092,-115.44140219976727,-143.38636614411038,-154.65413226582288,-171.328909531717,-193.63515914386187,-195.46050362798636,-195.12211030947395,-209.87341021357912,-209.40167811094227,-193.1331687287898,-194.64339666426213,-201.28263442562843,-192.71006303185078,-192.72383742519423,-200.24245141458485,-185.78039111534628,-167.98108294849024,-169.2292908811449,-161.538227229475,-141.9719745138347,-141.3766298499806,-145.88136972461905,-135.55895639081353,-133.77451796735397,-136.6166212602784,-113.70580365808694,-86.66647543916451,-81.79997448504268,-74.80365442797898,-62.828174709151654,-69.05732982913447,-70.44622274801308,-47.454164798654844,-33.31328898720078,-33.51641456865434,-20.181870892407737,-9.864500254354429,-18.150100460828266,-11.825169040650707,9.747571653497156,11.409586792777134,7.161991861335403,18.31937591090766,19.12101369886434,11.145569110234959,26.304859154643438,44.05072525044565,38.96253694019106,40.32093989974472,54.5362491855493,53.6469617255402,52.252903647278316,66.22781358548148,65.12312363178937,49.92093518296801,55.76888930404803,69.16361529669237,68.44936685582354,76.4623466089267,90.61179797038625,81.68473423395618,70.07251506279832,78.61970121002679,80.15641048036196,72.08305452573492,80.83197636663547,86.04875537928069,67.76638844517664,59.24679251473398,68.35097788002417,66.79547623076414,67.31213121235746,84.50709597830578,87.46797735242201,76.10936765139444,83.96378766182227,95.16531199135852,85.93532115148942,81.43349880759283,85.98397734108127,74.21033942339594,64.12992591639878,74.85425176348834,75.41613426104568,61.22831002751748,64.25970808573415,72.35655325389266,64.84967123660122,66.48732348989252,78.3787307325153,70.12854926413856,56.9852319396538,60.78136740907563,55.366189931952974,38.521365667148004,42.239334547326905,53.281599696876135,49.465382567153426,53.98162486386961,65.8051035739075,53.92891269199213,36.43873256879256,37.78940167489857,32.39842887829703,18.2128880447194,25.289201335752935,36.67180512074719,28.767150265308096,27.142531964013507,35.390973830074365,24.898271173242833,12.226360806647476,20.705110016155423,23.354544160873075,13.187454537159859,17.506756705320356,22.863718517110115,10.763650005219066,10.278727972412819,25.011310982157728,21.59638859174494,11.402058989202825,16.332543850901516,12.751253554032026,-0.01278101511683083,7.0909699701788895,15.330018228209806,2.165212470575465,-2.5036385785350914,7.837299337936709,3.22847529301374,-4.063287866450671,5.014609629660544,2.8186621667091996,-13.630987453176601,-12.236238179406993,-5.075696275506939,-12.598527643571238,-9.437499602024092,5.178361004548209,-1.2052611739206656,-14.639871996905457,-11.818329976237571,-16.467109363934988,-29.756076414015965,-20.555644139519142,-5.462330954215618,-10.298732943704646,-10.608203788901298,-2.0769158535826278,-12.92625688126428,-25.612664914836486,-16.385504090339666,-14.09843252818657,-26.158877537079213,-22.243921079778758,-14.499574603069526,-24.84035876743321,-28.136141538996306,-20.296950908663945,-29.72055436166832,-39.98712353190736,-28.329361841016294,-23.40189055553138,-32.991883372588184,-28.88305158329234,-24.448022449855696,-38.48585969977907,-41.04594132305639,-28.170897713368873,-32.55865192698876,-40.18737794284573,-27.908373812496116,-23.05446466951514,-31.90440789776272,-25.89357206141367,-19.646790026279994,-33.69191262897762,-37.58210566114018,-23.87161588748866,-24.940215992836183,-31.562287291093007,-23.124596263325014,-25.580852273674576,-42.235135684228624,-38.701215388328436,-25.503359420151508,-27.106595981260742,-21.559057484052147,-7.676190409028653,-18.134696883679577,-37.27636878609246,-35.69944013959174,-35.15579546504701,-42.32257446284764,-31.026854402023446,-18.825182393831945,-30.29156427955216,-36.103737130522674,-26.23981443500646,-30.077367846737122,-35.926279683209955,-22.28240940422367,-17.560217542655636,-28.694041928116874,-23.679841637470766,-15.280730618130505,-28.09917459904316,-33.85462515577399,-22.108194775828142,-22.60840006502549,-25.340427904481444,-10.189698312462307,-6.9469813482259815,-24.191436991089184,-28.665042999085763,-26.821246298336874,-37.29459074326076,-33.16690374168314,-11.33443375675013,-7.79851812307423,-14.446999405480364,-8.92692949754783,-14.259245261758274,-31.65556849423077,-26.28589033920992,-9.109495877711351,-5.929364249343611,4.077058937582213,21.830715876018242,12.502071220425812,-10.036633697846908,-12.887542340636479,-13.617196827177109,-18.827539764903566,-2.530351911415286,16.90011268798526,8.831579626898723,-3.20729273236274,-7.396215363881861,-27.114539796536974,-44.27145635557465,-31.29025621582116,-16.39265338013235,-14.794482794831314,-2.6751234557265064,7.09758930240406,-5.581977295727845,-9.794214441059477,4.568880348378004,5.10050897649509,-0.0043438750889097655,13.350391734258553,21.526056758345177,15.67326827298595,22.517416298425342,28.170814454041345,9.391419699713177,-4.048550395865375,1.0132378216305185,-4.008080901950035,-11.787509750535081,-3.0790409863673966,-2.906915247691546,-16.041906811647777,-10.684598014213599,2.6292690817410485,-1.0315800219112843,1.1995536573276369,16.861886252283686,15.959037446022293,8.104821587370019,16.589627577734294,16.411101724316907,0.6058448650500576,3.373326453204225,17.79172758399602,18.660396260441694,24.912635476041935,37.101579571772746,21.558335200538693,-5.034813130052556,-7.4197842683938315,-5.3705515233070455,-10.705703843695087,0.5190585751087271,13.885908247143766,5.735897840604361,3.8020621754084147,16.741147266923317,12.463311893745592,2.0129597789275038,12.479299964774428,19.979375558980728,12.922835438716222,17.707921217835242,24.218471635712568,10.903855290258544,5.25136449217371,17.84606819046621,16.49685706249171,7.322182997902555,14.0319858576462,12.971204324840492,-3.7806317004389927,-3.328088260837428,6.7760144478659186,1.279221474870397,1.989360709420755,15.374122672673716,10.95052723427796,0.8433062888717049,11.037878324807982,16.09311083704609,6.636383674113269,13.762615481668366,27.57297786150369,22.01515566901108,19.42705378250578,26.54054368009325,12.842606914796487,-7.1445157568956095,-2.3075202867856093,4.028936625110583,-1.3030591259617705,7.807666440720549,19.375703005127825,7.903975229698419,-1.4331948470978855,3.1309002857849646,-4.934986858228841,-12.168536133514532,7.835736547900624,26.324448333630567,24.683418085638124,27.510307159756177,28.50127313478425,10.829927566488985,4.596229321125249,17.953543886379776,13.291662001204596,-3.8563147716922996,-2.9551501179987003,-1.0138219316065624,-6.930065909044279,5.2499552643190786,20.496310597683266,10.211341172913903,0.7259441938025042,7.10482918228073,1.4540342482834925,-7.60126948366185,5.008650473911036,14.055210121774353,6.081696531975307,8.894940652994944,14.409763493130086,0.5919776078181718,-5.283213875971135,6.891964039235459,3.1609304161059395,-10.213090164558215,-6.398605477077053,-5.282947300914029,-13.793411009418923,-2.640560050496023,14.4336587799076,7.455476522866092,-0.39750631615965504,4.176124539793539,-4.819614874059463,-15.141584816795405,-0.23982241103637136,13.032531561077189,9.00803038090053,14.915985909161034,21.95009674785961,5.9590048578636,-4.64458742353764,5.832557446253453,6.563246251938492,1.555821410403003,12.239562614296727,11.486896467543515,-9.877137345321948,-13.229378315973076,-0.5967607041871821,-1.3406463046058423,-0.32089739584142396,9.73310849176504,0.6281435696282909,-14.862486799611599,-5.325489134010727,5.775731705879503,-0.2412612158366363,2.370837975573869,8.728637999559066,-4.079323284629791,-11.38260802051726,-0.4909749302098181,-2.5874622800402585,-12.002501755377276,-3.531168959983236,-2.0012678665404358,-19.355442398654926,-20.69576709327273,-8.06810843664509,-7.392009118414314,0.35994203109521106,20.150928692176663,15.618842901266008,-4.385114806278833,-4.960474272752176,-2.6342920960006424,-9.08548819938165,1.8498766520747632,17.111850389604403,6.938078556061303,-3.4562545174657213,2.3781758513346336,-3.7385084634441474,-15.122655530683437,-6.321771424448084,-0.0017302903659645041,-6.984455399684849,2.6307903167191053,18.734762399835486,10.554805150634659,-0.1949199257284433,3.036508377250902,-4.94356612498223,-15.839555153015183,-3.5222354017627913,7.84824136477602,2.9134127951646924,9.676836901753697,21.007342794493333,9.389540217653973,-2.172914753535224,2.8097209142848296,-2.5289212357869038,-12.365349886922608,-1.8734836319569466,4.9354968915212405,-5.464005994495654,-1.6846802501423186,10.597459451637087,2.8039917033099413,-2.837334701185402,7.44263941110646,2.2460750733185577,-12.693169076570149,-8.456944873896987,-5.6159151696080265,-15.966953493482928,-8.737599652301132,7.452134650560419,0.8084300703482006,-7.321598043217621,1.0375924677573805,-0.29702959101927773,-6.973634562553107,4.658096977217212,10.871845924354812,-1.6814564427556498,-1.255602034881576,8.23918796446605,-1.1743809528867812,-8.549645680553775,0.36136933325210574,-4.619184304666611,-18.951689078537736,-14.759861441538666,-11.509706701341786,-20.398491344897124,-11.129116657159724,7.740139564574939,3.935994522690344,-2.8440427655067886,4.408657079454361,-0.25420661091104213,-11.54072955432577,-3.774968449895296,1.2429014237887204,-9.79074801379811,-5.4057715024166955,10.55967209160015,7.540280042803481,2.1118865941183795,7.522477072210455,-3.543374070186638,-22.490339366490876,-18.33500645641411,-12.143813245224122,-19.66140719631671,-11.326911394364648,6.990177801365719,4.735904120128441,0.40246863457832216,7.3908788412513795,-1.88732840737939,-18.789108446670195,-13.40200255979917,-7.017988230954849,-14.495780695070065,-6.1021647867641144,12.126455027727932,9.122586549622882,3.176459062508563,8.442050589600335,-2.901222713590526,-21.574821658558207,-14.64551731478796,-3.1939574723907134,-5.085960855617685,7.01281351442823,24.56148593062005,15.300679072093626,0.8694806543376719,1.0803112875986525,-8.392522352435453,-20.204488931310046,-6.905768770522807,6.847715660188214,0.7409890377665933,1.859295628909291,8.814106180346943,-2.4751964205947683,-10.046141663428742,0.3569815710819304,-2.101481286748678,-13.180157669105606,-2.789069860668855,9.545015070709905,6.31763437780375,11.819963322598142,18.528142828781554,0.5482420089873941,-15.353836639629355,-8.505480176437057,-7.615364847686656,-12.658248746169276,0.056207539547217245,7.346802411556424,-7.087446519904026,-11.333699794922069,-3.3654350095748913,-7.743572421721844,-5.988916676521069,12.640114614423172,13.118830244364897,-4.494082003266543,-7.232878140390609,-5.469388085376791,-10.64462355756473,3.388335552752718,26.64526997802907,23.2634980639751,10.61387788256693,9.867535614499968,-0.9918777051940708,-15.99806601624179,-7.889105230379888,1.3946454961414474,-6.474523380397609,-3.611956688145792,7.714372892748809,-0.9073002787397346,-10.306840019262033,-2.427161931168436,-3.389252262426532,-9.531006058709952,4.918360151653323,15.664562966298938,5.13820657579143,5.409333853347711,15.42779436975376,6.4860170972569335,-0.9433151158697382,9.279551996191014,6.987432818592712,-3.863274547356339,5.491128369570692,12.494054397278095,0.2659200084116895,1.0224771160093526,13.22990501179928,6.345250445798264,-1.4355193114990425,6.349098065138435,1.1715706374507295,-12.093908770811161,-1.666295029989251,12.842460106082644,10.525774773602866,15.8529602370725,24.691018443763017,9.439467191013712,-6.523590404589937,-1.3757216588285623,-3.7492738455153125,-15.714149287301055,-10.008622524426999,-3.3716551181172694,-11.510194929789044,-6.4730378277934095,7.965799239104803,0.7656365069653637,-8.64231521571463,0.5312314728518972,0.4002505456872052,-9.992165909030927,-3.340906895846106,2.4239785383655357,-7.318637455648522,-2.498779662350466,12.125602755072181,3.3745781546853983,-9.553516072327845,-4.0486548623238265,-5.007891620258153,-12.249062933966878,-0.7709588472020652,8.021411035048976,-2.2434797006505187,0.9667574288152512,16.733299746242228,11.302673112017523,-0.01773162058366795,2.944103473485581,-2.8409696893481664,-11.71876343474047,4.168191474526555,19.007560652058306,9.227221471073912,4.6726372014973645,8.821568421097794,-3.6739806693830435,-12.546232681730224,-1.355464947905502,-2.023751157460561,-14.179245728673447,-6.783558693991315,1.7787438853670963,-8.61628350020412,-9.913799994048565,-0.8894487476827679,-8.205199893358872,-12.515808072470882,2.7265257818032156,5.100522544032923,-7.033402557381997,-2.5448910455015095,4.374793926845048,-2.474338075382386,3.548961511680978,18.81978175992797,13.292945909350959,5.184882327090797,12.050801883115906,5.18491872937426,-12.711580689677914,-8.66723306897797,1.4416413419205063,-1.622087684718354,6.935091377270936,21.68870760764113,11.027627668756976,-4.142036328077712,-0.12252476902361664,-2.17777182770136,-9.916612986158535,3.47841248107075,15.615815489722737,4.626736722437804,0.6767298538923285,9.134154516410653,4.054879766663674,0.42749299208142155,10.458015333922814,2.9965706173313924,-17.14514953524851,-13.28617303531744,-1.0277283540796054,-3.218910337506761,2.4262476487342743,12.18975538497638,-1.0625812372230294,-13.419311013232779,-3.7383805110658255,-2.8247521988960274,-12.074725166401272,-1.4187784080204677,10.793882772876065,3.6744096652068445,4.415095598555375,13.165379331507669,1.1170015138668452,-12.235410688999139,-5.823919986444678,-7.85843479380043,-19.626112268935206,-11.644873048977768,-1.2250361336604159,-8.684367521688097,-7.566620468636173,2.2307562257365574,-7.327245902566448,-16.160562011434145,-2.8008790846203384,3.291281589861434,-3.0032015514728716,4.071450657765172,7.855763810960252,-5.526395271199499,-2.988229625417661,15.139332629248756,13.14626855820094,2.367533103862067,2.5429496008857897,-8.079232243497378,-24.44390610627963,-15.719216401633574,-1.907487368904481,-6.508552898463635,-2.4848651737979592,12.079227203948825,5.774239380682312,-6.896844781285983,-4.5784976138779765,-11.288547293336709,-25.354007593424274,-16.107623587927293,-2.463301579300145,-8.116108440782448,-5.878080761784171,7.832009688743049,3.7289918045283588,-3.2458683164394078,5.767314908430828,2.764475144464599,-13.369871387042389,-11.622632354526218,-6.7790146737113925,-16.044932679806692,-8.313806976367374,17.177123724666977,23.65616650582077,19.4358268654466,21.64588124263426,7.1655278450872855,-15.86210130997926,-10.69435513296728,4.043630891766146,0.8801107350829236,2.4804051824059856,10.251886176146908,-2.092032809317012,-14.093213493159924,-4.493010038969622,-3.3804251673219095,-14.469055678851959,-6.576500732277755,5.576464540601678,0.8730608553121106,4.9971176176654915,17.717148574933418,8.598746415805667,-3.466748106475786,5.2972088901984735,6.500910496022737,-5.705680677888174,-1.4823261492633941,6.895070002384048,0.5833031957805437,5.6581832709705,20.910565470078968,12.220676789359246,-4.766223106002652,-4.2646368484489905,-8.902464923280826,-20.268314013224504,-9.784027085862299,5.054730960503452,0.9799666049374616,3.5732193815322835,16.51293781245901,11.164129127900967,2.8985260503593504,13.000919216917612,14.364923365870332,3.851783207157299,11.525781049721594,21.1396770158138,11.175875630016133,10.66785467819883,24.484085200929435,22.54839174209335,17.568604990522914,26.72566115978447,21.823879008377972,4.873985499842443,13.235618024815018,32.33204222517617,34.56170464642024,44.82076563993283,71.85342511621624,91.58958919540288,120.47864608005199,173.63645480561897,210.21953672742703,217.71680005515185,234.05575965014384,259.54662126642614,276.47642915628717,301.5333443606323,322.17718491371375,296.8370895845719,243.8773524733806,199.75882182114646,149.19528225118455,90.25650634817598,48.395469204248684,7.393002111940071,-47.549125407566805,-84.58184556362829,-103.49237339565231,-138.35098799181162,-176.45009701682721,-197.32552506454877,-224.06496061866062,-254.76678175248531,-259.1393382845823,-254.90719663369399,-265.4947858586085,-267.19249830815056,-260.90038501637616,-274.98764951927734,-286.27796985226377,-268.4266428496032,-251.9136119476801,-247.75669132322497,-231.45332876070347,-217.4361350900142,-221.50421351842152,-211.84391350081683,-186.12410065647268,-179.75727641428696,-180.40925487845914,-164.43431875290543,-156.32543939982298,-158.39025202000062,-140.450482773788,-119.19279294244379,-117.92704205085445,-109.15591310715006,-88.47406149380778,-86.85411517048092,-88.5899214561184,-68.91902900579919,-55.37931463369391,-55.53268310753204,-40.94707299817483,-26.448087726426465,-33.231803835354896,-30.515397713324887,-9.969426038928743,-3.6032605209142834,-2.2651683766514905,13.749392892416179,16.9958115857547,3.787184789899734,9.492613516099496,25.629001958650385,30.135526066865197,44.64574009824692,67.18072882039311,63.361999169958324,49.07937458445549,53.690432822861816,56.587028370527804,52.922818193875884,68.43027301380589,85.02952937140911,78.55846995817818,75.91815518163226,83.93836789585592,75.67887940597018,67.89385160213934,82.69431073851085,90.23710173393309,82.10534707976696,87.41008123882372,95.38386448890796,87.92048384625583,90.93154587361731,103.56835558991591,91.63782311890401,71.73512342962127,72.97825646391155,73.5663612437067,68.82925725485585,85.02785013110253,102.85210854058236,97.03443862748824,94.25214964404415,100.1003996601652,85.91970486517616,69.3567409003889,76.82893123231112,82.17470162139443,77.49213019013848,90.05346175740577,103.22503779294496,92.42553142022683,86.6251694777669,94.71564586095023,86.04007595271061,72.7840375954549,77.53103905083447,73.59682086268829,57.06652808885992,61.37284272454013,73.02349701177715,64.73669217334268,59.35504127182884,64.50896154802172,55.183311979917875,47.250533758875534,61.505931736525824,66.62109480415822,52.611571577977784,50.98461030165776,54.42650091577461,43.33903661246834,41.58391803254409,51.48456359226513,42.08719939969867,27.7139248143464,33.71521196483997,35.006292744027924,23.219604789230168,26.69858142865165,33.65512850431904,21.45907420808593,14.879093809301537,20.408908006308778,10.338413182343134,-1.0757402345045972,9.866850061861513,17.24165890848367,11.792537354790412,19.529698495838318,27.427024579101023,15.381648560367623,11.490142640686994,21.98323507101011,15.619708916943189,2.7293451509287245,4.749325123597995,-2.5005227208741094,-21.77243432285272,-20.971302596425666,-12.700447782848016,-19.908451347985487,-16.087173592047904,3.167071326261248,2.9434308539588017,-7.253051963489501,-2.8291204974592565,-6.278908147039555,-21.37714272713791,-16.988878058455633,-7.093969116481746,-16.856615907646177,-19.315391827084042,-6.0785566995416325,-9.496702012560391,-21.219695034815782,-17.529898321160964,-20.321644117728894,-33.98507137303923,-27.872042767701178,-15.210932226495697,-22.761322554492256,-27.379262633604192,-21.759286335675654,-34.91767675550429,-53.69742594569353,-51.82352901135437,-51.07004773342937,-56.61849569122176,-40.97994321670005,-22.535200896054903,-30.59650083823687,-39.83297404641438,-36.96148313153985,-44.04944039399884,-46.71971025483149,-26.160037724260665,-15.017386644602094,-25.834908415441387,-27.698961237933574,-25.200003014490683,-36.75619571521566,-36.90695235083236,-20.31369172294435,-20.97927127619839,-31.66311027700207,-28.775325221569407,-33.699331436620795,-50.653218821135155,-48.10274414054955,-37.48389802881003,-45.76710405598983,-50.32329573553858,-40.82807161332579,-44.02847293696229,-49.71968001961275,-37.07128860255486,-33.215071903902384,-46.04641329296543,-43.08615617825259,-31.905704911096787,-35.6016659954747,-31.749928138631077,-15.07601998323859,-16.84054046364013,-26.8093302976723,-20.92358805113114,-22.344703626323223,-35.94546955121665,-29.89728618265289,-17.09183582500868,-24.97649166860391,-29.006525606292335,-19.40344090763583,-26.167739317919533,-39.28815299140625,-33.673950760994174,-32.129895230009865,-41.39113822117835,-30.811170007552946,-12.875672825311515,-16.301134582479047,-18.6054560446529,-9.044629724705992,-15.244309284819595,-27.03766831726845,-20.351515699470347,-17.7837185817799,-26.16734104881556,-16.84183343151122,-2.6495744151225225,-9.9118080982418,-15.550308092587738,-9.465135994840999,-16.953744360113735,-24.3698328406909,-8.379304327807278,1.2638483528545812,-9.758255811001305,-12.024755505060543,-10.036625334201645,-20.118307029145647,-14.257290169953597,10.477949140134841,14.034873554239198,2.179526372866639,2.9437879839427157,-1.3390385767883852,-14.443421716503844,-6.428074165464767,8.768414781578153,4.049656006183275,3.882051327691346,16.741719292306673,11.064851241228045,-3.159887782314312,0.005631276472263025,-2.313882921463961,-16.865689929639807,-12.511231162806359,-0.7231689158343095,-7.707668239472486,-8.670606170049302,5.993394885805529,4.758244261800771,-3.7001287063407378,6.099308435701173,11.183938028337034,3.9709508337556407,14.666437046445779,30.438941946594827,22.745438393815157,15.228595408815067,20.764776444986868,13.181761815890034,2.0083240525439177,9.31659876139512,9.346568351193191,-5.263708095470724,0.37308201954998044,18.55280229752653,19.467322565587157,19.916319044050297,25.925130445300642,11.218945303982334,-6.127111332268136,3.287342263111846,11.946238279830272,4.603873261178059,8.2793102939147,14.924980033723319,3.7764339103151796,1.16532287926173,15.723846157858281,15.506271255763751,8.469470012222185,18.956100732038724,22.22682311074343,8.569114715697278,10.340475594475734,20.671930198804006,14.459487764680645,14.045814166482636,26.45735882026886,19.424643754406016,4.395546420971165,11.049282872615752,16.478967568207896,9.246862405684556,17.586232988601786,29.262843281793163,16.771648873768115,5.572781648440063,9.122390878717104,-0.12998523998521172,-11.16951521263783,2.2307413682087542,12.896129120513043,4.256681061647628,3.8373332771353046,7.109915749550424,-4.976511033195061,-5.816598465929397,12.757722489686415,14.770450869872127,3.8408891657444997,6.27845612086789,3.970044398630269,-8.987404865787079,-1.6883842037837766,15.90434525050729,16.14826146174127,18.53572204351976,28.399927771572138,15.430492362865316,-5.493120484915608,-1.682029984352572,6.630721208098288,6.201090564114283,18.884710404397076,29.460526727420152,12.931711763072569,-1.2451769911603257,3.715274575347212,0.1722481731239447,-5.868743095770387,6.746763302914422,11.921414167729019,-0.25717944966929984,2.990420729273588,14.829939769722861,7.940654535830369,3.2219830067558064,11.489970136459702,4.532356353101516,-8.626096699003917,-2.412576679987238,0.5944818512193457,-8.452185441462616,1.545357102056757,19.78045696518941,15.302474937034177,8.418958239223523,11.94017401508578,1.487791399676241,-9.961761593439352,2.024671958123027,8.059089134749534,-5.776584641454113,-6.957874778750152,0.3719452295044361,-6.340296519045657,-3.696803913814187,14.02365417126904,10.831371609500987,-5.216007310977385,-2.342530904053839,2.318889207439681,-1.4288694246257552,11.02480903086554,23.657167462199393,6.845014609938936,-10.801042587786197,-7.304319581383259,-5.9771656794437735,-2.1761903503660145,19.782781031118958,27.900198622655143,10.198771654006633,3.800153663334123,8.574467325945326,-0.19779656783815192,-3.5715733092111215,5.892294735583436,-1.8099002331469576,-15.279257982677045,-5.7314848034823465,2.2362821268343223,-5.475645188478415,0.5455573512193919,12.249520776244038,2.352251965311482,-5.239147393797805,3.8742346861706407,1.5905078202786527,-4.444710525788371,9.291675756227088,15.536002684172804,1.9715102401170315,2.299643601108222,11.325222343113662,1.4289557406596858,-5.652762890329971,2.8028256009382346,-2.2083863216393,-13.228981791633254,-4.749070416050698,-1.497293429410672,-15.50562055665741,-13.521781155197477,-0.9392913750856708,-6.326400008617453,-8.65422258843013,3.5891409271204164,-1.3657184384412848,-16.74023336903864,-13.483074553963895,-10.951656706180993,-18.135034025930793,-5.078021832625583,16.02783741100395,12.693578414994697,5.773303279761093,10.7886711898878,2.3233900893383983,-11.070490423995087,-3.107046587168756,3.4312897673062803,-3.7115283764453557,5.864859838001427,24.235803413204906,20.775727806036745,14.116614477324674,16.496225690712496,1.4921177413127378,-19.45855186888727,-16.442092998158202,-11.550052642493052,-19.338380354105468,-12.115192981245762,2.7750779036760393,-0.9509596206465911,-1.7200315018536205,9.97639139341673,2.956627370110243,-12.880430409183937,-7.019212682199084,-0.28687205108723135,-5.5183616590120455,3.901925806050261,17.412537032174956,7.995435534894029,0.06970648512152144,8.14437971601606,3.708873470438477,-6.23700760631645,3.8592578152873998,8.911162696381004,-5.578431740961896,-7.841128277353482,-0.42076376735417975,-8.420476847089242,-11.596279537440537,-0.9173080646825662,-7.875300067415411,-23.10802942858124,-15.46231930097591,-6.177925474434453,-10.742615256205633,-3.509705960224847,6.630084918054332,-4.9264995445726845,-11.094578760897518,2.704929389197762,4.322200133067739,-3.464353627276721,2.1958197307394864,-1.709207607949745,-21.236966507293932,-17.81732082044236,3.2324066390099535,8.690553243563144,12.658480882322701,21.737750725951,6.312976500315255,-18.32460314719171,-15.000159857448194,-3.7416256556637766,-3.150158940710487,9.235757932731081,21.177326049677045,4.475113809296488,-11.93794992157516,-5.743517640808564,-4.994047004483661,-9.20675393326097,2.828396163349834,6.019506457899589,-12.586182612109925,-18.544501377869658,-11.95985828822095,-17.560926989649204,-15.27497796315274,4.080391454372834,6.328855719656831,-5.1888347531759145,-2.305418276359198,-2.8726529010925237,-16.21331289491431,-11.145063170854723,4.919874709890959,2.31606440304351,0.7062301239310973,11.75667842557577,6.452801319016649,-6.082572944476283,2.886276678427043,9.979403124274873,-0.29470371783208993,1.167775540167963,9.727868499285263,-0.4259342939986004,-7.619931282682566,0.5204239462096449,-6.239125933162697,-20.35754627124795,-11.523667147389602,-2.055103858732508,-10.36705099095975,-9.55486215621903,-4.027490965644429,-18.194237327695916,-25.892540329964035,-10.575049271287801,-4.799762404555239,-7.717248998694394,6.09575532057468,14.778452942623925,4.53906614085056,5.38185143280801,12.67501812117532,0.49078472867434897,-8.120545587334748,1.2979820155483823,-2.163876260257522,-15.17161570553055,-9.930452825881463,-4.8277569570427445,-11.568826743120187,-2.324771668054136,12.811760243807722,3.516847590407342,-6.967505543936861,-0.7579450948432527,-5.02736879853804,-14.611704405611338,-4.015081068440311,3.5685069019585036,-6.087971977558476,-2.5740601928093128,9.163082211898212,0.41442405166268426,-7.747745687411993,0.8135317950618894,-2.1923061743496377,-12.064626995168794,-2.288260553524406,4.665075421616203,-5.212971322007878,-0.495348870190238,14.966122508023703,12.075186957774111,8.649698823463709,17.005291033745497,9.111460126761934,-6.186916008345421,2.2232687671708344,12.847468128316113,7.198381226522772,10.937226171160228,18.2671763029887,3.616130280327984,-7.967309863016411,1.1930451757244143,1.066200938106093,-7.044810170984887,2.363891304590526,7.897724354035606,-4.525776947903283,-3.158149305382335,9.12658054707752,3.712955287528266,0.8362865092486376,14.895115705607035,14.81850795784861,4.156813061779154,11.472797808233594,16.610091123029697,4.924550082923526,6.298372469920098,16.729874488845212,7.703292798084682,-0.22248776103929546,9.167795339960207,6.515787484556607,-5.911351048977017,-1.0255838914164723,1.8104560334391144,-10.814198865348766,-8.872354491626933,3.1958844387671412,-2.9355908432059747,-6.68542446855309,6.6367677587294445,5.833120506821373,-7.588938019345377,-5.636591827863539,-4.229879046200067,-12.213311524799396,1.2980665571764192,25.651046324176072,23.365736502718875,11.785839601138328,11.5605120530853,1.6819570882813113,-9.571304179504935,2.9146190321893988,12.201032217959412,0.4324923127795115,-0.2996692918220485,10.307095805953523,5.767382222610686,3.5415583020343853,14.475384682050063,7.526936855287844,-11.221303823844805,-8.657279753502543,-1.7089724198239051,-6.7957236663807565,2.0220873475635317,17.087975093188625,7.440087315429736,-4.975110515506678,0.01597904019992047,-4.492855103841947,-15.671532112903156,-6.358760475760677,2.44367427541417,-6.418901818287825,-4.048753825255892,7.775546148041384,1.1214353694066048,-5.047442818936408,5.718342214121923,5.540441050183206,-2.9162783416249836,7.122056259090561,14.687334121131745,3.3354276613781515,2.964617100363506,12.382208206308764,4.81386784639539,0.8562060469113194,15.006558118201404,14.652617166898132,1.141946371343825,3.439171890369217,3.8593979266880374,-9.871811615001812,-6.908206753864558,7.442947015483339,1.7788240292566009,-5.536244948758224,1.9625714255988873,-3.0325336436494057,-16.374701649923566,-9.925344686155684,-2.3958495119169028,-7.545358934377878,2.9693126777211623,22.095066465036453,17.709533681843187,8.330770513166506,12.23932078309336,4.783450505886113,-8.70035196290314,-1.7189829708153406,3.93704241621226,-6.4710042942966925,-2.5211100784986353,11.246431299204339,4.087856552552897,-5.642142623343137,-1.3860963803738335,-8.868899310543542,-21.10418524970035,-9.279991316297409,2.889171053791952,-4.522884583977372,-2.101813394576793,9.41649436256274,2.839886757849261,-1.5178836115416607,11.16675389327396,8.682666389624849,-6.850607116717426,-3.852492780905298,1.4124837610417116,-7.272375628876721,-3.3456998576724164,8.258447201929844,-1.1419248923814669,-9.621997061836034,1.7240610094935693,3.460897426848875,-4.99267840389662,2.170599749652384,6.348847515656407,-6.521832204706094,-7.081058566045626,1.8685659464016702,-7.75130149864313,-15.456389365315445,-3.2196198965760923,-0.7968194904586301,-9.407063859349424,-2.2694587317134154,3.503734394081797,-5.175170016278789,3.174191238989851,26.486148060164087,33.3884411130488,41.089038489878234,68.4787969926983,88.64869685551281,102.57653264622007,137.0814139589055,168.76421497462115,173.85087987133994,177.62165291843297,180.24433309435315,159.20547979973915,140.24248958232607,142.1432560425441,132.0189387590902,106.69478801716487,92.9477958189942,73.7544179011337,36.41828008930138,13.730233446772434,4.773232387929572,-21.88171322691316,-50.67507012364683,-66.06729610733751,-95.09537404358896,-129.23412637663034,-132.69997072145594,-126.28211015221066,-137.81866662437798,-147.8170086790844,-156.997887117821,-182.96017147598732,-195.61344230403705,-177.91352667100193,-169.79675253799363,-180.26615276414225,-181.1300006434727,-182.5989062978314,-193.01514709658628,-183.22302738331496,-162.15341479967543,-164.48085306791984,-170.26237020202643,-156.6664494151522,-148.54304100450221,-146.2248013522771,-126.15453666965368,-109.41754217817089,-111.94085585088789,-104.26357762607736,-88.4729176951682,-93.00490597451508,-97.40780240894631,-82.01660519769959,-73.91887210385767,-72.79417516068442,-54.010745256887134,-40.32825444293441,-48.67053069178763,-44.408187056775674,-23.936011086367714,-17.997789679871136,-13.686163747955144,1.727501112552602,-1.527675308626546,-17.21928326731216,-8.117809137804763,10.89492461277708,16.511830767425412,28.587760717035053,43.55378280699733,36.17144847154171,29.47174654185769,43.47698423672827,47.96702639201906,39.9463849832849,46.643642855137585,53.15209941550848,47.42433918208046,59.64059972693284,83.82368480017519,83.51960296514059,73.52876080640695,74.42583474110158,64.35197115048696,50.61885758458277,63.20757795819007,78.70662237153545,73.334350843163,73.33428197440264,80.76632590466502,72.51947367367671,69.92198020734156,88.10773729548909,91.70359921218528,76.64414893911352,75.13581335880639,76.87446623496993,68.1384775212961,75.33855717557466,91.50809127590011,82.66859953360208,68.82652153635532,74.01351218345653,72.02460273947493,60.278810453867706,65.22705518455564,70.72348922670668,61.6630848001033,67.33751477590286,86.1088171717953,85.03829465065017,77.65113235226931,81.47512357228884,70.4315900022784,48.45528075201203,48.44241897116121,54.25567375399515,46.999611500964306,51.57872640221365,62.44878105566323,49.61152557787551,35.93280890393184,44.254084805185684,45.510506857650114,35.079573977489666,37.434984406114815,35.10473392556288,15.819494688811398,14.700631839216824,32.929017131081686,36.01953870111768,34.96007005626545,46.85665674208607,46.58302826884386,35.14860995993366,39.22905716977889,39.90124536664857,20.32086777731339,12.42108583503494,21.041010815593165,18.1296671253513,14.844212061489568,22.577041971016317,13.48353076005511,-6.323045310564496,-1.6910487291291743,12.0664947024321,12.952740870189116,21.515855247822486,32.41794839731297,18.15579659398739,1.8605955443684996,5.667465281166531,1.747389297946767,-10.690772245649907,-3.6048288814155622,4.475457203964265,-4.808849671531543,-2.567003663073232,10.805045570528408,4.1575157712850075,-7.23770494906344,-5.309020557709363,-15.10391538201904,-31.17419320060279,-21.74183433382841,-7.23034845211312,-12.207044763920818,-13.795999505997798,-11.603019330454135,-27.453771719699038,-37.250497414546714,-23.642430295883152,-20.720895915492203,-33.4089553987694,-33.14270627209747,-33.01905542263967,-46.132001336631035,-41.721952878600966,-21.454964202861827,-20.407816986604214,-25.39130811637816,-16.937112955469164,-22.201643607723998,-40.322120089972366,-37.390178847536006,-27.26729268888748,-29.650396679823835,-19.160357333072774,-0.5282156924737382,-8.773389456581786,-25.945640595083844,-25.698210782000636,-30.460020067462406,-41.15594968964808,-31.898631057948325,-23.651275021123595,-36.48425690598915,-38.016451054294514,-23.114519067829292,-23.809105385087378,-29.46633532586902,-22.37701788153887,-27.273146956545748,-41.7387180046554,-33.88519567517818,-20.86479062411499,-25.89193794606707,-23.98536393907212,-13.890988067114456,-23.76483263454159,-35.23320735286124,-26.589446789586404,-24.09505725067183,-30.000004893890072,-18.489334986594265,-9.704728805537986,-23.596391211674156,-29.682669005644385,-23.333621904319298,-32.48143679849422,-41.751033594918425,-33.40983894915775,-35.453373073173395,-48.62349981170943,-42.84384458404878,-33.11234784686161,-37.4775841628401,-29.401496824838176,-11.369815894890543,-16.001394846527475,-27.08756649887894,-22.699583983543448,-26.217192544324583,-34.94733649061822,-20.349051665672242,-4.717495044760374,-11.49655125180533,-11.788619116261426,-1.9466997065432876,-9.985248894692461,-17.79123239764812,-6.075249170302037,-5.7729159265278795,-20.069256211934178,-17.75623227453462,-13.031613522390362,-24.63000088090548,-23.839302171485407,-8.47114973521526,-10.284583668624133,-15.87428299401433,-5.289050069408974,-5.6412761117799874,-19.937449484335367,-17.648534888307502,-10.180485630400751,-13.979584879871117,-2.569900892440736,20.61100151087622,17.499248839830713,-0.9074911755279809,-8.578400080359923,-21.552615065297157,-35.92242947410581,-23.24718048878161,-4.833681277249896,-7.343411796904791,-5.93084689235374,3.6806306179558055,-5.354530775689324,-15.806483519336503,-6.543768134594179,-4.263916643077212,-11.7907875661716,-1.015358810579512,12.33603547790555,8.644848809537013,13.278736964339139,25.15144607231361,13.555801493894858,-3.2885837169606282,-0.18085037137533977,-0.24522224561056438,-5.45930966532159,9.958519304294153,24.972447352169077,15.95503304607595,11.240800922635962,17.30021380464441,7.500870166964566,-2.9446043098517958,4.7219208129223755,2.816226020123717,-9.861811541241142,-1.0293010941773408,14.67934582587874,12.899023612388046,15.445383968673271,23.929366532254644,12.827292817847852,2.777208978336402,16.44225512748322,23.743158941757812,16.777910470339044,22.586856361288394,26.625654619575727,11.095094132886095,7.272420325740743,20.144795357637015,17.93336971942206,13.078121164070037,24.403239398593467,22.066385078625693,2.725730102141978,1.228587425586217,7.736786899308109,2.134341538778752,10.00115292015496,31.26208552300777,30.413973395010807,19.225100187287083,21.02696845167529,13.105103548163978,-3.8857320914939297,3.184511484354606,19.26304542516641,18.077411378541157,20.50627462157222,28.929839823619993,17.93095809257252,6.462132535941739,15.989877117340454,16.86545115105859,1.2621729538287596,-2.4517335565994895,-2.9262499524271215,-13.038257508619228,-5.1270665351247615,17.50894693411845,17.158528686006363,4.19196169320859,2.2143331817187732,-6.8456059872851664,-18.14855807194073,-0.7101063231573743,24.139888692502197,25.926052490251994,26.420262440851058,30.44889344141943,13.66641341491813,-2.053185531377596,8.263132827474857,14.268303535112196,6.398812472142044,12.669399207846876,20.34607784846246,9.35239620659392,6.640661560967177,16.73543710090376,9.731689161281345,-0.08180361051521245,10.1824558034704,13.07147180652237,0.5331965494896371,1.043980786065386,4.294596339982821,-6.370875105878299,-3.051844362531128,14.919743724502906,11.825160726461409,-1.2037091335000278,0.7273569898449277,-1.8234458238190596,-9.351023593270023,3.9821365475493646,17.337309986251697,6.925953000380978,2.265037636655684,11.150423972146688,4.194210713312444,-6.381986831492098,-0.2502320352648866,-2.792580867870906,-15.276047909353009,-7.763968472576686,2.0750407865960265,-8.031390283972474,-7.974091852208257,7.947382644816747,6.840646433070338,-0.8464998964270283,5.251715903257017,-0.10877032475762993,-16.81056201675595,-11.480445920573748,-1.0922966045406892,-11.256939798245329,-13.61097935534237,-1.3676820602304565,-5.454894608894362,-12.84040709807929,-2.396376850391521,-2.3774947051030373,-16.73647858924953,-12.197468364983184,-1.3647221695267406,-7.650528406886753,-5.418245225798653,9.453356662673688,4.8947997304403135,-6.807576509766859,-1.5996128569653867,-2.516149236705353,-13.070225717401518,-3.595101214859175,10.341111158564011,3.1486779222154353,0.13283237317087798,8.094487782379971,-1.5814642257897358,-14.365234169058219,-7.4827639745764145,-8.163543533692074,-21.236004539143455,-14.698926072182786,-1.621903202676637,-6.219977166025782,-4.7558259706806165,5.635460169246905,-5.390553981650595,-20.17958539879986,-10.825315009674847,-3.5699809415406785,-8.153405051104965,1.900703132909734,12.896097435180168,4.400601130093099,3.5953300510836943,14.309468141919464,5.293988972234901,-8.849611215400385,-2.4823608144244482,-0.07287284136524347,-9.708892267169524,-5.370341992789953,0.6073409473943299,-10.112227280915514,-10.060290842949048,4.985571986451202,3.1947012167991535,-4.542653360978711,4.209942684981202,4.686169510222866,-8.99829409704243,-5.895130176087439,4.495941116603559,1.179672860350427,7.639139625028131,23.381045854590763,12.527944876755523,-10.760906289637358,-15.682138764248622,-20.70325465604935,-29.683414375630207,-15.241705905511296,4.957633250367197,3.476592600582805,5.323153435385063,17.52925470057367,9.190945775060772,-6.256815402624245,-1.5326210723517155,0.7695102998270757,-6.008870923896765,4.825287523678622,16.36097811046714,3.6713901622070617,-4.167961290763721,3.563797566218613,-2.7500492620860135,-11.80130952719042,-1.1095870663749219,2.1076016393290833,-9.231972136692885,-3.311055135349037,8.811464949056425,2.4994452865393453,1.4766833786785103,11.225555308030092,1.1606940560631402,-13.875204295828933,-5.089550702222737,3.537131363379818,0.2217607959178718,9.049350879018693,16.586342497874085,1.9615411163327288,-5.651680120315126,3.2364188378086345,-1.9009374772155136,-10.334039868034683,2.3055732710997,10.621756736820847,4.592177640019715,10.453496354020219,15.225692205312198,-1.1843124249705594,-7.668880417698488,6.528749117609775,9.76068704857732,6.9353549486284045,15.987471378089724,12.973107620858793,-4.231636327929947,-1.796850266876724,10.14844908345266,5.739109110093653,5.092009531842433,12.66770418475916,0.7043504590716525,-14.995195346730913,-8.212800970462325,-3.3641533074701004,-9.410731280024978,-0.8344969827941489,8.34902479939311,-3.042439326250576,-6.282984412006275,6.940799271824879,5.153397679434356,-2.8507216409642573,4.843182161749489,5.0337666542008295,-5.3036365569203054,5.097780210971593,21.371199550302528,15.831269120283,12.452331467011959,20.496904462737707,12.569583778385454,0.033304268329963804,4.462095912428088,0.19340735653194407,-17.843623863047135,-15.071099824355763,-0.21815276850128118,-0.9824931727976658,1.0125731813428975,10.522656981262378,-1.046551311996927,-18.456917489338664,-13.065182150087487,-8.094608174055566,-12.842393651524873,0.6131079456994311,18.749085230994716,14.912984147009412,12.418703857275254,18.583246513562788,5.505665639759627,-10.812582598149703,-3.7164204985391804,0.7937068336798859,-6.837194241199494,1.4995296839956858,13.368328753979258,4.930860255117919,1.5338486506505533,11.212606946912421,4.135424571805123,-7.959087175649371,0.38377843749823803,4.373295641972111,-5.652530289707679,-0.13215267362672378,10.722733623440664,1.4052347854673357,-5.0296985084369,0.7558174194120579,-8.684321606171096,-21.27888318309919,-12.86219783808467,-8.961894617619034,-19.091712699721864,-13.760342810554231,-3.062887348283145,-11.263790385772023,-14.50310123587083,-4.642570338221738,-9.744036178594008,-16.760499874550923,-2.7878986060432913,3.2265535472377525,-8.863407433841772,-6.358814889024368,4.227582277409011,-0.5116785134899136,1.027550374222155,12.969771540125357,3.6330138934025955,-12.48496219162823,-5.43620095443868,0.11648571098758831,-8.74839266011578,-4.618815396999113,3.5455641245454954,-4.278587391874477,-1.317346373222148,16.17380397173757,11.167416018999134,-6.624703534646155,-6.626054700201277,-6.501348791063776,-13.033125335692215,-0.4778528109055493,14.284184394623708,2.8405488702029,-7.78039600849535,-1.756090296865433,-6.424528086213006,-15.643816771793498,-8.117771470319598,-8.672272274407456,-25.660916530690194,-25.56731927595537,-14.330730007237324,-17.562585287869346,-14.704989986477074,2.3145754471966438,3.5007447467567627,-4.1333450624374795,2.040556389879642,-0.44711829276822934,-17.55979380602727,-15.414492243079144,-0.8473812258605218,-0.8167262263302035,3.486581195065952,18.53104306965985,13.844772439837143,-0.9428050770022685,1.3366075265740043,-0.14592974514175538,-13.306435317938702,-6.686941163932159,10.265467242759922,8.076441222888782,5.9898927773451875,13.038422807933758,1.9453193539864557,-12.951814899462901,-2.395039608248423,9.024566063531534,6.528477408683302,14.378294080633438,21.01461617362018,3.1066844418420896,-11.074339192915303,-6.020878002052199,-8.917941687547255,-12.332026514871972,4.948871695753729,13.615818246650601,0.5509769415835466,-1.752326344391121,2.212783951203983,-8.896207273687159,-9.40619673980762,7.838861528610343,7.37757411787641,-4.713359479370931,-2.839923568777223,-8.489055599035803,-26.378465149354817,-20.809087500691547,-1.5808980917969269,-0.1256335730732534,2.2562169335893136,12.82869862566154,1.643787511397865,-17.728720627886325,-14.35129792201813,-10.391910146586056,-17.58531147693576,-6.870212285628241,11.736519532775883,9.088024435696727,6.192008563916506,14.98387020505254,7.6463654402146455,-5.304377455960671,4.777207908806639,14.22868770829146,8.011051315468315,13.33683290990247,21.875427955693986,9.34666580861806,2.2467704363084313,13.531526469058942,11.422903231247716,0.3539713735296841,4.384216461991901,2.411263245093826,-11.90126278413721,-4.9808305601690455,14.068888488023024,13.99873381743279,12.77987824968726,19.820738852244997,7.595844957009253,-10.492393325319288,-4.005027969962569,4.1478401148576625,-0.15334446718327754,9.315656653826919,20.98250376480401,6.926966303288401,-6.568352960723192,-1.2535069524362377,-3.8727353192392213,-8.727371267231293,6.939149403224229,15.59448850788132,2.3128053771962014,0.10775581945353485,7.719238355404375,0.967694445120423,0.45183699939441924,14.695892491515657,10.16643318502059,-7.3068882748334945,-6.979633373200427,-4.571004547045433,-9.576227094024562,4.594689703814581,24.054986530350526,16.004182698335136,4.1006829967697715,8.07101129050409,2.3021291081924025,-7.059264741238799,4.125101261265293,9.668561894774722,-3.4338610489376693,-0.6609927282075687,14.058944770844747,11.529323181766884,9.917354638126103,18.227637189234734,6.535491375141599,-13.496841273616184,-10.12327174423788,-4.245181330465337,-9.68744798123791,-1.1125284948386849,10.129064642910642,-1.5845561895522327,-9.565021439469703,0.5702203766535483,-0.9467762782270426,-8.155343777549644,3.314576061214275,9.18476817495549,-2.4378988572259974,0.9118492355523031,14.87440129520209,13.7076100710432,20.541529688932975,47.57861424905601,62.90741680317674,71.92659593893268,100.7145928443316,126.02451473543005,134.75432931418368,156.152099636741,181.5068309832403,178.38934079140301,163.51794135015285,150.51224969146983,114.91714084962278,70.21952205074174,50.30211493139076,31.933992615895978,-5.5141319258324035,-32.673826705944684,-47.13729973011968,-68.7620250655815,-76.30388911500228,-64.75131504165438,-73.25242004142089,-98.44145885222594,-107.49396664420087,-114.34529371938096,-130.34103870684723,-131.18447993694696,-126.27604102857308,-139.00292951735298,-145.04339022691573,-133.90584655524333,-136.23427507319167,-144.34596302593877,-131.85729412434927,-122.17480902137132,-128.99094153739014,-123.20146368619801,-109.73966002008022,-112.28022237138617,-107.81776907656264,-87.94698254910415,-88.6793852900805,-102.71558862007663,-94.99019078599179,-82.38422187654076,-79.24709501685497,-60.73475004361474,-39.29116485532324,-44.97226027920015,-51.839999078565015,-40.55717575255529,-39.29237164605834,-43.79101179365563,-28.814964499884457,-18.10240261619236,-26.011954150554335,-22.140065447036207,-10.274229422971068,-15.08874090702275,-13.097010995370436,8.66564371225094,15.062463829448706,5.510549339456987,9.979657781010852,14.488031150133557,7.633379498884577,18.109037373188954,37.423198529530936,33.10078148576687,28.29914325254483,42.676017196063434,44.20682721920916,32.72693960342397,37.76941920709005,43.04759919560676,36.20734402740169,46.32011915122827,64.43911100684377,56.520462086038776,43.0631632807823,44.318516723931516,36.02881256832978,25.947292033672305,41.83101289887517,58.153397629206474,54.42250785804711,56.701845414157404,60.70295790669324,43.25633464192131,32.36875579428882,46.39939101068187,52.91999296501251,50.77653284303358,62.93253461268961,65.20074507375605,44.98508807701292,40.438128371071066,53.09695333170291,51.821817163054035,50.21102408541553,58.82727260533554,48.95563822624382,29.624105466860726,33.56998282172873,41.04705155044466,34.28092470253828,39.93216353739325,53.000308552075126,44.81430048070224,35.347961794657536,41.06864413097579,35.26586255073518,23.303785254216965,31.66849635321464,36.98757639771574,24.191665356018895,26.663423208194985,42.50890421022912,40.46649098187371,37.04787318816297,45.58168000382989,36.09006761060217,15.099089352804565,16.15484231478721,22.324041616507536,17.917755276216948,29.192224945782673,47.30917053383568,38.89928917534034,23.01977848264975,19.875545842686353,6.560360879411538,-9.789368238669926,-0.024539286403897798,13.846840416353109,11.140807133555967,15.54367622418337,21.198418302711215,3.9626499165305322,-7.2894695156349,7.736967069734049,15.742935579883133,11.789700010737722,18.35064732750699,16.582352364905226,-2.806581986421868,-4.733581581130298,8.730191498482878,5.567969560981623,2.2186042276874294,14.689836786474299,13.481741956092883,-0.023240581028375118,2.7793020858231987,3.764269822960068,-11.235843758590487,-10.835572231563235,2.957315436227793,-0.6523741581314164,-5.406457954705752,3.1359576951638646,-4.493572516233714,-23.007700869461292,-18.43740377764845,-7.52047375318085,-8.890310270200725,1.4738717419282379,14.759155205074281,-1.2845687313961687,-22.69786289794783,-23.123129946109593,-26.135328451963456,-31.06521679761285,-14.704332981923724,-3.345384512701912,-18.321828429476447,-27.8074796179633,-25.87336344827688,-35.92716517801366,-38.9689850068945,-20.87033701534508,-14.615711809702152,-21.836566702723353,-13.881782490255524,-7.530436377316551,-18.740425377780497,-18.661182284614462,-7.9539974392957395,-14.304553021611063,-20.058222779690546,-9.931828702885674,-12.940353468227856,-26.595628976567532,-21.194466895306398,-14.56641602102259,-23.217573756746706,-18.843186709298124,-4.787293624698285,-12.072958368691795,-23.51463889672624,-20.691830630401416,-27.87057350070673,-39.738671109422064,-27.634541401985864,-13.691589592192251,-19.975916747992827,-20.380468643509797,-14.742666613240534,-28.3077703810688,-39.282177838889254,-28.220519255360486,-23.73330410872746,-27.416031961935328,-15.272606132563197,-8.995728713771102,-24.25462263881392,-26.36664880670915,-12.726407014288883,-14.788047644777356,-18.220943204952892,-7.7602658741944035,-12.933689303295528,-29.90564394143158,-25.478153892802887,-16.9546623301374,-22.704498036675954,-15.30999250197645,0.8718203166308864,-7.208285064722932,-21.287005794361725,-17.920360203663552,-19.142408159225383,-22.59394925531787,-4.510551254914554,8.527001190078693,-5.001067001916997,-11.628855328854488,-4.587628467956008,-9.85557236883498,-10.689128460465723,6.911377763055706,9.70236064376447,-3.3500529903486678,-1.6711921760465263,-0.6787743344786086,-14.90678734029447,-13.959677318097388,0.3824087115251489,-3.827714657335953,-11.614640630397803,-5.36373631234646,-10.493410936238044,-23.238827678724505,-13.620854880231246,-0.7224081933413018,-5.019532037369954,-0.307888194630642,12.765282028786276,6.590862640381664,1.2611401108681892,16.105721176423323,18.7585484399184,3.1213760484580817,-1.3554277671270833,-4.598964953624636,-17.63678189118161,-10.861453906140541,10.674082414613839,9.727636620931829,-0.7182722572348834,1.5415493156825386,-4.81422240158772,-17.4954461809978,-8.644552839656985,3.2206510265650703,-1.1687899359330922,4.260231280723071,16.42958542040498,5.278523682639271,-8.626275927659592,-2.349758519707321,-1.9006665553780033,-8.630371716813885,3.398063398367806,13.966305020156542,3.8216339729752464,2.4559103879953383,11.073487300458552,0.3096772538527981,-10.907667837474763,-0.6387067441062362,2.911499059154335,-4.510200664944074,3.471619921422387,9.200387474521264,-4.545900227318053,-5.3606116189182185,9.601822625038032,6.9437219170739795,-1.3030924673366546,3.617963290441915,-2.888968836972673,-16.973595331561917,-6.831197834145083,7.766763853051117,2.7771802806355255,4.640165576727147,15.827761148191144,8.257356001689054,-1.4898815250811208,5.255691742305243,0.8332300562264812,-14.168862544436264,-7.848621619122296,4.142534996175071,1.1759028564003615,9.010241030399046,26.16527389265076,19.78548657995523,5.078406683597516,4.519690608669677,-3.6117750116090552,-15.09685004570776,-0.25376930660673835,18.667800712976767,15.277598801146915,14.077276950754733,19.10487874340159,7.687481307184694,1.4294450221743482,19.318633938237767,28.0015676105258,20.108095453858517,22.993086996964223,21.944520327704378,1.451314313662012,-6.496347632877432,1.1398369744913923,-5.491017723754049,-10.341664511344474,4.633390984174973,8.284962918652784,-3.7364947970361397,-1.6102970211945338,1.7088130258041305,-9.897768740387423,-6.572670342856268,12.60010100875059,13.059227610436855,6.343744906423889,12.920627192622424,9.051917819588352,-2.5020131504468663,10.730267387474075,29.058987376526694,24.95242892160622,23.522002697132024,30.195764474630224,19.176985581337064,8.372465658365453,17.561880316266244,16.92331295528384,3.167624164386946,7.336581138490628,14.594928658212698,3.8049452973612885,1.973829042599105,12.427095041941026,4.400232439777016,-9.73941194204755,-8.483803235292168,-13.235306392359709,-22.92869553933826,-9.116569320245716,8.132373550002809,2.820802915502102,1.3718679296993121,11.4374800078182,6.786295553457112,0.06626294015295286,7.5283075260313,3.037857810166502,-9.84722396963058,2.847686288445389,23.191607489987945,23.291240772827862,24.16427825319932,28.4065418136682,12.085679640973325,-3.857652189286968,1.124984194925199,-3.021209226842582,-19.679855311397578,-17.183647697910956,-8.11834031884203,-13.408594037738087,-10.082046253947887,1.1454582959829152,-10.117530241355428,-26.687225350779133,-23.91633101185171,-25.4875441317199,-32.12013477437482,-13.108007744005794,12.805015652075298,16.973373305260125,20.973565692940703,28.16023906269415,14.19276590794831,3.0222180016996143,20.203205971076596,32.71767411904434,27.831124680634716,31.37655949957125,29.95639489851387,7.027050624790085,-4.7253468515755,1.7080161863805898,-4.1537099851606545,-10.439724545360006,1.4637112650170128,1.8336631521817446,-15.232468184032012,-17.9062327084608,-15.72410088840121,-27.35013263251405,-26.414984330113008,-10.764088698242642,-13.219564974149046,-21.18126636417455,-11.544013526984138,-9.52312444558283,-19.923631131169493,-12.639649422635365,-0.8919844686918674,-7.551111070516196,-6.986978733279882,6.831888353678517,4.5010609101511445,-2.530667080092096,5.846991448617346,3.9749283710461887,-11.507876248743433,-8.660197912137635,3.2721688026953513,4.276411646123114,15.5694214324544,35.02738681258327,29.027221222019108,11.485375417551442,10.956005358487003,10.094155942048872,6.180296020135975,22.91436850419001,37.836690699246574,23.43372037806025,9.090945064308631,8.613028405082924,-3.2854529136023176,-14.70575367566225,-5.775104803659017,-4.6275629297874605,-17.679522094730668,-13.681203402725426,-4.055469812403367,-11.583860475528834,-11.316522871655883,1.2509279259368586,-5.340691440143275,-17.927184268055505,-11.37827797236343,-9.818677775613605,-19.034712748748472,-10.153164803774516,3.1106554308948726,-1.0834132068601479,3.389729624659007,19.10341500822541,12.587681392258602,-3.5347747222847934,-2.997128415680036,-5.856437192001355,-15.079345174845244,-4.305334578614055,7.384168632415035,-6.2547480800509945,-18.157139649974553,-17.07099805660898,-26.30532910169461,-30.027056923278423,-8.36345706994957,6.390226325907018,3.170136908505791,11.073657791213671,19.81497748548851,9.662742551852778,8.144246001582115,21.111351927419427,17.27734523338991,7.711468942899785,14.437438699749734,11.822257495467266,-4.884707797360084,-3.129217369146649,6.268082743420367,0.3566555750952132,3.4879292639358987,17.755773752872877,8.5067521286955,-11.235967488349521,-12.460225227644536,-14.988947620127933,-23.22321909074577,-10.291412402334949,3.79665461271382,-9.6725384176612,-20.634816417065878,-12.520939029040203,-12.113550268368744,-12.83005645952968,1.9348533516808875,3.4402683437381647,-13.694298133231609,-13.64330299433551,-3.0792719853750916,-6.137866282614928,-2.336662203069252,11.835301721823942,5.2638344094201335,-9.669429697648066,-5.342026329665382,-2.1673326919710227,-7.315307668828835,4.671092116548564,16.937206744790267,3.2636531080743403,-9.279156832538678,-9.342886963471914,-22.944484646564057,-35.33461620351658,-22.49484282293641,-11.702261907719068,-13.422556786133288,-2.3319807945296422,6.947238913803481,-7.221022264455722,-14.546511347157438,-4.079038626147209,-5.635567645089031,-9.268999092238666,5.077606708040715,7.474639563540601,-7.605726345787173,-2.6884999693723324,12.466701560604813,9.87112580457639,10.950311463960574,19.91477268494219,6.628537374836112,-10.616380550436677,-1.5940857695277515,5.733338995599345,-2.996877122751571,0.7995385409824305,8.197510906572589,-3.103815497098841,-6.29655968607069,7.731570283557287,6.775374196709541,-1.5712027018762953,6.410489244954663,7.912066735108094,-3.7957840354246484,0.6300634915048753,9.923379098472614,1.4989636282710093,0.4014461042424473,13.529546573498877,11.059371359112095,1.9848284648908572,7.413973885421988,5.785858366250881,-5.00175538870477,4.829082753584293,19.82440975285024,12.132629953075648,4.88598909256385,8.579151374328434,-0.9690697702039852,-10.465712101569068,1.085476301308221,5.319891352154475,-6.66051712169173,-3.059470158536982,8.010409693332868,2.3796567757563607,1.2819990365257221,10.21904090508077,0.9437384865675469,-11.325710041361646,-0.1952503275820554,6.887043253533095,-2.7087657908194576,-0.7852076428705108,4.043689390771686,-8.1368827272059,-9.90571217896758,6.017500507898017,5.926080175237159,-2.5974128726919163,5.0660398176810535,5.1882073150987225,-11.37203264514914,-12.52798498881407,-3.4182749242901154,-7.611270788755936,-4.822372673850989,10.301145536914838,5.317851086549682,-10.496012964850909,-7.804168594666764,-4.103890880959279,-8.033252315956714,3.9808620434249073,16.99491657562773,5.7157848248612035,-4.481968894685819,-1.2123038050487334,-9.786094544407012,-19.134998351827385,-7.182347296578985,-0.9008874753462346,-11.401345618722946,-9.43872295617229,-2.313186494909818,-10.865540263352193,-9.599696174119185,8.4611066880531,9.00966133726018,-0.8563478499944606,5.658466393467228,7.764283384842632,-3.077673818069252,1.9253784504467144,11.093132785904425,-1.6927788466068767,-10.084343112771531,-0.9204549166130658,-3.2455972910653426,-9.306318034790875,3.3148490049506876,8.665196163756807,-3.5944957797459827,-2.7630396483323274,5.240432276450031,-1.7217693740944942,-2.325803047942531,8.482988936930724,-0.7756762542401336,-19.485884084401683,-18.668214227224837,-16.575439389078056,-21.13865491544355,-7.497465659368043,9.201576195773619,3.183495291321832,0.3704627027823661,11.35499371154042,6.094890134479252,-6.251404427553557,-0.17019968831816268,2.2605245081324497,-6.837502416338845,2.0888229473262276,16.46291273678992,7.354612898832517,-1.2715605200888092,4.874445060793521,-0.1986562045680902,-7.469410607217205,5.317354007859588,11.55898413427478,0.03253012589299864,1.4927688841623192,8.81960538101059,-2.4069742015668307,-8.537042718938235,1.650676107655924,0.17322070266465506,-4.143874519896915,11.293017927155464,19.929719787945867,10.408503145394992,13.257688402192178,20.421142628939464,6.64612678346013,-3.1961748693983516,3.9879822955315807,0.13529290839094577,-6.6634760436628,5.4734810387105615,8.149862981011541,-9.917218615924387,-13.359211400985837,-4.141768532403628,-5.838424448568736,1.2804480821604218,20.793202105078976,17.213816143254785,-0.5748367611395944,-1.3024586186989682,-2.09043301079608,-10.873854568628895,0.0018314820698144274,17.637381263632676,12.98907401213389,7.967456794304603,13.904112239094589,3.3983588127901267,-12.033014029118458,-5.0524741661660535,1.0993698793760087,-4.683662633950359,6.0015339468778635,22.245699216872712,15.909863366784675,8.980240406436247,13.094803883202697,1.372782567860492,-13.33580154644843,-1.9333013943740287,10.009843064444585,4.702192014043955,7.690454677643378,12.383457141143708,-2.77369814726873,-10.696339055532231,1.449645394191518,1.4470131366273566,-6.704621003967242,1.4857850363154128,3.023636922434143,-12.57563717540354,-12.312690518040272,-0.7743864897867021,-3.436404467202164,-0.15755807401228283,15.090145946736284,9.4294899168766,-7.478353631669282,-5.723550807692113,-4.864704127947676,-15.0176125769485,-7.82950653441533,7.286350141891642,3.195001372564823,0.7669695770140958,10.017121297093071,2.4136485510860246,-11.23699425440315,-2.3999647893193297,5.030346703888387,-4.210981226523812,-1.9805742146795375,5.604092155310681,-5.5184987236634635,-10.406185387838741,2.624672419310132,0.6599155451588299,-9.93468649898278,-0.48673920838025264,6.480502972585802,-3.9999108899500486,-3.2975203244304825,3.507595644154111,-7.032921412962087,-9.926638099753175,6.828215672052523,9.268735088000058,-0.4658508295734576,2.679115544451712,-0.7119125617131692,-16.56998266295019,-10.495603759070455,9.657118065836155,12.472538481508492,14.132060485569696,22.787011018433194,11.231881929221487,-6.070458077305288,1.581003611296464,8.969514958201758,-0.7727961488061581,0.5302810565151579,6.902327536359781,-5.92313897921026,-12.72094128575009,-1.3504396925633415,-4.549644685935474,-15.471966635057875,-5.09451625789217,4.472749062944409,-0.7831123305963463,6.7624067476954774,18.540595350033204,7.690591227543241,-2.0830892691863543,3.521103100923918,-4.461518986527524,-18.7485115248361,-10.692158814399843,-0.733502308377278,-2.964490659620578,7.201869609470528,18.446015016691995,3.9661250104805372,-9.76947039163324,-5.4809885435306205,-10.796798510199968,-20.188092582618186,-9.400333957298521,-1.3797405513717684,-7.727539819921944,1.1606081815320222,16.075368128460227,7.471672419665664,-1.4049449057962258,6.098612038326129,2.49933874777007,-5.582223409420399,7.484121228485896,16.689592643193542,8.238024461906562,14.366975064440943,30.881706060623348,32.17823971144782,41.27485254793578,72.12547350784212,97.48064492697316,122.6876764727824,168.19955351093034,205.71702462260689,217.0992592108973,228.05535264758385,235.38386316544037,222.09223441275557,216.90043757875367,230.88224642920838,227.10576918405926,202.50283832171445,178.05681134843735,136.44027168125515,77.22194494861499,39.3108913775027,16.571443254758094,-23.059248467680117,-61.705918172791534,-86.41682723808827,-123.30990478955137,-161.7518346627771,-172.53694635490874,-179.27585355425612,-199.28358426618047,-204.86537823284442,-200.9198639503148,-214.3782736785962,-224.23695246958727,-217.09989057612216,-222.7244684060447,-234.12980881277235,-221.55077841236925,-207.5176607249258,-210.1163424218375,-202.66990685805246,-190.42007409598628,-197.5650278848465,-198.0671409404428,-177.12496774006027,-168.11126603231963,-168.813432563405,-152.2349336562761,-139.9048063060157,-145.03279523932517,-135.74983938686893,-116.61539615638463,-115.55968817896205,-110.59319518050263,-88.70424959421234,-82.31088509157689,-86.51234949102434,-71.55733530613249,-57.45627501260679,-58.65526739202686,-46.899989989169796,-29.54170700206901,-34.458209935388794,-36.655778208791105,-18.809162633064712,-12.446890192323727,-16.39445208405062,-4.192898145697912,4.681625030172136,-1.220677296574224,8.803389427679031,27.611117696521024,24.743441789150435,21.239728987811294,33.17748926831419,31.86982731789626,22.366930341507345,33.219754354205655,44.39828668501555,41.3532957807915,51.4128294609277,66.93527448008174,59.4534300168757,52.423731205052675,63.84847884722292,64.70707430533602,57.003468076960516,66.87393019852021,73.81182150032505,64.02208424214663,68.41137011329127,82.9404385930709,77.2798227441885,70.0232021528477,77.42331707342959,73.07530344713203,62.78807336680266,74.1373011645172,85.04515998338671,78.78078286906371,84.39239743617213,98.87283975194514,93.02903135759641,83.60557026019234,85.85500285286824,76.45851149307732,65.05973501063642,79.91531455953191,94.67848215145352,85.39743551308669,77.9756018234367,74.1198261842145,54.722334484983286,46.91565001239597,66.62964428322238,77.40971896583974,74.76385729490269,83.15682527543309,82.86753868416855,63.441218421745845,59.75418249940039,68.62357710132895,60.15836469339834,54.38760224078223,66.15957264694751,65.24747065113375,54.669466086132964,60.89164229015206,62.91392807866839,47.45645277337934,46.29470056910597,55.610637324670336,46.09809844133967,38.78654733357699,49.32406822208269,46.157373133368765,31.501802997250167,33.9004531915279,34.677184817836,21.53107895477657,25.97378491905419,42.34662519257202,37.709301675113196,28.72090073840542,30.623788558254297,18.118580368624148,1.1913524318415405,11.254255634150553,25.352041845009417,21.956679777898554,25.644103788108254,32.15612144855273,15.957812725273529,1.2210275015707128,6.599930383946409,3.5863380403495038,-4.893033766440219,7.622782033985152,16.972059861468935,3.9720720417395996,-0.7121112480510289,4.148050676747935,-6.941244183846931,-14.07588668786133,-2.8671955451842526,-3.3462243420239344,-12.280037790904275,-2.6307619336740156,2.3152336279864425,-15.05030745965075,-21.28281118084638,-12.603092432760324,-15.051821589748359,-12.799798646826204,2.894095376210113,-1.3758954075455185,-19.671843588747542,-17.707874970963502,-12.116473319090671,-19.91742801315818,-15.561020900619491,-4.604111412755851,-15.520585692439553,-27.45183969435813,-22.532111644900034,-28.165431213769992,-40.695221893316415,-31.401805772615546,-20.901770050372004,-28.540304846049576,-27.42052416117884,-19.361587546447787,-31.17478037722244,-40.61908937372436,-27.813419244522052,-22.816139756275756,-28.199122524145046,-18.449650227014445,-13.102856614550824,-26.98445794401214,-27.660536415505195,-15.625825337264075,-21.272745805338776,-27.92350745446357,-20.215285160103978,-26.196356831559676,-40.15556821191358,-31.770874367129334,-22.890281891906568,-33.02483801886605,-33.57258640783442,-25.09457515997473,-33.98370333753064,-40.28588745281623,-29.130038565032073,-32.499818593445276,-48.258144811827904,-42.89883092821929,-31.35230076343956,-32.51795937776892,-23.600531801389124,-11.280585921750186,-24.133081177343954,-38.14575367844635,-31.45524131252334,-32.485110330490514,-42.357774947295354,-34.75463439746817,-27.349154537748753,-33.92817560575652,-25.68669043004066,-9.61731180439596,-20.04236255329135,-36.55419531687684,-33.71836825114919,-34.30106911905011,-37.716824571496666,-20.940105539312036,-9.728844706047761,-23.784215645245396,-29.26892749279326,-21.558051292637796,-28.045352330947,-31.61911304273331,-17.774836739093256,-17.837659168364667,-30.830892664061352,-26.936324343121267,-22.674680880231882,-32.611076381315385,-27.33500224649434,-10.490260877978958,-13.729441475245691,-19.101967900437224,-7.817476090078305,-7.954456751623846,-19.61153533555568,-14.704339085781708,-9.19424621953577,-17.06043570703643,-9.183455684727903,10.606950789072597,8.917367436690917,0.7534083226952952,5.346099653960621,-1.1739440127685525,-15.967155725841888,-12.52293863250538,-10.584531805548146,-25.06883323991784,-23.935609905445205,-7.554912141567014,-7.47192215248609,-9.272962891833687,2.4949030670270362,-0.40751135277078054,-14.393961489863777,-7.260066175141331,3.5982590805883867,-1.36786425457294,4.354007582255055,18.373463409525584,9.211692333733865,-5.834881673193444,-4.056627615573799,-7.5285123780076235,-13.849956166569893,3.271888877129733,20.78008499661151,15.569523036737653,14.736379676937338,20.920138403399125,9.234488021942237,-0.8487370319537293,7.646771763068125,6.105015471485951,-3.64940471613937,7.352873206714097,19.43214816037015,12.509621849666278,13.77201842334652,23.24272259016623,12.602110479478235,0.33486538957882983,6.6912175872189685,5.1678746354748295,-3.4347618716470554,9.461709271664713,22.832000932209958,14.509307440230982,13.136974727665814,21.783258200032353,13.528208456017596,6.463457841915416,17.70368857498821,16.67497150433348,3.2924059415268307,9.086308977721213,17.53841030231261,9.222206156797274,11.828812072525619,24.871150371375943,17.569920499772824,6.0688131623566575,9.371294188624768,1.954436630425623,-13.007205923918495,-4.424901891653887,10.12231781760006,8.714995297112477,14.348444019917396,24.99296752569726,13.89715765398617,2.2831529296056776,10.833951607635939,11.763400010757014,3.544757304546946,12.356118865255617,19.632034752995107,8.42783133055961,8.10331528740954,18.55739465159474,9.67916735268903,-1.08972594221781,7.147119181515347,