237.17781679289115,240.0864776977966,232.21592173859906,202.02446948487403,195.75699874474662,195.32520763476407,162.4849657368262,138.198946948146,143.5442267154595,138.34420406742208,133.3175349000898,154.94587509084386,159.56899091907297,132.9819822861857,125.66064146779998,130.87145989526482,112.83218894293216,103.43375065920524,115.50262467456966,104.51410150470497,84.26535834250127,95.10078106148023,105.0365954695218,97.55648286428301,110.98387909899856,126.32576139204579,105.43853162271179,89.88968753567352,104.06111415699117,107.96528021449997,109.79910331916533,136.49126725753513,147.377788763134,132.76441376847947,146.01763359127173,175.29760094434897,177.08741216037794,180.94839425518768,198.2077532288515,184.19374399080795,159.9810304039443,169.92602520230704,174.4469714283946,154.90620877110254,159.14353296489318,172.12004825333165,154.81125444505852,149.32364321230855,169.48296842681773,161.12567897251458,137.26014663243564,135.84841960070432,114.5695569641945,63.09597186497071,40.34172201324873,34.636179329375636,7.3598285669639605,1.4020010753527206,23.513807118050437,11.396552028946338,-11.095955431901935,8.285571105221754,23.936779134893484,26.4469529731154,73.25371139053958,120.68673801381208,109.7246500326547,100.66333952734638,110.60134333925404,82.23727538415082,59.107610918499674,89.02031156196318,96.5169229235076,65.50465900477838,69.17307965180277,78.53058750826862,50.9725478893201,56.63367359315128,97.19963731510535,88.26462738063219,62.71578070946262,77.13718010202015,71.21805364652974,39.078156343035694,51.16390305670537,64.31564547047148,24.99904788254729,9.72487374615426,39.290425507058984,44.241821883902716,55.82898609793039,109.07950627287096,114.66420328704089,54.8335631625299,14.8081379214334,-20.462243285978673,-83.29904766863396,-100.5562141660908,-75.77081034354723,-95.14011992195697,-119.8782012987431,-94.0320117825428,-86.22702286737773,-104.32058685527146,-77.48343722545142,-50.69058206781787,-72.68398455506694,-68.87421271174225,-37.84359851462396,-56.51290569936284,-76.23003173138343,-45.69369131900453,-43.03362952069986,-71.13266541131973,-50.19828472256413,-26.7549929538325,-52.054920849699535,-50.61960572326976,-25.290773448386688,-55.56494053197247,-85.61465186246329,-59.44098187023346,-56.765491552127756,-78.77070489976064,-48.04808528320959,-22.242512636371732,-55.87182680238006,-64.56529194754836,-41.098762150089094,-60.53420301243058,-75.38562714570766,-47.60126806548947,-65.82365037486416,-124.48007029200338,-129.49429380886752,-117.04827325649399,-133.72284445325496,-113.40288633916722,-72.68536823738411,-97.0623670494041,-136.86641336030172,-134.66469385979576,-152.27530789535552,-183.1192308188365,-157.74741393717323,-130.3023481298363,-151.44758467880177,-149.02881501243664,-119.1986500679175,-132.86835172730244,-151.68771334240972,-134.30506457125438,-148.8168816885485,-196.8734897720134,-209.48763058714908,-222.33316290521205,-271.3805861153848,-285.3998267530172,-262.9502220944104,-280.0604525042567,-309.79282272631707,-310.6240613286029,-336.04464180976714,-379.37960102516536,-373.5812677158724,-357.07254899109705,-372.4262198898856,-357.012666709187,-308.20694410961744,-295.35131643672526,-289.87387585859915,-251.64610331012253,-238.0121793689288,-250.40484697765683,-227.14418241120543,-206.760793660172,-230.84471130036454,-231.11924936370687,-192.5680678762122,-176.8465314379231,-161.36245345650508,-116.13368584378898,-102.27787259315699,-118.7001760918414,-90.70999054992659,-40.05597021571883,-13.820200289601432,30.868399957847682,95.60264044127189,120.84259691944573,134.12886351677957,178.2422747606952,199.5850269878967,180.8248517513967,177.71615571061258,173.25702305083635,128.58399170683748,92.82813444103785,83.0636700476516,45.42080587839686,-2.6776569535848935,-17.319899539864394,-38.636525388048526,-78.55809260750176,-78.95285662296043,-49.50147894787651,-36.91598108972517,-16.564317650606824,19.201942110319514,19.358501920081878,-4.265780771764265,-3.0334983226299457,-3.384472237586144,-28.520346248505938,-38.65227886236112,-36.969099542857,-57.432829259120545,-66.75250671267217,-45.61784355072634,-49.06207129602668,-87.07077453578736,-116.41207340262068,-142.23392258997842,-166.51304200056936,-146.83519756699292,-101.42001148271703,-89.54600729930313,-91.54034046876981,-69.47352482855058,-50.747277572798836,-46.824127477584504,-39.14524290169743,-57.17664693460274,-115.51987840896257,-154.6779774726258,-144.61546842902573,-110.2231735571996,-46.05066105680948,52.66290431582622,139.61521693532725,196.06077036908226,254.98827858784537,315.8597244930096,355.7664062570107,388.2358745805893,407.5821638429131,373.66042392450214,304.3236712476527,255.22969970317973,230.62293866223908,224.64336409525436,254.11346416377404,289.1875433386719,281.78642972049624,253.6257951675424,241.68511935910547,233.7880601695299,226.30853311920714,231.1542655111974,220.02971135526175,175.05563540192662,137.09606414152648,126.53054394502077,118.51666779275354,115.38325847409249,129.04995498207876,133.1991653579186,118.74352968761403,111.17952251640753,104.53016686344674,81.65098790627465,68.32031435362794,76.77919833590379,74.51968154588177,56.891854492925745,45.55851883226516,29.448223647330344,6.3837481662626425,9.467339573774224,34.18261807951088,44.814031174806125,48.440074574951495,59.96870725888794,58.783900351177465,46.46240934001902,45.87638533920054,37.591355490904185,2.729594005470826,-28.1110286979076,-41.20212665773168,-53.97360316862101,-53.7074096253134,-30.865296174918683,-17.20860397022561,-18.54224115361879,-8.735266979507463,-0.12655818957426268,-12.876188828078142,-25.67606461861981,-33.10601587066719,-56.78961417072114,-80.45548450048035,-81.25202562341761,-81.42497252893426,-88.49650077647144,-79.15886029389856,-67.51814812136213,-74.99511014626799,-73.3503798689492,-48.3285150715715,-26.07709392028177,-5.140876528839444,25.02884843534805,37.186806417824144,28.918359505586338,37.16600276152775,53.38170454529457,43.93848813934325,22.799554574484297,2.745405410783887,-30.30940164697459,-54.24140806165198,-45.74442825780437,-39.49138279952333,-53.557936644946786,-57.36650862030142,-49.33797534259179,-45.6390146885412,-29.127194167060665,-2.0453491450433763,3.9792768058057457,0.7851290521328749,13.285980836446377,19.233101137293854,8.652747935183365,6.37457956493765,5.712225006315531,-8.96258318096049,-16.226188909279006,-18.595147340792472,-51.945539942213095,-106.53336801938589,-151.41278550771636,-194.52012473191002,-231.73429062961392,-232.68254550790186,-205.99531802707202,-173.10297353846653,-120.56565746659733,-55.01840149881017,-9.511377390761009,31.197898749233616,101.76495587263105,183.40633493252105,245.9464288648989,283.38174331795136,277.32278531665884,233.37342378009902,217.99232932620654,258.7619831846016,301.5015870963631,313.76081363649394,302.56356105856656,259.49150060998295,203.35602667285394,181.5707075725917,180.56870270439788,159.1782929252035,133.9795918155406,123.17088617724606,107.0037945531886,95.84738929661017,110.25212138768427,119.30959272926765,104.80889948302752,92.97177626913675,79.46370660879734,45.71686586392153,17.843157064162494,8.356811418582623,-8.422494490818778,-22.138263287956207,-8.370703037876158,6.477365573575295,5.377604521540124,13.157066650014283,23.22558031732981,13.983515678989988,9.794893581190955,19.722974925590876,10.575744927221287,-10.404301532561359,-14.608743973978854,-23.122189997441644,-46.699460425438694,-54.22304416909158,-52.56689882302344,-69.12511098356205,-82.2937540944425,-79.71376776365308,-90.13516778259725,-104.32281992348733,-92.76924468722036,-78.51868443122382,-78.38846255530491,-64.20394162086816,-40.98662565512625,-36.48497823813871,-31.725875613138598,-16.176494016588812,-20.17964989270681,-34.610677690402625,-28.644498375363014,-25.744451851162296,-43.571089010004926,-51.66433952144486,-50.425886268941156,-61.32094217050402,-58.08855496394922,-29.095137632323244,-12.286641392202483,-4.359704526537217,26.76639736626518,62.24663906153946,93.42708944782392,152.18675124051688,202.50432923008688,165.12979478213586,48.46728431305529,-95.76715896042636,-239.08845768682124,-318.324531510568,-292.89254687497305,-241.24705768906256,-236.97882416995873,-248.5871605100595,-249.56210296465022,-252.85896089264187,-239.11548507808368,-206.78476044906012,-201.55470251802473,-214.83532325677947,-201.8420032043577,-182.9404967382355,-183.10317979737934,-174.0476424573412,-157.15603862193657,-160.83238994285915,-165.79604497238103,-160.07489368679978,-174.9013001366386,-199.12205576588542,-196.4945968981429,-189.74701835914135,-198.30239992900295,-191.768091330465,-175.13601606358657,-178.25388871840246,-177.63251138820704,-157.41988574559542,-150.34265608405568,-150.93324609402345,-127.9035136136481,-104.92813205384394,-100.9924465012824,-85.82740628214889,-63.96420630687328,-64.94011498339073,-65.71621222645192,-51.32920137630548,-55.15455791222899,-71.1797890242658,-68.4011367814902,-70.46035811835308,-92.41614148375922,-100.83566666718814,-96.6871477077675,-101.09732959859718,-90.72912562569635,-58.957686646696914,-39.679204689198656,-28.2736958558044,-2.089711883845485,18.57395419822918,24.923156901832222,40.4758507970107,56.37736570011939,54.511599252278046,57.176338981090524,75.1568770626717,90.26713309048947,108.93391469758565,139.50261648954026,155.64078640474176,149.5518962566326,145.97773339555437,144.93596051299187,134.976698760558,130.8124528880319,133.3562829154579,122.77735151022203,111.26980128828728,117.96804502151286,124.53500882149626,123.48309144452051,133.75973619580208,145.75134355305488,143.47024645274405,145.97850227247744,156.54250867877232,152.61374869491232,145.3631463341547,153.51063318509202,157.28910943367856,148.98569574296897,146.7705991608275,140.6074616816284,118.81087522733796,107.57026509011644,113.87806604250571,112.49549772731008,107.87952432410472,113.3129295827401,109.37162211761591,94.3672741724769,92.51368980938419,93.86994794803262,80.71380766117413,72.64504118552742,75.32930111424324,67.7203837458751,60.087978294804046,69.89677801965595,76.18054174921588,70.17970913442693,71.94535603872053,72.80317818643113,57.17955540938162,47.12477861715431,49.34051094148696,40.28549836872112,29.078637077879712,35.67853875660671,41.66398376132244,39.45438318574499,47.45580554875204,52.06961493120533,33.974376299128416,16.960320587736945,14.519050037668803,7.873178385148779,2.8242407962341254,12.616222516409518,15.714787723302084,6.117458381641761,8.281604688879908,15.214351965934185,6.786474658538322,-0.9885291205994282,-1.060240937875617,-12.40723247686461,-23.835262618976007,-16.094691736434164,-10.047297388695664,-15.91722971215426,-12.944189943299996,-8.766201769377862,-20.061554669433335,-24.43297229796673,-13.123717911341707,-11.511335099138263,-15.294448372618886,-7.0695274384689775,-5.829041684221571,-16.79651391182749,-14.411279401348697,-7.457867948524845,-17.956542670897417,-26.599508380284117,-22.11682109696759,-22.744778276113315,-17.889141848052713,9.763354923394186,35.67274025977847,48.3024182453751,69.6864576166224,92.53901256909302,98.3707394029034,103.90755993548095,112.55752335613386,102.35623004771965,85.37300496914531,83.72738200577332,82.2649378184177,76.03021878790233,84.26579184852834,93.78674538912531,83.86265788402721,75.23534550396678,79.69987306505132,80.6249887810997,88.86593648978781,118.81680699311389,144.9243611519278,158.45792341007075,181.99725635612245,204.71201605361242,203.59387140402401,192.70458565448743,176.56021902099627,137.21683105438376,94.32046541673276,79.9582446096161,80.50418245135103,80.5448943601824,87.40031543775842,79.84669200667133,36.21902819289187,-13.1000216498716,-46.53518169041092,-80.99478216811063,-108.90442450266713,-113.85160457395196,-117.95412031447755,-132.20038777823308,-141.79493391618746,-161.91029825956707,-207.44363696784063,-246.45037815541428,-261.4216807731485,-274.8371599371875,-286.5853954563139,-283.46808440259815,-280.99934893367094,-280.2262531077229,-259.56011620738957,-237.09884060038274,-245.3382658726169,-268.8988637152454,-285.1402766964693,-296.72994126125616,-290.3745785126545,-256.32398380592656,-229.06095207980457,-228.7092997432888,-232.34580530576096,-236.53059680985587,-249.67409079020945,-249.71813208736975,-232.573343842346,-224.76119339564303,-219.46349462186708,-198.80705403385338,-182.64626355986553,-175.3470575367863,-152.09499765867642,-125.99113406413018,-122.55666685144865,-123.723523902014,-119.23887173413432,-125.29949029386535,-125.65947224634327,-101.38173100182519,-81.50359370726048,-80.86564036544125,-75.67911725924662,-69.56246555205482,-77.94930159630813,-79.51108972329098,-64.99079872174366,-54.66077871038198,-40.19111120004541,-8.317694252157818,11.431582514959427,5.18164281862258,0.9643553397817867,3.9991171827898775,3.274931271196655,13.005643266661396,29.79084645992758,27.16016500259334,19.522132592619936,34.230135557681535,52.863358326544486,58.6123988416933,63.559681663729535,60.57716467893549,42.612070163424306,39.10790639413512,58.23374639274249,69.41067308006109,71.1010302200422,80.1085541929931,83.90927866578505,82.02598270871522,95.84773664597977,110.40295171021592,103.10593175947173,94.41639172692076,95.11466929010747,87.28565753710515,82.34311522679455,98.33420966127093,112.44528172578694,113.20722645451494,119.7767778879949,122.56401401732023,105.94147846021554,96.36811678957093,104.09862933146032,102.25480194139507,95.36663424488462,102.2142735178731,104.43739833465027,97.40734345493833,106.65483792628937,122.72463366261627,122.62392982115857,121.93349661098442,125.23539652117799,110.85388727811889,93.99996105088664,100.28461689864763,108.81218442672647,105.5039779973591,109.58520369950355,114.91676979685766,106.77077404762471,104.87566140190691,111.30852999337793,99.35769262094539,81.27667615926492,85.62633073237544,97.85836249166125,102.92955002852695,110.27446587161769,107.0101850345581,81.85424846032336,66.06774694765792,73.15392214025367,76.36494103285418,74.88211777939509,82.99202753259033,83.53989580952725,72.66472982523354,74.2150340237943,79.6730968672487,69.33421615593514,62.95763464477382,69.35842279677468,64.85812797639474,56.32499673182103,65.296801817095,74.32115517311189,72.78442226706277,78.42247522975711,79.13584836669848,55.57914814414406,33.245894921587436,27.944950794126463,20.411199448675564,16.932494494052662,32.89710661493227,45.8656807363604,45.246882895470925,49.94911789916222,50.05643482292149,29.154751034691117,11.08234834440593,7.86445373922461,0.5186367714126963,-3.654790939858046,10.652793351627352,21.548278244275473,18.068594543779028,20.7586836331844,23.47708204432231,9.165587438322667,-1.6723104505298414,0.4673944316507952,-6.471712931776291,-14.940748766298348,-4.850056960034062,5.17483355483027,3.663725949541009,8.024766617203166,8.92168674720717,-10.189039107673928,-24.58459916719183,-21.06895471963194,-22.178975818895452,-25.160538558020786,-17.189583888565384,-19.3344381376347,-33.85313886949452,-32.4805609208551,-23.159536719050077,-26.74379812626361,-27.062756325999374,-20.701888200423127,-29.53287775850737,-40.486803785215294,-32.45622075782077,-25.517494696332616,-27.40936839971653,-17.870190575708655,-10.614087061759573,-25.787407206625296,-37.85614607329164,-33.5335711311741,-35.607054106286355,-39.965081967934495,-32.55572751738679,-34.18422035238234,-46.38493641075024,-38.655698675164274,-19.51874548967639,-17.108931521921964,-21.06864067076198,-24.883348975661686,-43.738094627890405,-58.68315419589706,-44.98420025025157,-27.049848099884855,-23.633609757707767,-19.109110583315566,-19.92568635561952,-38.44745752891324,-49.33656843646685,-43.16769363324244,-45.89176991043997,-54.19718328273501,-49.78725895447024,-48.301070872438885,-54.81979199049476,-47.887362929850056,-36.57634806059535,-39.37214842156709,-38.088831791188376,-27.55717521720816,-31.21407405675113,-40.382624411218416,-34.823074603001245,-31.709522810681257,-36.87977457677669,-28.356271360131963,-17.484811221846716,-25.719516492345978,-33.14337530584739,-30.527780090930964,-39.14180107349497,-49.49158235201023,-41.84783731805572,-37.39170984120767,-46.56732081575731,-44.96520112778934,-36.24953448494802,-39.62507744385763,-38.8132766351775,-27.9006791796228,-30.80676281705766,-38.59150121456264,-29.398506245526107,-23.566318218482607,-31.944641009847736,-30.757580691287792,-24.9276416059255,-32.842681615406306,-36.40591654259451,-29.75501937844745,-35.3929083508977,-41.70528997155151,-26.689660985441584,-12.694325883812127,-15.116037819985351,-15.20462963247985,-17.9738820507382,-36.70424191085771,-45.180181941246715,-32.06037837428809,-25.53178874741126,-26.40025717273825,-18.5423943341346,-19.422573236749084,-33.70051527139532,-34.25421257845886,-25.913285959404043,-29.412858016791446,-28.68777007925465,-17.168278729318967,-17.978446158378013,-23.20275356093732,-12.205845042763201,-3.1717191439087293,-5.939475035223687,-1.6011578503821082,0.675563171823517,-14.265688942112618,-20.256411428861796,-6.869594090568576,-1.8398261516752195,-4.209887670930817,3.0366394856110652,4.264717537330155,-3.47443887516841,2.621062946311417,10.242014371356055,-2.263170868862538,-11.972783488732079,-3.5794661037450854,2.9825340953563098,8.193311005524933,20.534635920261493,16.326334310912273,-7.344816279648982,-15.548081736557968,-7.016018526254941,-3.981407970703376,3.4214347114952233,16.441372153008366,11.362700412566276,1.0893352602107513,10.624270637147944,19.97831221428501,15.13527928341016,15.467933583661374,16.970953015085414,6.1566637408826095,5.010679482007084,21.173231068984304,26.47377171641157,21.04022613518655,22.787762653938607,16.853276443222143,0.22871135542565924,0.9316636054611709,13.260229510510294,13.068230581932454,12.971106797428698,18.81917471208835,10.50463169677218,0.035215496339250585,9.291513105055895,18.268410581149606,15.090297319801605,20.29314656684435,28.22958877895114,20.62622901202077,14.889449880215285,19.088091188501252,12.60814963835249,5.17166670103062,17.431093144967264,28.1729446571728,23.793474229757827,24.43886012014826,25.326828190641045,10.445057588704175,0.154004424223662,3.9567055814189342,0.7228499641508779,-2.7001022903374907,9.973760303325601,16.357309908271986,6.078133793123762,3.0453150675342475,5.380293119718079,-1.60501144099744,-0.7075333846533363,10.80831391086531,7.824021939593477,0.35512870875443747,11.186098732418477,20.97224456510604,17.583349729441295,20.61782297653772,23.013201758709116,8.15776079781599,-0.98058411869183,5.88103695666852,3.7373508244958864,-2.508137528704262,5.659100589737907,8.314017365987198,-2.3909547493267027,-0.6435329776059313,10.265757041527586,10.618413665615847,12.894752321660693,20.175222056234713,10.376049884450424,-4.509236956699708,1.0209183467761127,9.757461921229302,7.777521821623535,11.364803386574694,12.611934518578702,-3.8255003239582797,-14.389514534148313,-7.0307643832090525,-4.1718075516108755,-3.0336073957099,11.396147808983294,17.887976960066148,6.455267001203298,1.9740326492797924,2.9638149491019963,-6.702502637450283,-8.046775819428204,7.015789300696246,13.1384077645181,12.76307308419068,23.484892085933364,26.140029216509504,10.60714869955622,1.66585127840267,-1.027700255456522,-12.33361626218261,-12.963918233316924,2.880148397365966,6.220457086519527,-0.9506934305771577,2.514877438500191,2.2858377711603506,-8.614760142878904,-6.997046515869682,0.0882465856288559,-8.98297239705076,-15.694062964133941,-9.084514748891571,-11.717784282251872,-18.006915823491898,-7.735511832694298,1.1450788547393138,-1.5952707043861434,5.215619726126594,14.43569067103369,5.688762113059095,-2.383755913800126,2.310672436781682,0.9023880502317227,-0.4123967313399305,14.423441753515473,23.654345378012152,15.373847088685498,10.996879090433508,7.4939738645009015,-9.16379786305935,-16.95008209502487,-5.991983777372245,-1.760790554773783,-3.958653394137328,3.1117780948511053,2.6193513155673815,-10.687636677863296,-11.51685970311426,-5.06968692889067,-11.930233689194978,-16.21791352818876,-10.273433676483052,-15.553843339613067,-22.484973626065468,-8.191259145914476,7.606514694709347,9.190283161146036,14.074149622641182,16.860694659868056,3.1729591371199635,-2.895502686636485,8.836780296245161,10.815010434281135,4.098426179713127,8.509241940696768,8.940926174983439,-2.3825386190482423,-2.681658728714919,2.978995908552998,-3.62703098691197,-3.9985113051707124,9.79400595435467,13.617773287387884,11.523047100144066,20.695988701629965,22.870174453881972,11.14510990312748,10.287425916457515,16.002744678395082,8.904138885378398,4.440219233374692,9.109303731331876,1.4627506217944388,-9.807350135079028,-3.986297233966706,1.4924802362661609,-2.8563683537348976,3.240477184969889,12.192943846186031,3.607944799728302,-4.934190532287933,-2.009056761480534,-5.661535294171923,-7.26749371032718,10.397865019614631,22.429876023300434,13.721485287843961,7.1371433586395705,3.204961669196633,-10.010118411371337,-10.947718234226787,6.337611528111327,10.851563416321596,1.675210134879336,-0.07018448716548398,-4.593935595891058,-14.492045451385247,-6.2265538838308565,9.194754689285146,4.029569394024762,-7.349037441898604,-10.303796853500227,-17.790417616346655,-18.91501816474676,1.981921216003693,17.14877549689199,10.058339887843843,3.8219385506397665,0.5938193048922414,-9.804452683262305,-7.906147226971404,7.563859107458264,6.418321728683775,-6.157549131296589,-6.1083942779501985,-5.98771978746977,-13.218783799218674,-9.12271737370364,-3.523834414786495,-14.187147051511293,-18.56200467353093,-6.864808676997757,-5.8541404201329525,-13.119164276261586,-6.890149853748324,-0.3774357393595664,-1.641792834535512,8.179722499837675,17.767566492535845,5.349293052098782,-6.474590024953339,-2.2617070754791335,-12.668733182825468,-59.393950407115625,-126.62161833270427,-185.6674445119562,-214.28956420244273,-200.74859493799946,-154.17994645485692,-117.93792270127356,-125.67461030918625,-145.4948577229117,-135.35921098120625,-110.7716270920067,-91.03830874692171,-65.5447311305235,-47.33006746975407,-54.320843899713054,-59.36549125062609,-47.04372380934751,-42.36010376529927,-42.53021554951651,-27.488614654272844,-17.506473012314924,-25.062949910543576,-23.865609237430984,-12.87076684884979,-10.46235940583116,-1.7757006693077648,19.568305358207237,28.2859207919894,26.91185821831568,33.58028470526969,32.945627360914,21.445352251708123,27.349576582133583,46.06054077068086,52.12476825298279,56.81449155538961,68.17585578517478,65.17630087951164,54.450433306510114,57.55392456150685,59.33688810467045,50.97896341884481,54.4910870115135,65.5844058672451,58.20682498758521,32.41194392419598,3.4738971420522757,-18.887041603365937,-28.083326982264126,-17.554267891613982,7.957492767984339,21.100389385186396,11.972118435831003,20.75786079040968,78.9435598715915,165.41736765869794,254.03475082720107,325.5095565718457,339.4597675628561,292.92037609976273,246.91708767482575,230.93636906316135,223.08917193264114,218.23155889058742,213.31686250615826,189.32762542161305,161.98236733921766,158.65735941138962,159.0891759558878,144.32510713486244,133.61000783897657,127.82123370421559,113.0905264871075,106.01567417583897,110.93098290140824,102.0469540612362,86.71688577289153,87.69201395305038,86.02928591176004,69.86273356454987,62.519923813853815,60.08844904874706,41.91524564023505,24.102557979792948,16.777873803976874,0.42577126568253476,-15.342918594801631,-8.043788498415779,2.6916556538312317,1.2052156382567467,3.657431987789524,2.4576825264604514,-18.334658509776848,-33.736320453537665,-29.634979233025984,-30.878923217414222,-37.57308406377001,-32.68416788381962,-33.27361261529263,-46.73891099978995,-48.61708607503875,-44.734121217941166,-56.80326747091491,-66.746374171909,-62.050344141912944,-64.26083032977104,-71.36678056043439,-67.12491498087391,-68.31218084414232,-80.16318457281439,-76.08301303808547,-61.7387385247461,-63.130970606850624,-68.78218014797451,-68.92751958287103,-81.5022225853541,-96.44550448552015,-90.24928037536334,-79.97316403206544,-78.61549462225078,-67.98412281687305,-57.26113997835528,-68.67202658752501,-82.89517042628538,-84.81009541814974,-91.9786561050358,-99.33745550076556,-91.10174392577875,-87.43780328527637,-97.2551726597458,-94.55879321375748,-81.58212655475089,-79.92924045838177,-76.94011244356027,-66.49905782171233,-71.76758303804621,-84.65136775293814,-79.70294666896535,-71.54456306330147,-72.2588982240729,-62.40566911949685,-49.402389125349686,-54.72912064888885,-57.86142992224975,-44.08180226104456,-34.69025195537732,-24.816488207207627,5.352685424018237,37.24571841836631,59.86265626868622,91.83291822345656,119.98062572916606,119.10941210294246,109.73585452478902,109.87007379356038,102.90440490634158,92.31982431108267,92.32855132871661,81.51962507782206,50.72130555278913,29.509717114147463,20.322263133645865,1.3650396684589152,-18.513676270960435,-33.14013499229767,-61.5259483212415,-95.06322226074822,-109.81365355195841,-118.84281477583264,-134.25442169064922,-138.83240460118924,-139.12879899141407,-156.18448669739513,-174.54026512937432,-183.43180634454217,-200.06217361437166,-213.49504638700807,-204.19187504476014,-196.3298820943884,-204.34433421135805,-203.30071095725546,-193.3925361356669,-192.44441304191452,-184.8477315263434,-167.47458358675192,-168.4713134839882,-177.9285742409781,-166.08315587445244,-149.01643111099472,-142.97029162968207,-130.86638480373696,-119.74644353481733,-126.79650655697,-127.3772327486391,-108.88590898791489,-99.22826019913398,-97.66976827831505,-83.38826505753491,-72.30703213978333,-71.93977946194167,-57.081170548355786,-34.91148639043347,-29.823670633395857,-24.678892372562764,-8.716847976433876,-4.627522795507708,-3.7577182920335193,17.480080320191174,37.25580301478923,38.78629423716094,42.55266948850673,45.200763251490216,32.158350737872055,28.315990433968537,44.877836012194656,54.053207502252796,57.188577971299445,73.4084488769104,84.4872804595307,80.4745850882789,83.49549144278444,87.49967202331314,75.12693001474311,69.79254441486326,83.82716357670867,92.11101911846892,95.95251851098674,111.56067320936648,117.86211661240235,104.03845816737496,96.46008335877484,96.69789289422984,89.68529937743507,94.10617356050092,115.95477159184489,123.20009853796206,112.69913146678431,107.35642737175299,102.56748804156523,98.17531467162331,114.5659359354365,135.902721756083,130.1502313852678,111.12872552680038,98.85516901039516,84.30319916775487,76.82213969152936,93.10435023879944,109.48962984311582,109.17682500008357,112.29028794917734,115.27362658769636,98.89331136076422,85.22368214279973,92.84018673616283,100.11475714356396,103.09244099191359,111.9837584916038,104.19473913267619,74.19231094033366,59.16631902759352,65.62093944671513,70.21255803625213,78.25771623630853,89.09196578078172,77.67845583712537,58.10336456915069,61.312453016910354,70.57475713114513,69.61374875051236,74.35114997134777,76.96663567243874,61.95656456845896,53.42905630223358,61.79190550876092,60.00732701896594,49.67092516644819,50.34477825411911,46.04968509236985,30.90043750478374,32.08083071227782,44.06411767489911,41.037164275243626,34.836694396628765,33.523027546163156,18.61623235919592,3.6374932612006075,13.435953404644522,26.800220401908476,25.805232122729727,27.59934789760506,28.925031182039707,16.65797113275685,11.734894439027277,21.29323472396066,19.26379618929872,9.4526738731364,13.062175725795932,15.85237329274265,9.13432876654061,11.988053713415969,14.963452691523788,-3.2876517224977597,-22.09819052419549,-24.709657160552144,-28.385845362485252,-27.79387694794973,-6.397729381113633,10.989763803098677,6.0406717246316814,-1.283125939891478,-11.399759884687024,-35.723868797838875,-47.25040159929419,-31.791902438286563,-17.74659048132859,-11.34817564181422,0.19748284284958917,0.8608071522073766,-12.536552279691557,-12.35935966746227,-4.842358224811942,-15.653679775293988,-28.701986374098343,-28.09177570363671,-30.51424067763667,-30.39048204583336,-12.98227194166885,-4.854601169730978,-19.777978151111846,-28.458542817934013,-28.013653412449678,-37.47336257387168,-40.74741117560386,-29.2953623218402,-28.018909424675478,-31.66125072840588,-20.111602359881402,-15.700864322748615,-31.128562994863895,-39.27415985782575,-39.09664957688839,-47.72997769813677,-48.57260442455031,-35.81400389587043,-35.17174948266814,-40.74257319027981,-30.960020346615053,-24.71873008850113,-33.90749362447987,-35.746479061029234,-34.18221923851208,-46.585921518089386,-51.08965876911609,-36.98967967488035,-30.36034493414256,-29.443093945707066,-17.542249421652276,-15.65148876965057,-31.91895105904023,-34.917362452846824,-22.197300185025192,-16.497852723406915,-9.936291675174834,-0.6861526429202502,-13.63074514096357,-36.8058890608229,-37.11928949557213,-27.08431759439933,-25.67597144870652,-20.29266851989751,-16.336863025801645,-29.02897354246427,-36.26874169206721,-26.35917718346134,-24.69078983233193,-30.030931849548942,-22.275413471371245,-15.411478230643912,-18.28287196653536,-11.958185600378096,-4.556099943528791,-15.911605875382797,-25.94545542744345,-21.1409965073133,-23.26481582548209,-29.43630832182188,-21.337773131458015,-17.294200188015413,-26.384485148074784,-24.7632676923275,-19.299033430041273,-31.061966284822294,-38.95175650383578,-28.956161359659824,-23.02773815577916,-20.671165416134265,-9.434126259881282,-10.023601366702511,-27.60651549572916,-31.389563208444102,-22.156485985234454,-22.71099352110365,-21.18517862177918,-10.976638185418864,-14.235614551105597,-22.90241991360914,-14.541959273410178,-8.310339351944757,-17.417109616417374,-18.44708407197378,-12.49222973711147,-17.28606757723945,-16.192075222889667,-3.8197349346739946,-8.392374959191818,-24.235447792457258,-23.146135743426612,-15.899357549962392,-13.555380193072022,-0.46692674458027916,10.68251939779274,-3.5343560577278996,-21.26992643078997,-23.271131933720522,-26.458454571323365,-27.258513865012244,-9.991740692050154,3.3617288691948843,-0.3895102692703851,1.5908831932751593,6.841655227031241,-3.461078562311376,-11.737790208614667,-6.088006575534945,-5.658330212196089,-4.5323181407191235,13.337337677814844,23.687177684325633,12.589568616155784,5.395075664331103,3.51810979448023,-8.208086626502839,-10.759405320394256,2.665235762177481,3.804368855294451,-4.287017760766615,1.1194254946732314,4.6838748358859466,-3.8267836430001423,-1.2079505101015342,8.961343935771005,5.370315836491258,3.8726607668619106,14.510035934874493,12.710112460464359,1.1739472479638549,2.6551988805772715,4.350307201728871,-1.839503966642741,5.649924501396451,18.560772527829958,13.092138752232419,5.932711473612121,10.109104454610879,6.966873940581676,3.3005275994778067,17.324941173158027,26.077376995791518,15.412030003941288,9.67579085210084,9.361239345397335,0.37306109836355983,3.585704369861142,25.22503230197788,33.50345133870423,27.03392957172651,26.646279556637815,20.166779910310517,4.212989867876395,5.515045805421629,16.78805439353295,12.369867995544059,7.562691571041539,14.416107945700007,12.066566689212937,3.7891999862837755,8.046856363577051,9.083263042814423,-0.6993399131240441,2.872770943505909,15.47597480937742,14.263818226828896,11.79859542082754,16.17915844306303,7.252847688594082,-5.294931181200595,3.1501211841228445,15.63381531470497,17.475279574539588,25.239798622873074,30.179518354450522,14.221785211253541,3.344798547804137,12.169978935651017,12.20916642516875,2.8780757727499395,7.2674703155638944,12.819756712369056,10.129109119766419,19.3156142339427,30.86305514332927,20.199090786544392,6.898100054580773,8.145400296547844,4.5074812698917315,-0.6779120382552735,10.959877791479247,20.45671046347346,15.120649557930573,15.13313099037631,16.34046391343733,3.110638345201863,-2.61280459788295,8.986380409627474,11.199620510375006,6.317958759413399,14.466395136486529,18.42934620162817,8.52053369072565,7.533320811631853,9.688191101186142,-3.7449450414768943,-10.547322285888109,0.5920733955353539,2.068976384270752,-5.218791667397426,0.36031501636477925,4.169250040268494,-3.5542710421693466,-1.090090171811858,5.602509517106907,-4.030933073533974,-10.368640337558668,-0.6709550925310861,1.5293145817118328,-2.256304132151363,6.506484254469653,11.08204598144249,1.7353257528044064,0.9589411187773951,4.904986240220647,-4.700942941509385,-8.939660309382633,1.4155095134467404,0.3345370427908061,-9.009513000536964,-4.283045980646385,0.27766976864735216,-3.7944840670669233,4.303745322085776,14.120692518877691,1.984488904759023,-10.9499468995253,-8.293182117799681,-10.393241294115304,-14.050471688403794,-2.052519498555897,5.728488945715411,-1.0944252988298726,1.8813553219065384,10.007569490424794,0.6660694879589766,-8.83196237923795,-4.942816500054153,-8.166747984422853,-14.126369908630213,-3.8379524444433066,3.9770470429606104,-1.4331780961451863,2.3312720829862554,9.017295852128411,-1.9542830992818647,-9.914301350517725,-1.9952741019764453,-1.626832482727452,-4.770778210133353,7.916330607258349,16.03657745446757,8.224950105627531,8.727999250783176,12.867443827795462,0.24122301210221764,-9.400055118680182,-4.035556280078902,-6.882345766315185,-13.351470507298718,-2.2469210124524235,8.174279607696985,3.6763272792294224,3.26654492925019,3.2094668479118558,-11.57652382991915,-18.74096104818929,-6.71918109910043,-0.7448245488626987,-0.14869536995172772,13.257262935078074,22.445839221783416,16.33302439724815,15.43566422758355,16.092338634555933,2.2930281081664052,-5.416992187735719,3.8226362937917053,5.528385742348629,1.4267833639324148,10.50932740600928,15.851014901036926,6.902808813993842,4.423476179190099,2.7823976981061445,-14.482573202206062,-23.451579025569345,-11.25714107891707,-5.012107354010544,-7.615850842206772,-2.1459301857848647,-2.676620556516714,-13.818113570239444,-9.347969984143278,3.800843527278744,-1.454271522972924,-10.296760142649394,-7.893450840253812,-12.252346769965794,-17.40203393456904,-3.7895922322404756,8.566073581299301,5.494412149461526,7.648021290452262,11.395218279202808,-2.0591303689552998,-14.304517284397534,-13.097619654272606,-18.756182973139154,-24.978716420015637,-11.728588206822648,0.7251276686257069,-2.824724116590083,-3.378570605704163,-3.602414666078511,-16.889906025612852,-20.25462635700884,-3.648601803591225,4.9222350125414165,4.598068936631707,13.6739885099195,15.91667497162027,3.0684334357233984,0.008521772707786424,4.832476263931842,-0.9020217891349285,-1.4131474479539716,9.900901226638345,8.147447827446033,-2.348322200289418,-0.21481512636781508,0.3626730414170329,-8.671274447410369,-5.573851934695751,4.210229404480181,0.34945070001982126,-1.4461923685902125,7.031690169796481,2.307159265220906,-9.698800039193143,-5.303088575991575,1.0064143423387266,-1.6845195031960514,5.494351125642785,13.560010066046381,1.1239217610104637,-10.029818290074905,-3.3165232882971614,0.4729599033731713,2.06129909840807,14.546754716440802,16.036241430320075,-0.39610515242809363,-5.498761792252401,-1.9058473137696468,-11.276124150558461,-16.769445272384683,-6.955218141793461,-2.371449221861606,1.6324224716224836,20.310331590541182,30.098568491377808,18.84665086508464,12.341269234597224,10.375756637596245,-4.694233534621014,-13.830261628616169,-5.129798867170603,-1.1897825231589554,-0.07282965975360212,13.19837271549593,16.731210625564355,0.5056401297129796,-7.311188958357275,-5.144958356862164,-12.338122713738422,-14.425793946865252,-2.8508154703074347,-2.7573345614106994,-11.928109014987998,-7.8747028751296675,-5.099404063680888,-13.753995355580129,-10.12151863099226,0.7681389785601644,-5.1612982719328,-11.548522163689562,-4.990889642191561,-5.692591469466046,-9.19935387983701,1.9899739181711187,6.681833509555692,-5.908283088457917,-8.415778212020399,-1.8841069600899871,-7.821914667273955,-11.124032107039014,-3.3246804198680513,-8.043181991462694,-18.540438115372343,-12.362739651227876,-7.871267740415572,-16.779472651459184,-15.766017673271259,-7.920198019886726,-12.696764351384118,-13.089859306035564,-0.2386590337126675,1.1103593881674763,-5.021307773126596,2.373113952907426,6.141623636699162,-3.263034700471745,-2.0705051755597705,4.111593694565775,-5.970390760552157,-12.803595472188464,-3.9090547732933674,-2.0850227885249097,-2.286984347032821,14.640394597098794,26.19112449372992,18.258780453854243,14.587723746177192,13.772382885859471,-1.1934709470155083,-10.404373698022441,-3.055595209149783,-3.3809604581340595,-8.032622890388149,3.6320352777895097,13.715458714080544,8.534070005916378,8.376986266179044,10.566803911640068,-1.254887449129101,-7.5174329661680055,1.7572741559364315,1.9266764508426921,-4.260347677880204,3.484762668541518,8.407745182414004,-1.1810158453196147,-3.703823434067753,-1.2189005571774099,-10.085850289463469,-12.034475477375715,0.5517685498799336,1.165709985845337,-6.177166975120408,2.307730064965944,11.064983307984825,6.899460594956602,9.16573803496828,12.756647102063502,-0.3244712691651621,-8.558766022823582,1.0671691727704342,3.8640524768363163,0.6906747160059483,10.470455244848647,16.013931637194382,6.905621773085951,6.770880638829361,13.535308601668051,7.641548875078225,3.8344629875180436,10.794773676531523,7.378701132263345,-0.17007430865812845,8.143286393014268,13.864150160941069,6.126383106708187,8.127559052180539,16.296337573863813,10.202250932206182,4.704855554291655,8.098140121580128,-0.45796974650405353,-12.219312281709257,-4.26969462021191,4.381989821055869,-1.9321193246265231,-2.9619823892255464,-0.1162150553654262,-10.247769464079225,-14.5576420681262,-2.412963611846129,1.560583146605574,-0.8813910904380677,8.7754788581226,11.760651169793356,-2.8319226176336736,-9.60211629937948,-7.9080027791594585,-14.560626308984636,-13.795840833733145,-0.9336135349002568,-3.276802844473197,-15.8105086586411,-13.284964310604781,-7.884718988973285,-10.756258884660076,-4.638065336475985,3.1565162309344412,-6.90711552950825,-15.08191589620641,-8.422277349346222,-10.371958322437159,-17.969603834637752,-9.867334921814647,-2.2141162319765972,-4.566307147759071,5.325339282044736,18.535349689797638,10.79935123045173,0.5806584446766205,1.5258633540161233,-6.378474933704063,-15.39565443861097,-3.9316188335446016,6.508505478245327,0.19773746011558302,-1.2076872786917574,-0.02832221263803958,-12.58807680181827,-17.33644484218453,-3.2940147030002263,3.0378686556863643,1.6606055314110324,10.464923917794598,11.82030976478281,-3.1914090561785367,-8.156437724253708,-3.2887218810395775,-7.195304709452552,-4.624006875973496,9.678003898779416,7.8682098654157775,-5.306191540202693,-3.806748416393319,0.0025426784871381836,-3.624015724579876,4.901235068710346,15.824967474950169,5.828130115965916,-5.480816527443299,-2.6616582866908995,-4.6132952960861955,-5.5820433612399984,12.82028846759114,27.73312152135551,23.41134338861586,22.502252845996097,24.02542018472013,11.221334983894891,4.423226760403301,14.573889916916928,16.429475500740068,11.681180994537732,18.805990158460485,19.610582515523735,4.7668787220637565,0.34638409015738936,4.570274181355212,-3.4517561975109827,-8.207229574949674,0.3587923455481201,0.3731359739561235,-2.560216415322606,11.203183397502984,20.385477726123884,11.001440195818379,7.191461653613838,9.461158223522363,0.7954436646280127,-2.56033850700663,6.424510682072356,2.9121631720927508,-7.033528967525404,0.5962008606039841,8.926065723378946,3.4189245653568596,2.8671796544146444,2.539085624040754,-13.836513404625332,-22.573524541496884,-11.175430854476458,-7.081086856938423,-10.169621235664197,-0.2097412045185285,7.339623500900385,4.277702619183533,12.587220570175646,23.013424751091907,11.967086235991117,-0.8563200353149871,1.3085401285487817,0.40692954994712593,0.2626656422054223,16.64242564558472,26.767489209678857,17.18081098060411,11.363743226545038,7.2948395720139185,-11.94222924304652,-24.542521159076408,-16.943439804681674,-12.747306988420792,-11.757118547806671,2.056404941059406,9.501327441756555,1.398497102540082,3.598746604378034,13.051907231932619,8.695172047419828,7.6260702591940115,22.494704543732382,34.57786366813472,49.207981429767365,83.5251894796681,118.10961953580444,141.02884677339867,171.51732210964295,200.90580693776775,204.84674577353462,198.56299437447228,194.737026798727,175.81030169712682,149.32423698486411,133.576573738706,108.27612104554996,65.54169803452777,35.916183935308005,20.441266762779073,-3.4383846661337536,-24.255093195470387,-34.31355781862109,-55.83094260908542,-83.09293551466489,-95.42553123750466,-111.37140874768154,-141.53951720701585,-159.93904367566944,-166.76377335423678,-181.21506109523426,-188.0458919970468,-178.07190182286342,-173.95431484089053,-173.36141108903846,-160.27544937122107,-155.38538974657868,-167.64109643830983,-166.37352429180964,-150.79901452890942,-146.00776778396482,-142.12882474104714,-132.08775081523714,-136.74961100206414,-144.5395690624187,-129.37568726395028,-111.04594075260194,-108.33414805087668,-104.84032678205887,-103.2857953235542,-116.06518019349502,-119.86158437791943,-102.83883346766667,-87.63998319806285,-72.91473962458744,-45.45117270983006,-27.53244868775819,-31.60177311342384,-34.475549040852826,-34.44109314189565,-43.45772883832623,-40.19533786267738,-17.16078849298274,-4.316696615494818,-1.016019695462413,13.51524580325546,21.88835737909314,14.221673595777045,15.554283728495628,22.406088438484225,14.154600761651116,8.323980103798158,15.014786521877207,12.22980851374249,8.668118345079655,26.838995348509517,45.334485410486565,47.39046371452644,50.46591581205261,49.375536860919794,31.390095826788517,23.633221742510262,38.42812166915523,46.43175910065977,44.02190766079816,48.317047100875605,45.96404034583364,34.35950606214669,40.976552100619784,58.512687655840416,59.70094281850478,58.61383537236011,68.0063941476218,67.59973848005669,60.399122986532305,64.77757490489249,65.3995998913653,55.22878043015689,58.70134929870681,70.82985753859968,67.15933988010724,60.92055328933259,64.55942678931606,59.43254797464617,50.76895817783503,59.037824934936594,66.48873862422604,60.65188817444513,63.74951483278994,70.5556681252227,58.029686326070916,43.46617918982439,42.42739008771735,39.55816681694184,41.74239998009701,62.235505457393444,73.5589324127481,60.09422256376499,47.26410243538293,41.18868145177189,32.49362332792546,38.06220987453337,57.4301875752013,59.98605297890844,50.29520629811655,51.497017253294715,50.17242768500056,39.12729257679105,40.67481211546229,48.454149099711756,41.03808770159475,34.61371893569818,38.48405459572862,30.485977476698913,17.842067259814385,23.407751908577577,30.27190383227766,26.14631269311686,30.799192105939458,38.0466567676208,26.852094511281475,13.939284558286221,12.35960786164673,6.088422449703868,3.792092762515386,22.2157268571644,36.48936621077904,29.980793751542407,24.116214088635623,20.806493502119764,7.931972729944503,3.669077983519597,13.47094477767389,10.56780226447626,-0.6726913278797255,4.069283303600927,10.75660457506189,6.289626159347039,8.716247888711882,12.221745668617242,-1.2787948774414897,-9.536173822999958,1.5131520331260022,6.047833397546566,1.6846138992142463,6.386087121302931,5.9167735459801065,-6.306400667626836,-5.669855519034434,2.541655501800936,-4.574789012141865,-12.157425872874466,-9.64316558382546,-16.0728120532992,-23.772069418837983,-12.546091412052945,-1.5655630200090336,-5.5664259140341965,-7.207419761242949,-10.965297552523962,-30.6333608289297,-41.19899477998953,-29.251495651197743,-22.349878659768336,-23.931104025921567,-16.661574046427614,-15.363332939750919,-26.675713618440167,-25.62113682948954,-17.988715499252148,-27.967240946087095,-39.366582855818535,-37.26563069290937,-39.15939677735098,-40.652391770277546,-26.010023376163964,-16.90122602238368,-25.08909734979138,-25.867520086972075,-20.15865524248056,-27.03526183280847,-31.870778734580202,-26.368939343072086,-30.865169799952316,-37.29741869945954,-25.478153855171733,-16.45959800845488,-24.29563394448215,-26.411282295215777,-24.498423164212397,-35.984191359572264,-42.03066721185148,-32.55073902739541,-31.2301596472543,-33.819649855425084,-21.507787303562246,-14.587524413248467,-24.23003955204361,-25.51213234299581,-19.849959271649357,-25.45043539096319,-25.980085357614445,-14.317487980535516,-15.487111914578822,-24.938260726415088,-20.553683417161732,-17.057924394006296,-22.946039398333927,-16.572217391856302,-6.022551766909648,-13.755132235491857,-21.721614858588698,-17.14762228847311,-19.728084256813837,-23.820130269289876,-11.47408402018272,-3.07927924528825,-10.031131666592247,-8.889459863366834,-2.768834487319004,-10.567903192253205,-15.421739045516865,-9.320054447272458,-15.59288178899825,-27.80593307456465,-23.71826920413806,-19.53084632581916,-26.315701588483762,-23.179691873185924,-14.149318981772318,-17.017631044251367,-13.89412428118279,1.5535074235632322,0.3574899011321757,-13.418434355315453,-11.884762044524923,-5.450554796635803,-4.720569740557867,7.462402289885956,19.348997167792284,6.887721324416523,-8.426185221240738,-8.228296331309593,-11.38144522085274,-15.236669478467276,-3.4642986953332993,3.2100226607796003,-7.843340766914119,-12.97974244980574,-12.167743055975233,-21.84909946313862,-24.972652013999515,-14.042228218146038,-13.15887440924143,-16.988045738394675,-5.215739579083602,2.8814689344959206,-5.090240480646539,-6.097084017102763,-2.621016621116719,-12.471196214886213,-16.04345796352137,-4.262857025319491,-2.8252159938825345,-6.20479414216337,6.788112608077586,15.879801430720354,8.096427257477254,6.470229752389101,10.099049432639614,2.44277752209237,-0.48769933697447665,7.315499874461265,0.8282312113844581,-13.394520320826114,-8.91198308988485,1.1963872920732297,3.419209275281413,14.432897716988862,27.04118743691128,21.228822780575058,14.861789174432992,19.301679462929663,14.762226332052363,8.743558567548128,21.521700248936074,32.78583847098419,26.73911741446892,22.067174051193593,17.679885427234506,0.5245136430547062,-8.806248402166421,-1.1696351104097138,-2.6164537833312966,-10.704515385035547,-4.323094042904986,0.09266479737079147,-7.167319414333133,-1.6879234042984197,12.088647023716584,11.219086819269378,9.73476644722173,16.02574567379603,9.671138532836224,1.373669043844667,14.577976549065463,27.35951688991881,21.277299893300416,16.559231259875407,14.338449753306936,2.247549774760846,2.0032924427605687,20.804878994681665,26.347432495271892,17.190538342555385,16.490857541652154,12.418070802618388,-1.9109020669758952,-2.4313428940280666,4.88667574215339,-2.070648077786809,-5.243208862773056,6.4517639459681035,8.865507719379991,5.038704409923049,15.01983598248079,21.630366986416064,14.542111647823871,16.44474876954795,22.4669964186334,12.541198474932747,6.071229479706879,14.928284914487694,14.657984055926104,8.139069026920408,16.207514246372316,21.390939389682266,12.30391355606061,11.138424735232137,12.646267030939292,-2.6895884977157314,-13.384916860535142,-5.479381239344933,-1.732246416781249,0.11428297219342709,15.89156155552903,23.311505760692818,10.826903098923086,4.407097830577218,4.461657404864579,-4.719559716285701,-3.7880502462854215,14.703655193557868,22.89128130556498,21.688377966595343,28.268564013799,23.931728468445446,1.8888220021029074,-9.549341304685427,-11.355706924801842,-22.01889257072853,-24.304907196836762,-10.160715509211208,-4.681731680821097,-5.270287077983046,5.101469957914048,6.962427498194369,-6.511447323082883,-5.686757026022089,8.580506163617418,12.97644084538225,17.01142588930252,25.64583206803475,18.211978705292353,4.732959156002172,8.79795989733171,13.159581909437376,4.716015746744304,4.074993555503772,8.738848975547205,0.18214762434232856,-6.643902075627988,-3.358201276887894,-10.89102152055329,-21.945340817748146,-15.009608762740438,-7.562966685944346,-12.53905350647288,-10.928200128301324,-6.183877450721634,-13.706153871969027,-14.65699879875792,-0.7470484326844531,3.2993221208682586,0.2883814356818639,9.361479029574475,14.329915833743378,6.441912945941752,7.047198825411666,10.204588766341965,-0.8496633063879537,-4.35588398175927,8.560371969093259,10.16868117714762,1.7425690683490056,2.4260723920929914,-2.1112135775212018,-15.245734594115909,-12.45078374229626,-4.027659869356962,-14.438317016702868,-25.442790133341717,-23.655750197696563,-27.14075980592346,-28.07184583576181,-9.391104572996046,5.284623390122738,2.8567886756578855,6.014110582212558,10.753237835860924,-1.391787717894176,-11.235849105740458,-7.332107432699933,-10.471875523038797,-14.306354483315554,1.148565987939774,15.694690576720634,14.388778481191792,17.802250733949162,22.89598404728808,10.017790567542232,-3.072910795955716,-2.08373951165812,-5.789473575853744,-10.117353829811835,1.802909295155402,9.478101534664738,1.0435286170086027,-0.6653662968395277,1.3046282198941337,-11.44233623175203,-21.044015638715326,-17.120446090026682,-19.974349535836716,-22.93732853988051,-8.015478046012998,4.74343549102988,4.082769008138253,10.308645925808129,17.272175483378742,7.678295929619463,2.7451161069442023,13.003863908766524,13.933465027376986,8.126802184412728,13.66054244687094,14.55693546522231,4.644772025427208,5.682063435633605,8.296238762305357,-7.506078174273624,-19.153017264362756,-13.614631371210093,-14.660589366838506,-18.461946665258953,-5.708541525855246,4.4258143107345544,2.035186064194847,10.163310028582316,20.63021317911617,10.913397534356143,1.4350101169772147,5.881681557471923,2.662751468456915,-2.9309493187841857,9.155703954319241,19.31853760475203,12.972597574686766,9.124491509280526,4.487957585989761,-14.86602224148921,-24.950608024149965,-13.128874884336753,-5.5302042079617415,-4.60228396419232,3.890958096301442,3.1391547065616967,-11.065107310421261,-11.819038101281883,-2.8108987825218943,-4.2924142636654,-1.6296462957610778,11.200284314315779,10.019691973467125,0.10320098261239874,2.798358432885105,3.329277657927915,-6.2581970352887115,-4.093761889911741,3.257184564139431,-4.750799595139333,-10.831441974013687,-5.243328401329309,-10.081666930723298,-19.78819843019757,-13.63563131369271,-7.30677738959808,-10.319550101548687,-3.3999297190629427,5.199038851652361,-4.3581486210681275,-12.44668973417673,-6.033902310083307,-4.468773767414554,-3.116768017217876,12.909704550919297,21.31774593685936,11.304160344362163,6.498254462521819,4.104413939371719,-12.287550879849844,-22.99188892797005,-17.42715683412957,-17.000428351720846,-17.67100423750964,-3.450746638087144,5.3253525846911405,-1.8656334503819725,-2.332635759215231,0.4553723847534763,-10.372658953958453,-15.59181640312527,-6.149781556011325,-4.281320162258758,-4.211420880693396,10.376036930702812,17.673286666935713,7.214615297709374,0.9921483000020506,-5.907680629885366,-27.312864875288902,-36.8354262353705,-21.499844952731443,-8.44034175315388,-1.1771112009701763,12.443708326889706,13.425242793767357,-1.851003133719507,-3.09595101476965,6.71727609050915,4.822974557058452,10.595139205986122,50.16778499228196,111.88822026859525,169.5365579641604,203.13414729477893,199.7969107663473,161.14940601278866,118.45674421758915,110.798425488417,126.20311080938447,122.12716122243194,102.91368693459174,94.39040514547216,85.89101593294833,71.68439036365127,68.82761069056228,64.25899931265488,41.38519109963339,27.714667749941974,34.05007791839141,29.919886086682425,15.883046587121754,14.339875770006996,11.798783676678145,-0.08573305717185242,-0.7682186379289404,1.3895112595362042,-13.698064731810245,-25.589185062850046,-22.619288363070744,-27.31299580818673,-36.088882044231994,-32.402974776376126,-35.07969087551912,-50.619366820684874,-52.74310427134719,-45.4424328957686,-49.4763266227347,-50.36731467204409,-42.39405721059548,-48.35462163988494,-59.25748554864465,-52.73650049287337,-46.05813030051378,-50.20671519616458,-47.83891775824785,-48.256686924753495,-67.44882965561271,-80.83985189076677,-75.49081873449941,-73.62174142427945,-72.52819524810222,-58.30598430192293,-52.230830150222914,-62.18795944085119,-63.043107848217105,-58.675466828017065,-67.04479474060153,-71.33090739725223,-66.31332637417785,-73.96538640968691,-82.35895145593626,-69.43820890721067,-57.04970862938269,-59.51331665700391,-57.71345401693935,-56.868908758446636,-70.43176682377899,-75.54978879191903,-66.27203605836218,-69.87196648011962,-78.41306702143906,-67.05116524373369,-52.5521623813617,-48.2006316954831,-37.408645996383804,-29.972617655691344,-43.96371875113864,-54.297712553557105,-47.040668770372505,-47.469084825659024,-53.78481689872999,-46.962272839999194,-43.57376623847732,-50.25150307526803,-42.51953292114687,-28.428225353074723,-32.696322276527894,-39.34420694843722,-36.51470695344309,-43.82754479387472,-54.05464561986929,-47.25593310049044,-42.2315988854465,-48.03343043947408,-40.652470101013606,-26.293171185458622,-26.669115340092333,-25.784340534206905,-15.655630653469036,-17.74075114052531,-23.508523515843294,-11.8014530810225,-1.5479391108044385,-5.5574054072129355,-3.7655053878182536,0.13697774868786472,-9.205897323624756,-10.89794425027462,2.4779002157507977,1.862019845413648,-9.927076579485192,-8.571142879828564,-5.5740945653221905,-8.267368777147421,1.2178107381422567,9.764498320612596,-3.8461960665693624,-14.346267617229387,-3.9445653992744556,5.609875893611511,13.432534479855622,30.792008065156786,36.19358615624667,24.650387720569082,24.870842098913325,32.3550728861115,25.430477813484245,20.552885820556572,26.825372148883087,23.51340916754085,17.88513795703413,26.58499096904814,28.131400510314776,15.159298495746402,14.640371303395991,17.872218726806267,-8.49750561326898,-53.09271558795933,-94.27483601841163,-136.21720095607273,-156.86230713112553,-131.53177912200428,-96.0035111176476,-82.57336637993033,-72.3861392407731,-61.20044461171161,-62.59252177293876,-59.32503953131873,-44.25636744639011,-41.346424794300106,-44.52156703827211,-32.795927692404355,-23.853719371030987,-26.773934091633315,-17.36460629041533,0.8572705277126182,9.1000150224515,21.942023061289294,42.822698917618226,47.369430523034154,43.97245152088395,53.83830643346676,59.04923779137876,52.68652998132651,60.030025272925315,74.32143084163975,73.58977886849681,73.91414431126127,82.28034902203038,76.51659068545851,66.46545501557368,74.17202413850501,80.16113794960734,73.3516274382863,75.01412187736409,78.8349103028222,68.99234582998739,68.18759029864208,85.15650954658916,94.35340092220423,97.78689211544953,109.7211716684923,111.06015175683041,96.89089285800534,93.2628858473085,96.7922433402867,90.43425216075293,91.65529905546882,106.22532105079728,108.6037244041643,103.45707227972018,110.33301640592211,111.80887189289271,100.15922000399067,99.37496870920373,103.3954536888424,91.90559240825904,83.73429748254966,89.36867351432892,87.64379525081809,85.7512919469443,102.34097152603404,118.49119933677454,127.03212091823202,152.778805995567,190.15010456332863,217.43733935888258,247.1633328591663,280.8967071813654,291.74331951540023,286.11997080280474,284.568291378294,271.13437057753845,241.63138117217602,222.80857695927693,210.94884982879728,187.43951217211918,169.19700415536875,161.428760536196,137.3299968258748,102.52226490051288,79.36160005341507,53.826203942603826,21.2133670039836,3.253496859603428,-12.140240240693519,-47.15096808001514,-80.75949666515704,-99.69689256157821,-122.90534931752437,-143.0251298890609,-143.52686342775726,-147.50508261006632,-165.90183374906087,-175.35390045187995,-181.458897888911,-201.5601050379234,-213.30342140226608,-206.1232937675478,-205.00683924297516,-208.07028034482437,-199.70621217358612,-198.19011614609116,-208.73142742785677,-206.17066402209045,-195.57168437023418,-195.62147566090005,-191.17554720896956,-178.1750662392138,-178.52625722542408,-181.27698444652276,-164.9973324350397,-147.8323463566033,-139.27485965617473,-121.70486314137916,-106.21302089615637,-110.66470935627838,-113.22799334959097,-104.17493922654326,-105.78108164236859,-110.21717132413416,-96.46093985625134,-82.24753867710348,-76.8759177122739,-59.83013410553997,-41.0684500661326,-41.77823919991637,-42.41643730580123,-32.86267785547691,-33.60516690380662,-35.39997688220917,-19.062443285413195,-5.117016932668427,-3.896535620093803,4.188180125644024,10.880981064860297,1.4581047800302924,0.010885298377338759,14.967488244284139,20.679404365338012,19.937773281136696,28.57650632744301,30.804658924656124,24.925267190460726,35.02534819504304,49.12875960077357,42.73583521215912,34.45148106996448,37.4238966711699,34.25296049622674,32.60728898350682,46.194874231544006,50.64106447333708,39.13349579869363,40.13924233164957,49.338270399412266,45.39778504528356,42.76438653815478,47.317214366742526,39.38093031096766,30.960739980293354,41.89625951759858,50.38833287464135,44.911657742391576,45.55468782652896,45.487287691951366,30.08066010768605,22.93758797578644,32.926326730870485,35.01551434868777,32.73087046864972,41.497038162575365,42.656597222919935,32.166209292575594,34.256789286446875,40.425251743413824,32.939514710727494,32.95742243713771,46.49273218213223,46.871692557470986,39.287411436008604,41.363374868186824,34.92047448557599,17.38565487016298,14.486017285161298,16.110421911497784,3.2968916356832305,-1.4877132073633739,8.965256245024904,8.98911218989489,5.011810040735023,14.644340126417333,17.79778630320202,8.771857341278324,12.632455152814806,21.77539782962605,15.745924489518512,12.010436103947995,18.192592108893663,12.602091558238966,3.8962299652404053,12.757186891541295,20.203918326082047,15.521736367366163,19.146176828720538,23.119720814583435,9.20173100666717,-1.2960870996354357,0.4626749684175926,-9.814163560743822,-25.579088237806246,-25.915289566820803,-25.023665782681842,-26.476389375617185,-10.128007842613744,7.8221021504078205,1.7183269585022654,-8.850481035909121,-10.12197947154034,-18.781654352569795,-25.479173253396805,-13.922243477667369,-6.211028027789796,-9.764888112236639,-1.5304360443913083,7.698341299353324,-3.3736913056151074,-14.8216293531811,-17.621996328203586,-30.78861350931071,-41.14352798407748,-29.62014375637544,-19.57568914089944,-20.830970938994604,-12.415210223971146,-4.470679255441475,-14.749183183652237,-21.195849249992328,-16.906193937308807,-26.19483508886041,-38.993260824847084,-33.07582216550257,-27.54915973280612,-31.690926850664493,-23.67748514326596,-11.839745399033845,-15.594156345117975,-15.998476605931057,-6.900967864927705,-13.116129435183591,-26.452881896066263,-24.900917956017704,-24.63405389356354,-31.96216585693434,-24.260072787460224,-10.464632186254496,-11.504795042931445,-10.830656394363967,-4.284109708869153,-15.998581578304696,-34.0086653663148,-32.58013693749443,-27.290638661259713,-27.507590562176045,-16.09662946075727,-6.0449892138783765,-17.250518348447457,-27.363098654139176,-24.38214728256869,-28.207129129783812,-31.626444909065224,-18.295223100011754,-8.246936391188655,-8.924042371930947,0.08468719872122588,7.952140607257468,-3.6986439309774335,-12.785632728646076,-10.109685377361615,-17.196463093049704,-25.298477482447506,-16.976844136620727,-12.958682756036172,-20.129467422469567,-15.719503679838756,-8.614664016230423,-16.775468587991117,-19.27673435500428,-9.468293729637942,-11.750808568335433,-18.666352948913605,-11.482032625687346,-8.18202409193792,-15.35202780417857,-13.073922525900084,-9.875062059164648,-19.133859295819853,-18.314994024426756,-3.5555769648594158,-2.2671413404746916,-8.858065608985099,-4.944719434514125,-6.6313897853590476,-16.54036184870861,-11.584840455615318,-3.2344312835641316,-11.60761453043675,-15.82206409882584,-7.971345252512385,-10.975109790257925,-15.561702591619554,-3.476085222557662,1.659455373241177,-9.558759867677495,-9.747533244681058,-0.758280099572576,-0.23483864523529485,6.416850629913402,18.051677706953893,6.235118184144185,-16.74175447060208,-21.32891275358664,-19.138058023562056,-17.900903355249767,-2.0987149202409094,12.087279399927091,2.2101659106224707,-10.229049820242146,-10.91907288857892,-15.324376806421535,-15.142535046183854,2.004724173173911,12.118235501634521,8.109135403187203,14.465430053313673,24.071551507063724,17.37985449981835,10.338370342644815,8.820871752400599,-2.8084777311251754,-8.119777498830304,9.352343672350635,22.45687703217122,19.918630077008366,22.73423052865806,23.155256911414632,6.93438322704127,-3.2256464196612327,-1.1396594276334127,-9.567566119610614,-18.161439322286114,-8.615099866005517,-1.5268359819321362,-3.453990920809925,6.705191646378495,17.72616420769581,11.353568653126354,8.254415617740914,14.936499091545183,9.786516238077716,2.8832829828742783,11.35688266269025,15.157363240014961,9.867420673786388,17.621467562342872,26.05822414123874,15.89122263240388,9.3249089608688,15.083192445686722,10.732254719552976,4.705513153267706,14.412033273884559,18.458949458588172,9.980178391776853,12.402859385618518,17.203617225857624,7.03026363113113,1.6616540886068623,5.990504843753229,-1.1552492676825437,-6.810144989199734,7.982532481990943,21.226378136136457,23.523178173578977,32.12361036344441,34.81708644828712,18.05769401723339,6.5993244414219525,6.200272877149948,-4.457951996090037,-11.66581956588432,3.1664166365262387,15.368633031603524,13.206560354684669,15.729932253000172,14.53117273689168,-1.1931403307051793,-4.0483670084149335,11.023163622223766,15.186466563562798,13.677568747103653,23.2103338393034,24.91006609059189,16.16081597274811,21.96245827365426,31.5410224823023,23.109579653868188,13.732998906850861,10.214057876219261,-3.681243967386844,-10.371002124777931,9.270499346210062,27.543143074354347,29.037772927595576,31.46996938677098,28.792886353846686,12.402503033907275,7.350087618016243,15.76395911389091,10.39700356131925,1.0378493353974778,7.990626846004748,13.396924539684484,11.652843772201503,20.884781898321894,26.87719457307248,13.573656075077448,6.2216355265245396,13.067783231277216,11.258469659645979,7.780536640860753,15.996460073407377,14.364850002415427,1.0455137910450913,2.437213687767274,8.352550989773652,-0.8168288533207493,-5.9030598827549206,-2.0580809170443533,-9.07554341298285,-12.860615766156059,1.8072619922131974,8.361182512977082,-0.5592779875551956,-0.3978694082925345,2.979106124518715,-3.9479247350857376,-2.8575606751402582,5.400227621225646,-3.714446424141409,-16.797667647661818,-10.71736946470768,-1.5252287880473314,3.0313928055839394,16.664338104792673,23.389522684404703,7.504953072818942,-5.065798806646951,-3.000295836769917,-5.56951115616374,-6.685399371578515,3.785511055006662,3.8914066957306406,-7.515949676349324,-5.11995571562654,0.8597821435402029,-8.025385788360337,-12.892435455781225,-8.948430671824354,-15.373901572235503,-18.561313925452826,-3.4931235053209697,4.226010640059679,-3.250792932238512,-3.5688374312078217,-3.7296057489624133,-15.730042123578478,-16.650796951165667,-3.94846544305823,-5.022632614879342,-12.579265720144734,-7.251103909127582,-4.19275752890868,-6.512546311134755,4.255412453728352,12.923515239914297,0.27783296830006066,-11.418446709279898,-12.025383380600843,-19.23757238726773,-22.543989006329255,-8.254065605722202,-0.010738340668873358,-3.4619598276226817,3.8873378543253514,11.533988464704928,2.824602714002108,-2.107990616050457,-0.30190158778757015,-13.180880633585307,-25.914863553220833,-19.086815437928763,-13.664008552809927,-15.407318948831438,-4.967303613417904,3.9610725827459294,-5.5072573456113965,-11.075362411938922,-6.081453716015791,-10.327844513948088,-12.863294796980915,-0.7758473268824355,0.9468210723284598,-10.659661728057815,-7.361881634304208,2.9623946908842718,1.2075382624118602,3.5267268741366826,10.699775896996162,1.7604122761193821,-7.095524018860486,2.6888989120714086,5.955738769753843,-5.252111962911807,-5.558710961691029,0.08232974903847978,-2.9242646206261877,2.57102538354567,13.763659090691645,4.4527920286555,-11.5486053905469,-11.850444264582928,-11.979148825362884,-14.47637299929616,-1.5630911955729418,10.537673572245984,4.01924429436921,0.19404966146305563,3.849032948366835,-4.927372417272181,-11.715668625699742,0.07565862403204449,6.076877953566621,0.14320280840897448,4.176469035156275,6.652684941816289,-7.245620412706193,-13.23375091537313,-6.747064698917946,-12.502118601556393,-20.609846345462593,-13.90691677803157,-12.29232538970506,-18.01040206851086,-7.529430093965436,6.314490668893918,3.3308098323943387,1.0698136275380412,2.5110196990971687,-11.15497116747817,-22.706380074214636,-11.90751519086404,-0.15802669928194746,4.9789483267885215,20.507846863255057,30.14937552703168,15.60397039807852,1.5107480295451774,-1.5800977448290596,-12.361578881446125,-21.307957311457244,-16.0329781281973,-19.20039455603031,-30.857140912373797,-22.86717089385263,-6.091452502792858,-4.019185855187166,-3.410463086989206,-0.7302726288287613,-11.520303442781838,-18.019728553858823,-3.362245903432534,7.312786628051787,7.245824301893611,18.998783216343497,31.50072517029733,26.247044753465715,22.599706306609136,26.133064074831932,18.576439532671195,13.378263163456538,23.072050553420574,20.465555864647136,1.7367496983395299,-4.5406666271617855,-3.759994593004352,-11.134326488810071,-9.580190485804607,-1.053883227642348,-9.831745391774287,-21.059978862467894,-13.60517483785535,-6.598871041499152,-5.152108783698254,9.279818329833969,20.46144387213978,9.279494799063613,-0.7536855902395618,0.3753391301533058,-4.905229019357924,-5.4434757978334485,11.809225187298342,22.467033345465232,20.254565643544215,25.753790386105553,26.961639598125984,9.98336981959184,1.8558716026207183,9.4159090670389,6.975606446391582,0.7004834225855507,3.9490532916885894,-1.641072145702252,-11.523086544618645,0.4125747929184893,16.74316941551239,13.064841748534835,8.046176583917848,9.221255794767083,0.13572029801994034,-6.079729355307754,2.982043508142511,3.0147369253081475,-7.633207594541556,-3.2985574182259687,5.297018326742817,0.40563708151328814,0.49193396872385486,7.562325594939683,1.3914389647797112,-4.525795694117928,3.4564988709447673,2.464712569241323,-7.888205190777924,-2.851050498052201,5.654453844409687,0.27437704511489125,-0.7986466360477367,3.475807957202397,-7.110773703966784,-18.16842794833848,-13.230931395692188,-11.36084745045095,-12.09212880072044,5.532570730847162,22.212944326562294,14.820495591008214,3.8377634105212612,-1.62303016966977,-15.614929443378797,-22.942558444213674,-12.250187542000479,-9.892691638579773,-16.88089923505918,-7.141203746313154,5.776781138969328,1.4398649691665528,-1.9833101382998473,-0.9442724911374845,-12.226358376033964,-18.4314151767463,-4.3641825458702606,4.5024766037491135,2.1334226394184004,8.811552534814652,12.474746988047961,-0.5319184369151513,-6.239352823235145,0.8493746923264291,-0.3907712813533468,-1.098327425814442,8.870561035722929,5.421134050348263,-11.622292219303437,-14.509914281223914,-11.57435399411915,-17.971680823511804,-14.509867530297498,-2.804654750268524,-6.980498658841791,-12.019472125620885,-0.843229198159861,2.3291222313693773,-6.091116887647416,-1.8384927264739988,3.707962214586912,-3.979926513187447,-1.3581507627040001,12.578926507036185,11.545019022875588,7.079557476262879,15.190592536033757,13.35706039611731,0.875194681202828,3.8381339718185434,10.569935795139893,3.376344923375351,1.8892447540044564,8.075149409770777,0.6014194199199845,-5.858161188926344,6.000075996541253,13.111748900392755,9.767458818061545,16.102364356303497,19.45646825402455,6.583112969271737,2.3335494986563066,10.478756682956785,7.524959673277302,1.8547898358170323,4.838818243966082,-3.158700188405362,-17.455271071269557,-11.951060227111775,-0.4863519565358039,-1.4562569804746008,2.1447598137622004,8.643325494147454,-1.9873648762554028,-12.187867565599305,-5.1243916561112774,-2.4646899903758674,-5.6801314005779435,5.475870007870652,14.593393852178439,6.069219255292367,3.0692311009698003,6.6813976201477905,-5.2592403322153976,-16.419397216766182,-9.783826852288431,-8.488212396797026,-14.520780938786626,-4.894375638481566,6.7463030898777525,3.6931961232194928,5.454969977725602,11.77818734990475,1.2585675643223784,-9.439384915348391,-0.5435438139292641,7.308867652334196,6.987697789028454,15.115074014278626,19.304368860431047,7.516082729584584,3.1512034221012253,9.162943916719868,3.5355598331397515,-3.346268073884259,1.4318404199547388,-2.5870991900395,-14.735934235695119,-11.952676570848976,-7.408926819562865,-16.250931995154115,-16.896467171252528,-8.057198146755198,-10.587557833945507,-10.69346127558018,3.1860187562294744,5.700688053852582,-3.883068496314359,-0.4346127583881447,5.663591726176254,0.2995800511248463,2.5113458603568892,10.250084996733944,1.1294385805367506,-9.564022398921052,-4.846143898367251,-4.906586155705524,-10.242383650830213,-0.17928521324788793,8.402687265098454,-2.072631146657965,-9.078607305092444,-7.1939229929514275,-13.198944379822814,-11.900404381721133,6.325961519728783,11.837210535097695,2.0236106327038987,3.9936758465569593,8.822766457296249,2.52652240617648,4.688884446391411,12.756308808520156,3.3655626929793865,-6.574695606869091,0.7458078373406529,1.941606088255291,-4.734331102245479,4.050404099860501,12.87899748353573,5.096193224687981,4.097816217782899,11.563060824489693,4.747572436153332,-2.6729227146333727,2.647580677587211,-2.231809270071161,-14.532244786922368,-8.129927379347183,2.5155641252299046,-1.0879155355483108,-1.1945936686589926,2.178762565748306,-7.739362762237877,-11.51544373050466,4.390571841978554,11.683082349272176,5.00871095446299,7.52529323284191,10.373874040063638,3.1738949044773244,6.6150412697311,14.819120207763271,2.3112647746999455,-12.709047685396342,-9.19540953325645,-6.859184234345409,-9.958729317403828,-2.037857173643473,2.4813513756914145,-6.337252462293798,-3.7984428343064773,8.164323956196391,3.7386956197090897,-4.2536947099250915,-0.008387713073895853,-2.6823135385394465,-10.922306770882008,-4.886448863140387,-0.3282504900166793,-8.395300763822071,-4.787716924084006,7.02601107978731,1.0687889036407632,-8.089444007688028,-3.7786418390244125,-4.587674908721766,-8.668736448320358,1.9239900899958258,8.101522386811107,-3.3729911710382625,-6.6330564509035055,0.5511014501703517,-4.490228833277941,-10.656767734903436,-5.485234990824974,-7.650613928415372,-12.372253073645092,1.4668359717091368,13.804350261352447,6.544756912313706,2.6718474789410545,6.780581429989183,2.0886552203767197,3.263156322355272,19.696311373407664,26.597573780298802,27.925880153933182,52.47471245298446,88.96727077259816,120.39194191243386,161.20669329623385,200.92971617510537,210.1530256502674,202.27497292945628,195.47507455373616,176.6066045761096,155.3493667187792,154.8036907452949,152.19475788023348,123.83149851311484,91.2551687652327,64.00411339054995,30.254834831711435,6.284195958548985,-2.781531017557189,-29.47845922079719,-70.2788552476337,-90.14092692645158,-96.66427080075786,-108.88629192011018,-117.5125923031635,-131.25331250796552,-164.35942433790441,-187.41048685309318,-182.2587743700138,-177.5776599470461,-181.09185374279417,-176.55323584780746,-177.1428546191692,-188.40784492844477,-183.60932031428607,-167.58358756361753,-166.91182501677736,-168.01650282131865,-158.74139825013023,-158.86144145347205,-158.8775948949878,-133.97394640855646,-106.42246774553914,-99.27280324319047,-96.91767857160725,-99.59860348322991,-117.75562644613333,-124.88820511487113,-106.19908153645878,-88.15152601405869,-74.56941617480932,-49.42485325470638,-31.411661597469887,-34.652291636751094,-36.226713909048165,-34.007115780871985,-43.61920602912118,-45.23672300771806,-25.333447844615428,-9.338324393543395,-1.478366310615625,13.539517647514842,17.792143701072813,1.6821594675416094,-4.458254695403989,5.561744856520281,11.023549545914946,19.24719143897827,34.632904144270896,35.13979914258104,29.040109897192462,41.58119008743826,54.87028764689158,51.36926141442237,51.58385341617854,56.97836298955753,51.688874854312154,51.69542521179517,63.47139323544176,60.67328862687742,49.316879890200184,56.99905695807899,68.42264402320552,66.24708935560544,69.10230584221364,74.61972770449907,64.2966770736198,57.53347541850978,66.49664985075724,65.36009737159677,56.96938125582628,66.84101143503695,79.8268574762235,78.83672747511369,80.67425642185778,81.97741344853337,66.217751434266,56.024729201360664,67.22259772997202,74.03173795992208,72.48633765924713,81.62429611213811,87.03806661866723,77.1132656773373,74.19971137566016,76.59251144748755,63.45603393479318,51.32901211942148,55.134751169674004,54.0401168413951,48.6481491075005,57.45569614199739,62.150672589240855,48.91891539643012,41.73436632815208,43.174453294525804,36.51132756941429,36.11615291832178,47.51638871436251,44.12519556792702,31.0969758691486,35.57007544758219,44.9527751023107,43.9877641294722,47.245761192453664,47.73593441277532,28.520345850221048,13.567714452549797,19.242764889673552,21.52474713804949,18.86363059755702,29.877087230933988,37.214482819310035,27.40262971130857,23.475609422647292,25.673118563349554,16.767590309987362,15.091469459109618,29.24882052523774,28.3597620272865,10.036609100283204,0.833827196421485,-5.249830034182215,-15.884630457628342,-11.235815110105259,-0.8047374099094036,-10.284009988209485,-19.646001906334938,-10.538423739938509,-5.04965617366665,-4.353026472249406,9.03198120650962,17.940818903620645,11.39287052905265,12.198756624791374,16.187457639284766,1.7867301428194224,-11.886599673120209,-9.172937535736848,-12.632726070485566,-22.736639382400284,-20.370144146797287,-19.598565050411743,-28.414746990905865,-23.343060615687932,-10.835945365157365,-16.705449015619713,-26.51809918256961,-26.31814013293625,-33.81044592388777,-41.60683107890205,-28.526179285353507,-14.922805572019103,-17.290222988960927,-15.792107382997543,-12.607422055271284,-24.389096295933065,-31.26497881431455,-21.79602112160178,-19.998932477485322,-24.082630866022694,-14.565643477214232,-8.494939048966616,-18.492813638056656,-23.72224228158969,-26.461195198003225,-42.93072761691448,-51.82596623752782,-40.50380618938261,-34.08379049313816,-33.395883034585026,-21.826441522124274,-17.1326733277418,-27.246785914389356,-25.011461722926327,-13.408404096437309,-17.388217552758316,-23.79162631621337,-20.68511844445237,-26.814429781432192,-34.232675142784615,-22.105692328624038,-11.987726282046996,-19.286364047068172,-21.38811245056011,-19.154801412185368,-30.30132189108639,-36.91254827957073,-29.189365168122343,-30.50727204723419,-35.47746890184982,-23.165714224689207,-12.758080016774278,-17.34163055569305,-15.562774893451074,-10.962939551207887,-20.33636189414606,-23.541502689964666,-11.774817537972694,-12.380720239552954,-23.799808996671214,-24.1441263429333,-25.28317010902396,-32.32309467102784,-22.737686126345658,-6.5248473828744835,-9.460512386532548,-15.974452752938177,-13.200228687577543,-20.020010428220964,-29.46688551088587,-20.22496315900707,-10.388209844563946,-12.406773463447333,-5.140872370235633,5.525056691207062,-1.9996660718166774,-10.198311364606303,-7.50580456734696,-14.988949733402219,-24.810994741599494,-13.728845588059666,-0.2888766309906896,0.1041661698245191,3.752452109459978,2.2050182638832876,-20.216378352996855,-34.68636694474823,-24.025010019447816,-14.2789418036545,-8.878713140395474,5.173388209938723,7.815495150959242,-6.722935569104772,-8.527292319431133,0.148870136143203,-3.7301566882986017,-6.1257818872835195,1.327175512791852,-3.3639158943137537,-12.091177993004054,-2.328110381695164,7.46270047261381,3.5025432113133865,4.111265408262781,3.483106896550719,-13.61899418066577,-22.78230003008189,-11.455602426547257,-5.39257356766843,-4.373767562106283,7.8677559223875715,12.078356701206918,0.20722507511055177,-1.6138878547109234,3.0320291152055363,-5.184232954353185,-7.393533282110774,4.724361833065107,4.592260446918848,-3.8073946107344794,0.9885914408335466,2.8985144404232677,-5.695090303247047,-1.112975165600095,9.143324178412703,3.101814479340261,-0.5827919932757448,8.587820811195945,7.7788715049349495,3.4003780418559884,15.229792544075734,22.891765542238783,16.01599233168023,18.426357733032972,24.605175833990586,14.30758713268456,5.485847038865925,7.957820170059122,1.158313840528994,-6.063304460837909,6.438883562106045,16.809725784431446,11.226781111341122,11.201314211484089,12.951171920652301,-0.36599204849964373,-8.262663071358956,-0.07413879423662895,1.443342228191425,0.8608434296839873,16.072913272298603,26.818139584096137,22.011291987487915,23.996593874487132,27.538945353106676,13.679723388335145,1.8740562836106567,2.9634488371644627,-4.186436361792555,-11.523664484280157,1.3040185183836268,13.113832836509813,10.494097827499143,13.904048050406546,17.161068875051317,3.43539912815108,-3.1146334715310524,8.961935498895693,12.554307262273115,9.255773415156074,17.527544028291025,20.02036198452943,10.158538543686044,12.40594335411544,20.389869660393067,13.448121358365313,8.800234751466178,15.453789890507784,11.396301041177423,2.617311745480774,8.586048062293376,12.088854358034837,4.740485293535604,8.607457305786568,17.22819707728376,11.12144351325972,7.313625287892927,12.824446136869538,5.643897733975806,-4.5934196497556705,3.6033663385841583,10.663630450479811,4.998851983689217,6.710306482055654,8.609605151954828,-5.711896608212315,-11.8970945575219,1.3594456990649268,7.791011731276807,9.119079957352167,21.978903831431246,26.671631165216578,15.85392349812202,15.095488324179597,18.410296783563464,5.118534768124734,-5.785997507454476,-3.0752483081606075,-6.161002161064712,-6.893131775651915,10.820265380650437,21.743366995758436,12.4319655841078,5.6728385042979745,-0.6629068068984658,-18.66773075092489,-23.23805206492868,-6.025968174723977,3.089554992321867,3.50292942057229,10.917353846871974,7.888484534818934,-7.632776651167288,-6.865715191713542,2.5601383303934915,-3.4070053987706057,-7.665736377922804,0.4142199356370657,0.1806084468884095,-2.7861883607764644,6.429300876249905,6.688426184271648,-7.264749675811329,-7.392050884274379,1.190039544009538,-4.0308850388947235,-9.081696418257986,-6.989064509053788,-16.512538525539874,-25.177764880506203,-12.08934595474763,0.8094427276425553,-0.7167107021604746,1.601413913207331,2.5632637419700792,-10.431713646999016,-13.559278597393467,0.827118685553641,4.44384936107954,-1.3234347565759834,2.6585850531642405,2.7597457136343406,-5.613551210152223,-1.3656737641420484,5.260188230918635,-5.430074289265279,-12.04402225208452,-3.375596627288342,-2.214220967267151,-4.470094839239433,5.44449968908393,6.65976058702468,-6.7931385557705255,-7.609821493496453,-0.5798677930221996,-4.3161820918691145,-1.4115755350465449,10.377140094823009,3.8009634710802658,-10.496830308355118,-7.546588993257444,-4.0069603869607455,-7.899291592662421,1.204704888571393,12.284190443615186,5.041575934468419,-0.36345567875057705,5.1021831001885944,-0.9331862433459177,-10.527709209770414,-3.603371433606596,0.9310095953362363,-5.634257131182217,-0.6318562527959459,8.967631537006886,3.764752625140722,1.0782873694215198,7.021149042458226,-0.15475374181690338,-9.75517130436479,-1.642774823000328,3.4745595874187143,-3.886218935873931,-1.672945283696627,3.872205690047408,-3.444136777478661,-4.561049135516215,4.714093494750774,-0.3745449964616694,-10.225885921764176,-2.780301335762908,4.24860463971232,2.1638416192500594,9.4393273675797,13.976531345916225,-1.5521275904695981,-12.551521667739198,-8.564047876939458,-10.971024481552792,-11.294810474492508,5.1210053970634455,12.861168025347167,2.960921113352649,-0.8568092780227907,-4.4163973825010725,-20.35037959232082,-24.207749903107917,-10.23111200312444,-5.851942041037458,-6.824865245170358,2.9921744884294954,4.8600338757357155,-4.405154245602389,0.4979364857203792,10.804702251517282,6.310020118007096,3.97985390482967,9.056660880744603,-5.4906380393415715,-49.56639813896447,-115.21973487154447,-186.0267523410031,-226.5668930464828,-216.58506938233108,-172.0238346114407,-124.9591132390016,-108.82223030964184,-122.60577066463586,-125.14542141789062,-106.7826147342485,-96.71282894765591,-93.16568592663397,-80.54459442338734,-72.28865818869124,-66.4968125967624,-45.27005511922715,-31.014200552912364,-42.79632220736866,-47.53544915192998,-31.076823025763563,-20.74890742677425,-14.786589724116007,1.549686047137289,8.823250226414281,4.684364347526419,16.145192152619575,33.03067351285923,31.638006273871753,29.09723547422984,34.021219650537894,35.35171202544133,63.58156616228803,141.57648220207878,222.4365024133611,266.3970133035547,275.817130870488,244.38270131678888,187.08007805763225,159.19128469962692,169.78839222325047,176.00015162162353,171.83153590036162,173.1340995399153,166.60348527645223,154.05545985468845,157.1649038405795,158.86466402886094,138.10171171992252,118.45702537487699,110.8413357293223,96.23774886541126,84.98049113342846,92.69634075428449,95.35843924910216,83.85766608461233,79.88315928230452,76.31645244069388,60.472851263344964,54.98849404478087,61.22664957592161,50.76329333013574,33.65454237856663,33.27294440164742,34.39744029829796,31.995077179124642,43.36724274623685,50.54846254344188,32.68635667145947,15.070243778433802,9.992969237735446,-2.2601277720536004,-12.293940000134725,-4.968245676271069,-2.3440018085381493,-9.537834489571965,-6.208635021159814,-5.848267547078161,-23.460313195711038,-32.230728482965276,-23.781112343433847,-22.33145982239204,-23.799861494287065,-17.902592404372843,-25.01168774899387,-41.97646459997719,-39.12339265728331,-26.729338132517753,-27.67235655981999,-28.37656806826906,-27.671420212661836,-45.21937236725505,-63.166707451008435,-58.794444424609296,-53.0345040341155,-55.19184177098811,-46.99006026207506,-40.38085993124313,-51.22493278406531,-56.12443428995138,-49.03142210906134,-53.36031415309928,-59.498700443177334,-51.175862563389444,-49.815728644688846,-59.738034714212944,-57.45385288553683,-51.636883925047655,-57.543741821868736,-55.58596942288078,-43.86010989391511,-47.17376519359141,-55.58785024388074,-49.44158641134652,-46.14087469142483,-50.229400931598256,-41.76603607620686,-33.56008587503892,-43.173830897269355,-49.85186062987056,-48.33529560387936,-58.98166981867216,-68.34728901873859,-57.247402450998926,-46.6415012714468,-45.94297001814696,-39.82220748335158,-40.62585148683302,-58.54242245248522,-65.41768151253831,-55.18723484977323,-52.7847950010174,-51.678466379497344,-38.63526184049015,-34.293783082989975,-41.523106318621274,-38.8378683121356,-37.59938915629251,-51.749472636158636,-56.97166204906054,-47.493696321748885,-46.787139092447276,-47.054785395285016,-34.968980282983,-32.918721841359115,-42.7787288255776,-37.42722985307441,-26.254624243639782,-29.458624315520822,-30.45777782849619,-25.620140446388714,-33.743914548924074,-39.55536403641108,-25.998765898892056,-18.154530405243527,-24.10288581521484,-20.835403991102016,-15.106694419402611,-20.75829118846097,-19.879724490905325,-12.935648124633317,-20.517523375620527,-25.59980550788476,-10.092381004568884,0.5112882597845751,-3.9716432722048722,-4.624537730619933,-8.902899195091848,-23.602531305737134,-22.18752619215812,-4.856312454322926,-2.0149944317500292,-7.8088510170147245,-5.3668074706241455,-9.444636491879358,-17.289858126486823,-6.152627048502924,7.8804895535166555,4.1520124559838445,1.9775878856221845,6.216188830647537,-1.3658141620377706,-6.602888769233843,5.296403418621166,10.902569427952004,5.99478209464779,11.803481804188442,15.478433182181977,2.8002049093738854,-1.053192052973856,8.950399312068402,9.330131761316537,8.576281828713974,18.643793371649195,17.68059229395952,6.761413322834967,11.524218150614766,18.473291620527345,8.954265175142254,5.119819608421436,12.76849960730872,11.615998712222261,13.647249695124003,30.489203467713043,35.4088705674087,25.769244373066286,27.374279885660272,29.609589747568272,17.70865530694767,14.136742153323953,20.53457212898438,13.861289510535547,7.234013768168324,15.634921234165018,17.02095377072021,11.485138408811661,22.291267523084176,33.63482353127058,27.073468714841187,24.04984323756147,28.056515398632936,19.870005990811904,14.999252218027138,27.138598927431367,30.259609251198015,20.716965360806345,23.055939374745403,27.82828665319358,20.149814525382226,19.16237304093627,24.971477383223025,16.270299913702654,8.709432329572994,18.889920512921673,23.067608091738222,16.831075719878168,22.00262767942316,27.375988263749207,19.683677646639197,20.13535520367229,28.65704978550464,23.400726854277238,18.675319691107173,29.060168504773195,30.934385527322767,21.29934888355175,22.851562427161785,24.79741403415132,13.807796463327943,11.38342025366676,18.895409002634004,15.52407269023534,14.535885524296845,28.539598753758927,32.691254218223946,23.75410475183196,25.251270021061366,27.553323850547777,17.622773395705384,16.554472184780305,24.089001355794377,16.893998258136868,8.310595244991854,14.201979224679016,13.700030460832687,6.223512354269855,13.696690934625463,21.92286389091689,15.857076465134362,16.80983180122972,24.01431873841966,15.02530887611159,5.230421307756376,10.198352638917367,8.841014330401585,2.098472485237815,10.500814219437723,15.94002833319922,3.3774780767829475,-1.4647773370211334,3.8868651486217076,-2.9808778530546145,-7.634018626518072,3.5900678643637827,5.973154915436327,-1.2055067045706376,5.312867302852871,10.01694370408961,-3.2783525667929094,-10.455375825469089,-7.661977857576083,-14.753957124408371,-16.27929895991266,0.8109323618762154,9.284522167339817,3.6872343560007983,5.462367210418502,5.164981180859332,-6.089297342070408,-4.374430664538902,8.931367857205892,7.693298136146389,1.216831659833233,2.943329573273897,-4.83894272544476,-17.009086589452,-8.874615802783927,4.009447145416132,2.5607040757758814,3.9079803437911784,6.986818188490676,-6.048853429170944,-14.772091764522559,-1.7282969830597583,9.902926984545642,16.811688258819473,40.204438135192866,69.39304479193954,92.83931093501741,131.87837355168685,182.5837904751069,212.45538307488096,225.3433778614056,235.4679486662327,225.97613378195894,201.02480933749902,188.47474675529048,178.69101900487175,155.63514059251298,138.81093823710285,129.30437778682466,104.51843838363854,76.3231875249434,59.12602852696101,31.649555434864794,-5.859997966086997,-28.455649502127027,-46.83654155307834,-76.58920799133249,-100.94293059948421,-122.23918433060079,-157.63822089450542,-183.33897561786438,-179.17608104473413,-172.75269168349044,-177.51917736931858,-179.80399636209003,-190.74354458056288,-215.07661735177558,-223.98979769506255,-217.83390643012171,-222.27612530655458,-224.8613819751912,-211.24155667462364,-204.37717751585242,-206.96758064100652,-199.00167656987136,-193.1412028328646,-198.08427700778333,-189.03168170037793,-171.2652096549232,-171.43065537749973,-171.63744923197297,-153.18158797852544,-138.73776203365017,-130.51499575495228,-110.12081377153373,-96.57493034048142,-101.86520498641596,-95.24638057394085,-74.24477689599513,-66.22316434039949,-61.572362398395796,-48.38402616970538,-47.56116533481628,-53.1577418802994,-39.41567399856845,-21.884244222142435,-17.33501092221566,-8.057932471152832,2.940237465299584,-2.590589490044359,-5.820802116767903,7.027755732090779,13.886863511445501,15.781169740369076,31.392691189427666,43.458189067754404,38.94037437154068,39.45836083626882,44.874619487043226,38.874215207322685,40.09666209850344,60.04650757298522,72.1101886300244,72.04356984447648,78.89764289775393,81.656331787544,72.14331543148597,72.90001658052961,80.18979202261916,71.42646645868837,63.61078105350698,71.04947148792075,70.79506059900207,64.32861649170256,72.50639796259662,78.69005868722893,70.3850643922543,69.63905314099225,73.87309067933053,64.79068682280369,63.185451752478215,82.1064559416999,92.83154032382086,90.20072024022825,94.00652777421897,92.71800338196415,78.6091303723387,75.93784528547621,82.10079251473232,74.98727055194243,70.05151813960977,79.02913172990938,77.52440246253204,66.27326908603358,67.58384627971796,68.05803295229806,56.44481816590908,54.490262721817835,59.377173451955954,51.353454773295624,48.59374351060731,62.19109873702779,63.97614205544538,52.97926674940716,53.60256562032518,54.53073674278959,45.691248675370495,49.68630774207156,61.50395225730459,57.077578781971546,52.93418297486508,61.731041074678416,57.771777768105494,41.72055558645653,37.88279066540573,33.941801308402916,19.530895618554048,18.8650060402651,28.632355573002208,23.75405568682782,18.99991286171329,27.119091658823283,24.232634198121026,13.256849031269736,18.17051718418102,23.896924794373554,17.462265214474943,19.69237625019438,26.266596400219612,16.923259255692514,9.564070953788379,16.619399391886557,16.28268276171341,10.385683952898447,16.076249643090566,16.218985194053882,2.442869354254984,-0.4439420340035949,4.766576918956142,-2.5376113936442364,-6.323619915665869,3.3957958270721567,3.1972424237213217,-3.8821995684905044,1.089875561115949,1.760500545644987,-7.921571380280019,-2.246272764703429,11.33991767917791,5.006233485214414,-9.384749374905622,-18.61906095389179,-37.15959839158727,-53.164234708875895,-42.787994143036954,-26.478301686609736,-22.138217419144716,-11.622317300157235,-1.2052364708480394,-12.357888093613354,-24.71980868076165,-22.224569128935556,-26.11199000871085,-34.1494427128638,-26.899706226998056,-20.36815655041401,-23.780644324606065,-14.375788554783693,0.624157586519229,-5.670192573203735,-20.32579252917498,-27.748238936138293,-40.139898411453025,-47.143702820715966,-30.357307520492824,-15.543380357151637,-22.51286684176985,-29.31826850701022,-32.47827533882218,-44.48995873664429,-45.92734411675778,-30.79362840770864,-28.386090102998292,-35.60611042464669,-28.649958578593775,-22.236716473015186,-26.498054129098136,-19.97004411435516,-9.884396683807761,-18.316695423118105,-26.357899521179014,-21.338515977056943,-25.838990143517762,-35.63555626194825,-30.282289844163827,-26.929913273883763,-34.84680705574016,-30.811084988798747,-22.248254417626878,-33.2576095424924,-45.212781384773606,-41.51846284624908,-40.27615962276951,-37.97477353648851,-20.755161185909934,-13.577376139144853,-28.032155120741184,-34.13841870391321,-29.22155755199543,-33.68613959475337,-34.04954750163627,-22.64129027327574,-23.33216435624761,-30.352051085192286,-21.120928938740597,-13.587937034185774,-21.095594382598584,-22.233154477974693,-19.501140669243856,-29.59827259536804,-32.775924250276255,-19.147327071401094,-14.957855013630308,-19.179935367307973,-12.411444992777298,-10.85893573760855,-21.734084019354,-19.200731183348697,-8.316398833043898,-11.52728643332885,-12.973719092079644,-5.009469707265253,-11.92714067278871,-25.787085076203823,-22.43838245966843,-17.918406548694332,-21.11074193206733,-10.605102798554817,3.781278138315123,-0.7227220539419434,-7.023711188908347,-5.573563789861594,-14.53493535538865,-21.646606798892442,-6.561734004363551,7.189217391409785,4.234012482109247,4.407565441054203,4.353781944183272,-9.596868520651824,-14.853102584034875,-2.1098239784619874,2.7882367698809056,2.8135230870640373,16.569510110345878,24.412831541053944,14.377162857195016,9.340371351697403,7.646906854047213,-6.443991087628819,-12.459169876387282,-1.2592830198445393,0.0377923622931966,-6.869559419300634,-1.619442828225297,1.0018367279566724,-5.423437954594589,2.158029085342731,14.637173246413658,7.933529659800345,-0.7452362641212416,1.6192865236479923,-2.350983118798845,-4.2466360834281724,12.848215020012216,24.441538479575573,16.34346228185499,11.481625126586424,8.573948523779112,-6.285232007353417,-11.626557130060727,-0.05242835403407664,1.5098253324863973,-3.0547028210477354,5.790621970742139,9.83288430474552,0.22740479562799187,0.6642178205717599,5.894285743936726,-3.0509426805275153,-6.672423312578657,3.788477175412301,3.0872460174851115,-3.140355504961539,6.668882811565025,14.501946630904744,10.119995362817196,14.857125646518117,19.840229404711863,4.342364907938891,-9.04121165648191,-5.61666161365756,-6.2693757580491365,-6.313551571790614,9.706444093953126,18.286906697476628,9.389641175840161,9.522746465427517,15.500672783654082,7.3340954177751225,2.7742501004342364,11.899810358800247,12.660635546649061,10.189346696493773,21.054975355162007,23.317675093790662,8.389531115261917,5.190965330828921,13.539573704201155,13.92601105638802,19.304081406751134,31.219059762138375,23.43540696990005,6.095844135049628,5.009272491067574,5.355039956105289,-1.0311058820994017,5.970141645085418,15.471049396113274,5.889506895606608,-3.0940688122481346,0.27072396296914336,-3.1430166703298648,-4.880165637275878,12.813300735463827,27.06753148334547,25.419549848275466,28.851814828330774,30.89335492806957,14.940811744338674,3.9275134922015154,8.479745278746172,5.378664531888564,1.1707071519753682,13.997303415100935,21.89603629985755,14.849084092844382,15.70034098908686,16.81365084289711,0.6036887958978596,-8.898468872297807,-0.08251356854149972,2.5263854865962716,1.2857545020710708,11.630707443840343,14.274383200768503,3.5070990271126257,4.897997500806941,12.19907063080897,5.19309943749763,1.4044072236007537,9.182219423892953,7.235554211684226,2.838521300142235,12.669984393342036,15.240376098744687,3.7889947125471783,4.6777792341348325,11.31821986852275,2.95088495747869,-2.828297484012059,1.7913815407245006,-3.337643659431216,-7.7655805715983695,5.8320566464635455,12.148175933352658,-0.7635069462715229,-6.710275780068751,-5.6658727208592365,-13.120401519314404,-11.964030636750278,2.368768273844263,4.461199901630123,0.6828856223668951,10.088739719348787,13.153752806828876,3.116404735826411,5.334800584137755,13.063506756424001,7.009694955414682,5.251678592806529,13.309645873135985,9.344464027503975,4.282214826128412,15.55688563694243,19.840779298535132,9.210089853702904,7.759323968091299,7.880426994488187,-7.804947799066748,-16.514298956680808,-8.608567364507584,-8.10114535121338,-10.183833549594137,0.08086933920401584,1.4717234807630635,-9.643567519097518,-5.095162176104985,7.207774898760491,3.9572344683319445,0.7695678338811118,4.825229115701127,-2.79489392746245,-9.515318657891036,2.0773133045231207,7.948878915860612,0.522668142714843,4.174078950095218,10.875018865400072,2.4733749937208103,-2.2155818258548474,1.9236951797316646,-7.136330642038445,-18.505794509640587,-12.63091712672262,-9.027238920398974,-13.845661088886287,-4.058948360173078,8.759257660535356,0.9120725579527162,-9.225985371184642,-9.347298410240956,-14.413816975708942,-12.685231237443578,8.921865304262685,20.100081609214726,8.150804828343395,0.9659967181891567,0.9146531002180983,-4.945787050090805,-2.227674858717148,6.722570798217914,-3.2209320981770793,-18.005195567010873,-12.504007436953064,-3.762404888349782,-1.8372034616627468,8.683010288668967,14.554591578038664,0.03455569960770788,-9.913784633932895,-6.032346960388062,-9.815207224626421,-12.631030546355772,-0.3120096180175116,3.1223892604324295,-7.457483014441612,-6.441501285612155,-2.5312999729388146,-13.305203725112847,-17.70509992579417,-9.44121071509812,-11.192298584075703,-14.161399229133751,-2.8875928447496726,-0.22759177502945838,-10.866131807710468,-7.925556614689665,0.48930474900002574,-5.721654586477403,-8.502409187004435,-2.3283756756619174,-7.952053021257989,-12.3577624926566,3.2367768655914864,14.913943734855158,12.022845197899775,14.649117132557706,13.861459583302326,-3.5872524634709517,-12.247301261846225,-6.083199731486741,-10.686452118795149,-17.928030924517458,-10.101741241153501,-5.943071983945378,-9.371478300705599,0.20513931656062745,8.875086415415966,-2.350096681084824,-10.77767601856689,-7.005755385649363,-11.193538022640777,-13.735787045457586,0.4578204513789492,7.43213588826987,0.08007584186748762,2.48414901642526,7.185253973696415,-1.5131643502689727,-3.1747835836252443,5.54535187406352,0.03886972095459873,-9.805873038489652,-4.555152061167081,-2.910487316984469,-10.15396832643205,-4.059208755165214,4.5703451334139995,-2.8683209786981245,-5.719618132420253,2.4026571884644756,-0.25770991997640413,-3.754773997772476,7.178237327796278,9.68293879358473,-0.5660935357294994,2.5816868908734203,11.412358987370215,6.705791445023721,4.299172537374773,7.310254533720984,-3.7973390286522024,-13.18953919817749,-0.5268063904549729,9.07848390688197,2.8633223572277724,2.171044468667362,1.8872034310154744,-10.65527634914141,-14.188486341400111,-6.3109000359892775,-11.949611361703667,-19.28328920275301,-7.784333522978355,1.8996797107292942,0.9537626925130342,7.265215068805622,9.194401703568007,-5.631929978330053,-10.945320375341092,-2.181334590637067,-5.27345218627506,-12.07201774206101,-6.8356516212157405,-8.014097240563606,-14.532699875958569,-2.4248294346974832,12.506071131574437,8.161208786340373,4.1308974202508475,6.679943028297367,-3.208218135565083,-12.08220518928815,-3.8426453752616387,-0.8777963357689839,-6.0613232296231585,4.384845442617209,16.263440496636353,7.906344497445058,-0.30975651862852405,0.00480563577133708,-8.76452606649272,-13.368496694963476,0.3452148413534495,6.102661538845542,-2.3108727562735587,-0.08025792290082334,4.007614744632431,-6.662895544368451,-10.630835225034911,-1.8193694751244718,-3.008584726741817,-6.434295689204639,2.376599100466777,2.5375468152553404,-8.617043111755647,-5.993933616428197,1.2784368189928812,-4.064783054307904,-3.0114471330012407,6.727010780975178,1.5567054651570267,-6.90710885084081,-0.14696805851058237,3.0913280622910584,0.14630385323618977,11.03106595091425,19.738701250064068,8.511647075719218,1.3654106040851444,4.924188595138478,-2.2737974117628115,-8.921538633839464,1.318766435027297,7.215785494724952,3.258121617996496,9.227286002277914,12.784183348628186,-0.9172097775690586,-5.887189487509396,5.532770770678831,8.145273275253349,7.626161147280463,17.3163258918765,16.89152637378738,6.631380501713911,11.764142903799495,19.300882678344205,9.763172804196032,4.035861889361405,8.237750396666076,1.6066295332284026,-5.1508151990896796,2.4753612014680595,2.616302825899593,-7.162720707517494,-2.266238517855878,7.419358941836525,4.401999169582717,5.664089729885576,11.693025220031702,1.9343607193480796,-8.376484064005401,-1.0146592817773037,3.6639294264116318,0.2562800973313242,7.057729507113129,12.113194148030313,2.6727220565445675,2.00622546512616,12.592179625427548,9.815717164363743,3.918929678929634,11.373053873541735,11.576325450599503,0.9834763006918816,1.9967652067351538,4.58952745938727,-4.836588625441998,-3.494782333094334,10.201026811769832,9.07904509031535,2.3732356387248257,8.308845724677363,8.262580764696647,-0.5535137916737445,2.3324253179865875,3.329202685007644,-11.083311094528234,-14.077067576549066,-0.540065984259253,3.091601781964485,2.4914935736689423,10.765266096428116,9.112765090639014,-0.8028638858010297,4.978660313854135,11.489063593498743,-0.6336201102495025,-8.792433660833565,-5.813518587272636,-12.109736498262382,-16.543053433038367,-5.204983170782427,-1.551406139089287,-8.384793779218494,-1.6616086177653995,6.597908770555807,-0.7172611500542452,-2.1649230113652798,6.015482949419578,1.9566606171963348,-2.309944165491137,7.221566019060527,6.055646355999392,-8.50433279770641,-10.010211060533639,-6.862135461374477,-13.571235435016158,-10.220757942984843,1.0972237710158366,-5.041873336441556,-13.708801277997235,-5.841681436181365,-2.894503363568258,-8.340479769039362,-1.3168806074815396,4.309622721321934,-6.1859031340118085,-9.609933711981299,-2.7791067508427627,-6.882090437031831,-9.355008697212444,2.8120930250936347,5.337091278568768,-3.7323540591599746,0.639628493587558,8.775081081204275,5.830415194769183,9.80651752149185,18.324285948606832,8.56491236638316,-3.610973105023451,0.9745310053953067,1.8504731263922989,-5.3890789606078915,-1.4424204925937332,0.3628697365157306,-13.144035470009833,-16.688879781437038,-6.274948505926475,-5.962062317428295,-7.432415716192853,0.9594090581944297,-1.9149287130599786,-13.674699176945428,-8.396116075775334,1.3575185921099346,-2.4589317624488056,-1.584911392206938,4.58284253584086,-4.748909626870775,-13.524710629299065,-3.955610694630344,1.4486588894273689,-1.8859109146958515,5.121310670973342,6.432592432907896,-11.325579024114568,-18.962064503942884,-10.227918672122602,-9.057879168864613,-6.992211239064346,5.942921080297325,7.0493274131768136,-0.2973163087896822,8.728882624514108,17.23129408524575,6.687947797337339,0.4402821188141642,3.832937283437463,-2.4065324173867797,-5.025838750580597,6.931512414338307,6.905454825335644,-6.624777747809486,-7.205739229416337,-3.8584825295994487,-10.472083346429235,-6.8639582061634385,5.199402279693926,-0.58834219099331,-12.744634066285471,-11.628196672335713,-11.884158313554664,-13.517306131690601,0.22565022671403767,8.89413651076683,-5.319204524654738,-14.807428604289639,-9.29631039108621,-8.061719723563934,-2.032568025944615,16.283987264173348,20.68845734949766,12.757647401702881,19.776436504386,30.882655876707595,33.04343176117149,50.52160305705121,84.86510800082839,111.19183723930621,137.81130996142082,173.59630593039643,194.6508919388168,201.9519278004739,217.27871107888913,225.21769680213748,211.40572965909203,197.489948899924,183.92477151466903,151.78705739804627,119.01962629713674,103.31637738916972,85.91417723109087,65.41508103723957,56.31427995089717,38.730906200875694,0.34237929758524466,-31.51449830223331,-52.92907666084399,-83.61593109742768,-108.01015315502359,-111.74738624135745,-118.64069371242765,-133.4598689557534,-140.50791372407804,-155.40256800468575,-184.8288549270162,-197.7118054312931,-193.86631783288576,-203.86248733532523,-220.33925363502308,-225.99265331000217,-233.8320237247944,-238.18801291425962,-218.27887158991334,-194.9768728266298,-190.4714356272024,-186.6341778121921,-181.46136986078818,-191.56169758331748,-196.00467633439146,-175.4062083493816,-153.35330259756458,-138.36959777155394,-116.62579828315762,-103.87633798345675,-110.21488978147762,-109.56896282293593,-100.67112191055426,-104.1794382672145,-102.61356419259454,-79.91959711886103,-61.026652728370536,-51.96234646173146,-35.31167223611695,-24.88346970370116,-30.10697989234615,-25.781125505507752,-13.961282639372875,-18.333851653295667,-20.527759193790832,-1.9686035757876041,12.85306442020972,18.21933851321124,32.625436373547146,39.63638933732833,25.633286117160864,19.46491232386585,28.110092230477846,29.8946866892174,36.36381897096375,57.980769603976825,65.9268529748037,56.978691413581274,59.55088236879129,67.51587175630894,67.69770086838938,77.71662184670178,92.07610564944734,85.42239812724459,72.29107985812055,69.95730796896146,61.64037314039312,51.8018193269476,62.815595900585585,78.25809514200567,80.04013216525209,85.51899761393358,93.70952396900911,86.35044933230327,82.00302807595969,95.428719184163,101.07668374494838,94.72250380819168,94.75404927995326,87.04243051838156,66.58905791779571,66.60577196025707,87.13943979034894,96.13170394997371,96.22527256109706,95.48286807249245,78.14466237318595,58.37534692286617,64.44531618066524,76.45548394208882,72.61547720501265,72.3880143885099,77.9841739645839,70.52163028984782,63.72365134960296,68.77426810143598,63.94398347851103,52.87704690377389,59.15953217968652,66.8511745032361,59.43189182049343,57.72589604939627,61.761010537674935,50.664950716554245,40.13397142598522,44.59584060492312,42.05280814945286,33.743359605369776,41.62783889392436,49.262305426941545,41.294813996693826,39.94204803281514,44.13539846144973,31.978309753852447,21.792219789075375,31.381240628156867,38.08886942557945,37.788733572458135,45.45043579678229,43.449183412224244,25.468217341772842,23.64537731206594,37.45252194704834,36.927303700395655,28.187159798696136,22.07573428931864,4.464313099980743,-10.721548999757944,1.474661302889766,16.468652415279166,11.041421505685415,5.9603670315346475,5.355673427491185,-4.41383366440588,-4.3472429858809845,13.881953437922137,19.799006136586073,11.985625678948086,15.377853509611205,18.037760037454085,7.115790128870267,3.6515088694374103,4.7980192792750005,-10.235527794071483,-22.313206188977347,-15.74289183600791,-14.785678224413592,-22.453025397855285,-20.173273032345993,-21.78534086675196,-34.92238496547394,-32.22564933142027,-15.467657669429041,-11.9408696018836,-12.306016121961298,-6.149746633204368,-14.657970623967445,-31.182085473575576,-28.769852404343407,-22.537058781239292,-28.247316923665526,-24.63024490650821,-14.545895151617636,-21.792937644106278,-29.984132807116556,-23.15409185530362,-23.694349933608972,-31.216022832494154,-23.79695528532733,-17.388041110598966,-26.551586177051487,-28.737331598110707,-24.301593600060595,-34.07916961363629,-42.07975523703585,-35.25466600054991,-36.44514603878902,-43.09030189844811,-31.771284620017532,-18.788546231226558,-21.665912713091817,-22.970074376347085,-25.28265104831298,-43.91310322927704,-54.0510756446201,-40.84509634621605,-34.107683568435036,-39.33491912718544,-35.88894448848082,-35.13273873346934,-44.304609636073735,-39.680782701696685,-28.35377269849958,-36.647282027704314,-47.56724940610822,-44.330075294470205,-47.04451158876666,-52.607653816692746,-39.11107483330521,-24.2862553322283,-25.718107368549543,-24.696350552229,-22.313445621615706,-35.68082286798815,-43.991143747905774,-32.32575588242825,-26.445188582886416,-29.917484753807486,-24.014765166122636,-22.881148564184194,-35.44402328399095,-36.11045854875715,-26.064626717035146,-28.51288680387287,-30.384988331725058,-20.913832830509648,-22.721517364224027,-31.101091652278523,-21.771344765365974,-11.551449879248949,-17.456196754137807,-19.666451989752595,-17.691013437699787,-28.611350228785433,-35.07319483743344,-25.469050880120037,-24.644867379101687,-32.20763180807937,-25.69134911606949,-18.220939154516127,-22.0066641662224,-18.301707509696477,-12.713232388452333,-25.422752404032614,-36.748845844804784,-30.635211321589402,-27.618084322878403,-26.62223791016937,-9.837087097429372,4.206656463107932,3.167650882495455,9.690264770537036,18.428164226056342,5.619782404885702,-10.490406248342586,-12.322189581899721,-16.21654115684008,-17.104712174202167,0.6408052357246188,13.01761610888938,4.881618926790139,-0.30399750540780157,-2.3897290864731158,-17.055349477561904,-21.941701785291514,-4.070017913557167,8.617177770012196,12.108870520226404,21.817842658659018,20.133715062487358,2.1794381490148123,-0.5152215514152898,9.852939593654417,7.2633332488304365,5.057589553851308,14.62641421379384,14.430988540382733,8.31808749438683,15.021492604636487,15.984199386815572,1.2663853010892971,-3.4974773298037225,0.3629024713379332,-7.189630856170695,-9.751312899687129,2.602431658091395,4.425615631052223,-2.7452990365651253,3.1361022760271693,8.12148098910331,2.3243578196441304,7.945198559119367,19.03552552438952,12.214289895717842,5.27286335316901,13.337288432642488,14.3202623090084,8.305274467585063,13.75211637466315,14.340639022251965,0.7911247166971282,-1.0834408738471606,7.33552405962342,5.296662776382913,8.29143792376537,25.092533875383207,29.434201347976455,21.93630074492902,23.272987852633392,20.679323563402107,8.474505953007274,11.997108230833339,25.866702369555245,24.212005564553706,19.251887096699917,22.52040027190693,15.366437447808572,4.962635568661014,12.397872052209289,18.29132024648798,9.113060320025985,8.019399938536045,12.701856873996766,2.3797278735852485,-5.597007119996244,1.524595835083324,1.664598990010493,-1.4205823901784447,12.12869777373206,21.861993056347337,13.476268107519902,11.960604521760192,17.680727473913795,10.345103483480756,5.879190936143994,14.760890572255406,12.933388112041882,4.365115009803912,11.848965423550297,18.797178138587352,12.175448194163,13.491428242147135,19.245731449309602,9.274846053025254,0.9751587774354653,6.262910446824214,3.4983178447945797,-2.8311746748729627,6.9788841489086195,13.691184884870998,4.962577938766474,3.846801150327156,8.26636818444377,0.3582051095157359,-2.4021704119737035,8.399977134855101,8.268915314756846,1.7910612593363089,11.185308198700621,20.37366343017436,17.281111439830433,21.64700986989206,27.392600250262827,15.934595251785447,9.210849037922943,19.875070390517035,22.179143528370794,16.602430489134925,21.747714562542505,21.02977827999326,6.230533595218121,5.619605743413238,24.590796816198377,38.575258142447986,45.46955431385895,55.24293389558517,51.597340841724325,28.592283990805928,18.57872874505352,29.078057563499105,29.864708207111526,23.562498865120595,30.83073044653354,34.1808098161374,24.051155679851206,25.30107597985745,32.74610151230744,22.653561402355155,12.452075588091517,15.321069945156573,9.077802530993907,-2.122543709292942,3.0437517380403727,7.345520323814231,-3.6151861281226676,-10.28403693108251,-12.385702141191171,-23.24343486821979,-24.607772488881032,-9.71820031069721,-6.405788672930044,-13.82160855572643,-10.619722134657167,-9.837801159266942,-18.39528442316258,-14.248804143729288,-6.13593822965776,-16.76265399351536,-26.76664848822743,-21.826486007602963,-21.658734282399926,-21.654480926743254,-6.088128817805583,1.1159941990331812,-11.597055868248942,-16.274422665884348,-13.311663018463697,-22.506116859645566,-26.71232002446017,-16.674362951656313,-17.23123060560056,-24.116115305483838,-15.924458135046677,-10.785916920859268,-20.625121849708556,-22.205596440726804,-19.049344272009172,-30.681500037916756,-37.170867345715294,-25.685005780154974,-20.373657969157865,-20.67013379620147,-9.221940751982475,-4.3403630463425635,-15.293652071775734,-16.699753776582202,-11.693181965605277,-20.8056320572818,-25.93908946159513,-16.308093132773084,-16.859654929705677,-24.533771994197348,-17.60059938238023,-11.821574491645954,-17.405914307304755,-13.588210624412035,-8.074891283518639,-20.55079742179448,-28.48196613697796,-18.01667112911693,-13.493487112770843,-13.846019136699127,-1.4095606828923133,5.894341488653764,0.14382020306398235,4.4675789015021,10.403517535128751,-2.57766284605667,-12.76162058948372,-8.482024996564542,-13.361871251845733,-21.479022412016374,-11.26345712610905,-0.836872434517089,-2.298021345692888,3.45149032331556,7.906749281862123,-7.7383295085089285,-19.433883668611767,-12.415747934401512,-10.77923627733432,-13.119227321961656,-0.7167006814636654,8.19086862765845,2.2987012761616947,3.5378875427516636,7.156370748679151,-5.172736598973096,-12.959549465910204,-5.177568650441485,-5.910598079797999,-11.104840079491305,-1.2618274799203926,4.780619288331567,-3.0898061768440552,-1.7153770989353352,3.8424325390499265,-5.087254302263959,-9.478842314449897,-0.6753636678937909,-1.6107275127517624,-5.197864279673639,7.114901198601935,12.931372457070896,0.6828090334462438,-4.124654428431631,-2.1722511202009844,-10.624777959461088,-13.2836224257074,-4.622620526412823,-8.603895004119948,-15.856436573668303,-2.3507693172947093,11.61352685035254,9.676518195854205,11.523075869338076,14.113179235155943,1.6627201160040306,-5.679716088965238,0.31288718950385874,-5.41824152946249,-16.426506154183087,-9.252927550951012,0.20905189397034984,0.6529595558589723,10.175557141533318,18.70226121758282,5.742261733583996,-6.748855684722913,-4.369201463071027,-7.0297450628645795,-9.194141650944696,3.94939442776632,5.827540564993275,-15.594110309281042,-30.414982480283733,-35.61339058549093,-45.38586404280936,-41.09922335591016,-21.469427694939128,-18.751203469009724,-27.406413246733674,-21.97220061209075,-16.60519103508024,-19.89590873681193,-12.281652847443217,-4.180486276043039,-15.751021074608424,-24.972148171603184,-17.459045484384916,-12.380462676450875,-5.359638099699142,16.624842279318216,28.526946052845666,18.550781927125485,12.37900204078636,11.025417938040892,0.522229332407699,-1.2350229169705307,10.639068930566934,10.4697520230701,4.179684201120391,12.022352610781088,15.932568780470046,7.86142665694775,12.574525635808724,24.444723979725477,21.411806208134728,18.79217790952093,24.344656328141877,16.56388194644922,5.716183273812462,14.017124064881532,20.220651097047217,12.492453727547069,16.179198334001523,28.03754427724037,26.357039419665817,24.625016276820713,29.084621145934772,19.2660878966631,8.071521022014272,20.367794850667643,35.258665153587266,35.761419326463226,39.44279021982443,40.50205409413887,23.121650007985366,10.457889080153354,15.320892121106203,17.146579146038462,21.847208207151528,44.740235151358426,60.05408596724053,52.52097444862662,44.71735332319619,36.138224376922594,13.843210577413739,0.7797639902285951,7.379560302408496,8.548622054693691,6.619047264063585,18.11284695448843,22.918093969856148,13.419429195158717,16.38733800218529,27.44587679348492,24.57889338330278,21.583427278657286,24.480828289031788,13.856921166137619,3.32122420611967,14.774749973278244,25.789985611178185,22.31540740986072,23.616234605894938,24.366705475817636,10.53146633458094,3.7534818463155313,10.144961999416319,4.385125044771952,-4.7030320183349135,5.42682895641335,15.84192378720678,14.474397321525963,19.534109545532946,22.469991393833226,7.590875554280781,-0.2122141976449453,9.535055132499663,10.07393134036829,4.071007919116271,10.64544817614159,13.30878468287713,5.968999941810712,11.600474081574854,20.50865216506196,10.624491883745812,1.1560116792109594,3.0678813674333245,-3.623171664383647,-9.447519474263267,4.4252339296753,14.56730057844522,8.45004357270222,7.894793033446879,7.587946920482502,-7.20285859161009,-12.635049622624674,-0.6564672762979002,0.39972452531504454,-6.788335331842413,-4.061145151076631,-8.397796753203723,-22.182607812744966,-18.27195896702529,-5.063670336666609,-4.369843098484654,-0.39872562567306247,10.489625054153764,4.1571922663466285,-9.808505468555351,-9.65161558385449,-11.037705149951309,-18.91566985538695,-12.000581410829804,-2.4242028136019655,-11.24370767104135,-17.638963422494484,-11.968861299426898,-16.548123412338317,-23.77854722238858,-15.141756812883713,-10.236597012013672,-15.843665317400148,-8.448070517110818,2.073288856062278,-6.687581163858228,-15.954389237534329,-14.791161690487485,-21.6096642218965,-26.126542385815885,-11.460681272307221,-2.3823576911413866,-9.957991954076027,-10.08663240576314,-7.201662526819396,-18.51104969956596,-25.796229544860523,-23.25462660076058,-32.33674865507701,-40.31059304287297,-26.233670787559454,-14.013359462036272,-16.78900107761543,-13.127291902472844,-8.53868567018716,-17.418090562733195,-17.472900001965797,-3.331776501462297,-2.3602536525850164,-9.61829273299967,-6.995033487892208,-11.609040263135068,-26.2736437161291,-24.501760102865806,-13.333164843142072,-14.074049662446185,-12.3386865892457,-3.1504691885630702,-7.650334500996054,-16.39228801688992,-10.315594797247755,-8.452097861742727,-17.95772974550753,-15.165341453102917,-6.665652712859139,-11.29885102253826,-11.527758686201974,-1.5908492570592707,-3.8131703450329484,-8.726797399343303,1.915325895030259,6.50151868324373,-2.750348117669182,-1.3546470161184598,3.979189367712115,-4.546985312056055,-6.975698849691003,1.8543198467646334,-3.7697899818513854,-14.889961001869892,-9.587924439933499,-5.908823281341883,-11.185872322259922,-3.4060361602366065,6.1190478338235295,-5.209762018282135,-18.05164135483739,-21.298317285717253,-32.60113779491456,-39.481070284111595,-22.268964244666975,-4.268932393072853,1.020637999059292,11.531532459638736,18.024657919086668,5.349930783313817,-1.8508120761580225,4.589643668745342,-0.2994020906687198,-8.620998022274675,-1.0666675457068262,3.22036799703236,-2.12496139525383,4.502366060545032,11.389244343853345,-0.8671045499950587,-9.134279574907506,-3.5464317847104296,-7.371641032457167,-13.629388181556763,-5.095943982997267,-1.4245580769407935,-7.446036301984411,0.5057337706512337,12.157457181390471,6.733038752694422,2.0539722499988544,4.776543178923303,-5.9753276110525615,-19.238805924116292,-13.577088023700313,-6.620275612382094,-6.470077865650008,6.256130425727109,18.310233536328315,7.185171761474745,-6.441268005012974,-10.254416487120114,-21.033932892985984,-27.135045989207246,-11.233334855818919,3.391389864275901,5.401922745604567,14.221446052327781,21.252754847386086,10.101258340616022,2.49488284141517,5.793824565533814,-2.9172764829653075,-13.726965370887168,-6.673758276680309,-1.056129286068312,-3.3402092702973256,7.644301253136906,19.30379023251832,11.731415918740787,7.144082485870733,14.38454484836699,10.524860808308382,3.6592317868851123,11.061817510171808,11.405480468084246,-0.9964851286677581,-0.7266003410526736,4.144206101015834,-5.028703751809706,-8.164693682433533,0.7951806792273342,-1.3260408953319098,-5.55041464422994,4.476944035107403,7.048283333618693,-1.7518451698367281,4.757959260822455,17.877802568038607,16.388250605314276,16.116326827034566,20.0941618824494,7.383317715174465,-5.3300501266300255,5.328245737000208,17.66566886593773,22.066815260666775,40.67248840925714,66.53319829327543,84.82713353349976,116.13448065086811,160.71099963446247,185.58723094746279,193.17898290115073,202.3110010328342,199.58725866253783,185.45824216524235,181.9357409823796,173.60362099388217,138.28042423751037,97.8504333264912,66.96834678408257,30.88977743696203,-1.6195952350594878,-16.772036324490333,-34.505061692795564,-56.28930677576126,-58.00032308152143,-55.76862726949214,-76.63894594117613,-103.82202384848574,-125.3464140294554,-151.45553474126336,-165.90432571086276,-156.6705361548602,-153.7821401706305,-166.10980962983257,-166.4296632582346,-160.1514640483785,-165.55189786387962,-162.60981876070727,-145.58188617097514,-139.9217000496831,-137.74579364419515,-122.74796665333174,-119.06756149372099,-131.2200126487817,-128.00470251048006,-114.77703403899982,-113.55490392034397,-109.07373878144928,-98.28142859750326,-104.5355864590309,-113.8187707170015,-101.19385388685579,-84.39441052179204,-71.8953403673612,-45.81841848617627,-22.91746365813191,-26.262014654800538,-31.870117920287875,-25.67982488529917,-26.686996739547155,-27.085446749704836,-12.995430942642546,-6.712880122949861,-12.06179427779059,-4.427590871563816,5.331230440050852,-1.3589393348523107,-1.881545093629126,12.801804479841104,20.719487766880235,25.948581427661388,37.387528355667506,33.57252550082944,17.84323043921643,21.055206369021036,33.53291943927531,32.924739958832916,34.671013650062925,42.28782991189934,36.12537122582556,29.88533568415276,40.9568386626943,46.99180288519687,41.47158673451219,46.44474641956586,52.954772816893325,46.279099576487866,49.330451611042264,67.08358154773012,72.68932379220884,70.43457050249572,75.57052849220341,72.25428928095901,61.944415985651844,68.49193928284154,78.23903180348714,70.00143161828402,62.756980009243534,62.805225883494685,51.07007196748556,42.14929364238442,53.37226063304279,59.86420462052577,54.74609395372974,59.538655512427596,61.152154075672435,44.066887554519454,34.74005374046183,40.89629199438662,40.262231928903674,43.42697832145251,64.10572118527458,74.39314405658945,65.32755117417494,62.504997352452335,62.41991332582841,52.21334613113488,50.9174966859068,58.278245848789894,48.30518397368607,33.6807348043012,37.50962096312887,41.97306525637579,38.7565600783796,43.676547234058354,43.30105035817992,25.070240775801715,15.89911629812583,22.076233704183444,19.7286463746649,17.287237620647314,28.73837733861805,31.97604773964034,24.11341970083638,28.880813355401862,34.02418593281996,21.547416897325718,14.056195282548753,18.547165392199002,13.77495016285318,10.37683725082014,23.679200287440224,29.658134463455152,21.615566322877555,23.339729540310913,25.621624249562238,10.96841445074442,1.0212974387161817,3.6696169236245506,-0.5408486363462459,-0.6153225824483333,16.11632733433667,22.58075539785186,11.936368511676381,9.317858582995099,8.38385208143041,-4.580142431214005,-9.173521141522201,-4.111871341794128,-12.93861762574692,-22.170383836079797,-13.333999759934962,-9.080863826143672,-15.509106473747298,-10.41335832383669,-4.6261484755051985,-14.03019707712424,-16.60992275685689,-9.154412008615486,-16.24715054424505,-26.16540109207413,-18.587452144769372,-12.203165855444515,-12.297575905731243,0.3324630965705264,11.071778266502704,1.7424383712048481,-5.273265580669274,-3.7691586237331616,-15.417254119247827,-29.502830756059858,-29.156622493537625,-33.12302303564993,-42.828540568997674,-35.81336581691101,-25.871966615376117,-31.75351013095285,-32.06360338588619,-22.137946728802028,-25.620332608072026,-32.4463042686752,-25.67478399407276,-25.275637442718466,-33.19065519315954,-26.0986652664999,-17.961403316564017,-27.114833770911968,-30.03571881502072,-20.569963976196473,-21.554794346785933,-24.46122019306655,-17.3636275489269,-22.186873011712933,-37.72108538646222,-36.81172384684705,-29.19228407931808,-31.70399885056111,-26.076891271874324,-12.393534277379981,-14.85743120956194,-22.168411229810456,-17.60209104747839,-20.12411275859897,-29.880392240296043,-23.241413971162594,-14.116830222423161,-22.657997992525427,-29.244228262778126,-27.823123575470397,-35.884732855032304,-37.88793531792634,-18.75724845927051,-6.115010450195227,-8.93827100844898,-6.133132696652217,-6.833497759294248,-21.829280129104735,-25.673322083719277,-15.125387015074812,-15.067930338517293,-15.826134670240982,-1.8484100830863177,5.022946934089828,0.09536286943327843,