-21.405244577235074,-25.525505405547513,-33.88459946791289,-30.392767862799083,-26.82800956318255,-34.36881884377508,-40.447859897414446,-43.746496493250476,-52.01106817773098,-52.502599881067226,-40.950252922678075,-36.26072885979984,-38.775078385599016,-36.16392928238086,-37.041214032585955,-44.10359255612364,-43.0492240101634,-40.73190821069094,-49.919752515494665,-54.56312170981472,-43.84127113505506,-32.354354747584146,-24.381841959077356,-17.483688607032253,-25.09614935612994,-44.709923074829426,-50.65652305427503,-41.03395620827614,-32.30071910194681,-22.79408693758179,-12.160774232960744,-11.994564529133298,-15.39279799081977,-10.647710744739047,-8.591542598297154,-13.235211434427608,-12.115120668751658,-9.88755827442819,-15.178125173649702,-14.617329623985373,-3.336994527744639,4.357487056858488,8.371445948285698,13.328989497714407,6.904165818944278,-9.052098413509162,-13.538409171353189,-9.016913269349027,-10.149097553589923,-9.428595580922952,-3.665315964761799,-4.958360282322615,-5.949408685865137,4.357320677603552,9.977598335591054,2.9964034386700913,-0.8485669089257724,-1.0696228284412796,-6.24821178842144,-6.056619827041771,1.6709404973881,0.655846113430167,-6.073867069872244,-3.340905537403474,2.3308330738664105,4.648463409622615,13.205415922212858,20.942998068803668,14.304065536961128,6.660082698384279,8.563467295483965,9.376611272258147,11.289555904365494,20.590527110568008,21.98137326096068,11.535681206180605,7.609361913261903,10.326152953151542,9.737654736468167,14.576440735845823,23.897523511228208,20.16100253627321,9.521710696875973,8.209804524742642,7.072347700807209,-0.32531853813631395,-2.1174339791177266,-1.2830808399865399,-6.192075834867656,-5.3580698820556165,2.640010097086184,-0.3328674160269993,-12.682493353251072,-17.097218667007617,-13.61827513371566,-5.787338613742261,10.799916389939936,24.221776960335855,21.359260546369054,16.578680287068615,19.293964727568067,16.653223058201803,8.798383528971991,4.508425525839813,-3.857091989550314,-15.637882150003975,-15.88217891265538,-11.787377435982265,-18.14303656859963,-24.012793886913094,-22.833681271861035,-27.606288264224368,-35.3873506002883,-35.91234513436721,-39.102862564595355,-47.13225991299431,-45.0998443328749,-37.600970020943386,-37.15359184923568,-34.12387915105127,-25.71955283578324,-26.020722200967352,-29.884342157594542,-27.04691727740424,-29.590812055221225,-38.784297564387494,-37.51374839016009,-30.206143701772085,-28.503172201816447,-22.482826883604506,-12.138855434872234,-10.189064889252702,-5.364240613310183,13.63997352186388,31.39062112122474,42.07378049107945,55.5905505134789,64.688370429006,60.93359577798137,55.772859148185404,50.5639790309439,34.25168291605638,17.94052868735797,15.434825647676622,14.632047733799425,10.450208255584077,12.616300999708052,11.608610369009114,-2.063333371184296,-11.15038427434809,-7.471867894787772,-3.2921898472763735,3.6676451220197346,16.426094993125268,15.99380775351436,0.6524704618131647,-7.109021954589406,-7.186865284052116,-10.826579102700945,-9.095820227051824,-1.5577448867850083,-3.217339736237932,-8.020075764105547,-4.398664686785194,-3.6609905519212855,-8.82893543071344,-5.9261195447913,-1.655330602612709,-10.39114012195978,-19.72473381608664,-18.04059442195302,-13.387354031418813,-4.759976204755327,7.801259353942962,5.9658755243238595,-6.803475110362556,-3.640379018852871,12.578560879022419,17.420703551617336,6.318694814715039,-15.35156641068556,-39.61130244607031,-42.16283745067835,-13.78880810643352,14.554550599300276,18.432894180325732,7.754531683227083,-6.326285079791248,-17.69373208095669,-11.364185644005445,10.24320817120515,22.90610048149739,21.2909607957749,14.512896707262144,0.4426721944579093,-11.811969092472522,-2.427922733146583,17.880700776294372,22.976326943330434,12.541628420981414,-5.551155805605431,-29.293047286387857,-40.70430420921949,-27.41675663683289,-10.331610870785623,-4.828634837178111,-2.6414146484483165,-7.72481560968783,-25.8076944190722,-37.14357455006514,-32.27650559363316,-26.37899201206222,-20.677648453825178,-10.116199147152773,-7.48262001945987,-14.024617634152502,-14.871680995252255,-15.633958520312067,-25.126281964752977,-26.890804434935145,-14.81343828206502,-5.508977792505714,-0.09209323936110292,7.871250448573043,9.157352074223056,6.063336923942378,11.439001394239707,12.894363072391581,-2.3709372397465396,-16.6636127264321,-17.33180187514407,-11.168682932190595,2.6166068588883995,20.43992760173381,21.125549085410334,1.3106566784146816,-18.484267872715165,-29.308970979831084,-28.56815448784593,-6.241767618742721,26.654594489893004,41.744818152442264,35.64076135491201,21.254367897605654,1.2516043104079202,-13.608415725010126,-6.951363031521267,10.679303607094825,21.71607789799926,31.034079733757732,37.859661375787,29.76968712284281,16.907085366209902,14.735284661975971,14.566163489780788,11.221237849191539,12.400692724156366,10.747741207472057,-0.2959902731021078,-5.381239944793424,-0.3440250476767508,0.5774355055693862,-0.008341125736412158,6.037520639302787,7.1840889391837965,-0.20877070854323465,-2.116202813811268,-0.8667634936493858,-4.998167821927528,-1.7820621152137428,10.555206623996883,12.820979696164079,7.533531494664709,6.966648427307783,2.6732818879587716,-3.8992941202222036,3.7024409780396965,17.658171800944075,20.468396640657286,15.758904431050352,5.419027507588439,-14.318090791897378,-26.01819444324677,-15.568071695017572,0.11572438202360624,7.878189023446921,12.935717007916892,9.15608872573178,-7.956327409418274,-18.818845903459707,-14.270807055089357,-6.9403798807702,4.387819711962152,22.995296053812442,29.210358715556335,17.83069331060515,10.412652329265725,11.039063656701465,11.085484400431774,16.801508829015724,24.95383594850809,21.254744005627472,16.257783569150895,25.38149228200795,35.030961454376815,33.227801944241705,28.717807725084555,21.193576175656602,8.082952010853653,5.677429382322733,15.819533256132837,20.323160155989473,26.775985228331074,52.293837199909866,82.33428063313833,102.36695074926067,117.91628981996665,122.42130439162388,109.87991550715212,99.67263655430727,98.98786030502323,92.36699916688302,85.4754332989958,93.63049997681765,104.12099174091973,103.29597081010772,97.69207563239237,85.2543663177119,62.57992388984955,48.03387846355997,47.04587199585641,41.56702096693297,35.14999168724895,41.653836953723335,47.88782033195656,42.93808869832394,35.79800194951901,24.50827335808848,6.048379302892135,-1.8733956554185869,2.456173539063942,-5.103140153885519,-24.288198977551513,-35.228128842981654,-40.91338437718781,-47.15308867621488,-45.62204643677741,-45.44457621340031,-60.33298094599781,-73.28252116092783,-70.21966182702766,-66.1275130767628,-65.29004570957548,-59.00469995131924,-59.347987739826806,-72.48404866068583,-78.62851218643046,-75.07783292298697,-76.76497877780857,-78.48363800038653,-75.2517396528105,-79.24331933133139,-84.45511280813653,-75.51733453960048,-65.580922868643,-67.2835511754482,-68.49803660818402,-68.18029674393523,-74.8392976703073,-77.67691531460451,-73.67601018303222,-79.42239991050691,-90.79467638425075,-93.11394416178423,-95.92222598391007,-105.25035349288338,-109.05824077834885,-109.83832344000487,-116.29598138571153,-118.38035364565329,-113.74652783891811,-116.96871410066505,-122.2480910797166,-114.2455738605696,-103.49983052725132,-99.0336803119351,-92.11731776537476,-88.70014583320102,-94.94887141827593,-91.23786280389328,-72.56879419358647,-60.951748093547124,-59.0217640758862,-55.872743012128105,-56.953547431718356,-58.624446686814686,-44.82619534080614,-25.30126015475325,-17.710253800427672,-12.831075992868492-2.8062879259392957,3.820115643333968,12.217687280350562,30.430772275525925,44.21556470842056,47.89602683574497,56.40085349172232,67.44188259280429,70.84338326061757,78.47582106132737,93.32995070364314,98.537250151427,96.84136763387136,99.28656756585494,94.82015827837333,80.3672203974183,73.1912324601063,73.07430582725667,70.5815420688175,76.82851639318062,92.92671465143984,97.9442691575422,91.87145619468123,88.14627440828531,80.30882570219052,68.23730579890918,67.02071854036299,69.41902351787766,61.16712137319834,53.06346070945381,50.328522429308606,42.567666924463595,38.35812868169802,47.021173500098875,50.16698691833615,39.724830433892684,31.605114106743407,26.693081589167107,19.41417057246162,21.534770061609898,29.561675061872826,22.859182654108917,11.721602520669816,17.248034859085145,26.67127678847186,27.063638455120326,25.34831801064584,17.120760703480073,2.3024472346100735,3.329942723785029,20.467667349232222,25.85490711386923,16.018249778777154,8.475176930255156,6.398073611575994,11.412066299953343,25.832738418651676,29.403986930887534,7.918315585061052,-15.200505516839133,-19.361926435713418,-13.445683803951741,-3.4415644188125922,8.544515134614928,6.326477269409396,-9.116870438920152,-14.520966983236578,-10.48219860514311,-11.93453797553009,-12.56338133507337,-10.084135600389724,-15.685584601132476,-20.40664476740669,-12.256664295863711,-5.182106587112761,-7.45381759197239,-9.827059789076255,-16.602250305213474,-31.870499519312336,-37.31298311229396,-28.74724798979413,-25.084449264744997,-26.476967644841285,-24.622144464657275,-29.760968047364813,-40.11011242085621,-39.01330737812985,-35.11146414067943,-42.802438742076234,-48.27945802533306,-43.146373536792524,-39.65357019545172,-36.06285441868791,-27.50398488336103,-29.754078444223396,-42.85661981361119,-42.18313497039024,-26.029787990073697,-10.394134626744876,5.107846015189271,16.028285266821257,8.03450268833436,-6.82258336995541,-8.222167481068821,-3.7858045120500883,-0.9356479294498612,8.070354213946928,14.985091495655878,8.925491483766091,3.221743125341497,4.26337144579535,1.6011040158746368,2.0912271343536335,15.134155167612183,24.899025333708366,23.115672296396774,22.158881324386332,19.667026526575814,10.904832830859936,13.381949401349955,28.419748709185182,33.553449925522,28.85276429093972,26.380757334012003,19.34906869083389,10.628946830939135,17.350812352602766,30.048939096261474,30.181144253601182,26.429682807363157,24.291661063655994,13.512145786698877,4.309563345929857,11.178656045475343,19.713954695739105,20.63381102168492,25.694692553135823,29.398693171634665,20.348792867588152,13.94885507524831,19.22041255884389,23.6534026935041,31.015073259357944,47.20808592611042,52.57157698175263,42.750938879855866,41.03603487811172,51.245019597551156,62.15273983783434,79.1987634158189,103.83479281147083,127.42275388460607,161.7206938415479,215.7691365740822,260.1328097345196,269.0713967542488,254.38353083881606,230.19599831293087,203.13680580889314,185.86425139593513,170.98221721777563,138.69018801076606,101.4468961341855,76.9489462175776,49.846993441503926,9.481410964003139,-31.689325655885675,-67.97227951015066,-93.89959945858564,-98.83999308268197,-100.65055435240274,-126.50278839236287,-161.79794299557082,-180.50302901835002,-190.8463492350101,-204.6547769691145,-216.84784544308965,-230.91106755676006,-248.0297217185989,-251.85780567169175,-242.92766340365864,-239.04453961125142,-234.56515866290349,-218.22828216930634,-204.6610071353067,-203.05878375716927,-202.49809379838496,-201.1344483509089,-198.92404131573073,-182.7909182756088,-157.22830468402458,-143.15775694801783,-137.0424994347893,-127.04737062746415,-123.55825877782397,-130.10846489348148,-133.60671924070073,-134.55700094503698,-132.96055185820217,-112.17454896947245,-77.50886039002346,-57.510352370922654,-56.22127701938942,-59.891250130431615,-66.20229967109306,-66.7964176346791,-50.1473039443441,-31.854895757771356,-27.218505989012943,-21.16244228599993,-7.6144060708349866,-2.402477875638436,-2.9743307714431575,2.3695842985392233,6.636842622660174,9.257466234332488,19.82812280307854,27.20633321904161,22.162264440526947,22.57908530243347,34.263877055265354,42.59875111823466,50.31481633713138,63.257504053699954,68.82444854901082,66.64397492889012,68.63383174404885,68.35098130680602,62.49374104874084,67.60422233846184,81.50337324628428,85.01767188573646,84.43942843166539,92.2270298158939,96.99166077479538,94.29761366208368,94.18245726434101,90.67390657133924,79.67139260002945,78.99087976819571,89.7909171599795,91.51082206642694,86.01916909267108,86.29208500598158,85.78729264453173,84.29391970163677,93.97931082361049,105.44894124485927,104.27703960945932,99.09519181759357,92.10430918248395,74.91892220281,62.08067540343222,67.61874733100345,76.65989140322124,80.2635902147069,85.67315187537088,85.65655072802724,73.74828727172938,64.66786623279319,61.47269546596003,52.44058873472909,47.355013018810155,57.08675385521932,64.43221981456227,61.52257249149737,61.481696748944444,59.44948489967912,47.142529601066926,41.07524275065925,45.68903292889321,45.15632629414243,45.54743790939304,56.394476051004006,59.40450291714967,48.114207179016205,40.5826939663157,36.460158305633165,26.877169038221076,23.660431815183593,28.241154653628683,23.945750759712908,16.146405048618853,18.442253604854734,20.729649567480397,18.488818608734285,22.97541607266893,26.30334521121008,16.28843533881544,5.728723945705704,1.9325878884884087,-3.918244994107182,-5.210962535119239,3.5100145816019124,4.5356472929426594,-6.025119196845855,-11.696901340993163,-13.001082208555717,-15.32979531814518,-9.909165326954351,-3.1425131432128284,-10.743313557058762,-20.933370973665593,-18.53946405818742,-13.773599237452432,-12.65486206920988,-10.213789886315556,-15.387683496352922,-29.550523754905374,-31.31600078175544,-19.027440816301095,-13.593735928070934,-15.43493767703449,-16.86947611896581,-25.621629851901222,-36.252680738010966,-31.973043627862793,-22.687790062608116,-23.614025265688547,-24.351671633937556,-22.802706580286113,-31.322458540174814,-37.949662314159916,-28.166495327302076,-15.76458995933581,-7.778213277198949,2.329239695729026,2.117227883148324,-15.140263044397972,-26.281727826014517,-21.73541417049595,-16.106873101877685,-9.59006338232422,0.1767442978144378,-1.8379261239173188,-14.413055974457398,-19.486494406389486,-21.899892113357716,-32.04583205481982,-37.45519425950958,-32.68382944196204,-26.814043525609485,-14.810744163153268,4.757826384534056,11.093793861835877,-2.0956737414766824,-17.891244772375305,-30.64738568588896,-38.25111795402712,-27.882260845179736,-8.181165929195997,-3.613918680548609,-10.186220034820725,-13.953890540585252,-21.21594757840738,-30.018970980442035,-28.331781096671477,-25.820925312917012,-30.14696775395591,-25.95279682024215,-15.596112557124204,-19.905458936325733,-32.45179275120079,-35.2835720716036,-30.551883300121894,-18.20391736724374,2.969130820655976,10.274553389996923,-8.758055381505766,-29.59571613578561,-35.15017364231661,-32.298782721655904,-21.565705514844733,-7.065755250517388,-6.904701849832235,-18.58343630591257,-23.612031054749618,-25.795939139536912,-31.10686225174243,-26.123670057516172,-14.313819262241907,-14.074686159750248,-19.712706177544693,-22.813475036005674,-32.86669154103084,-42.80446257020517,-35.86524074997296,-24.188878630383112,-21.689166007929018,-17.44457132796876,-12.02028675926862,-18.457205879063718,-25.252183609131734,-20.087722096201155,-16.880443867774538,-18.609850901624256,-12.199838406847789,-5.770414941915594,-8.520731856902886,-7.365610058669882-2.9960027995544305,-8.788207806798233,-13.952397904159351,-7.825494636371349,-4.441830311658576,-8.485143190997817,-10.477386398400109,-14.460843568280618,-21.450065330876065,-18.079438304504755,-9.664984432377437,-12.863004875115385,-17.868015139724942,-12.32377797986442,-8.710708616831862,-10.335379844754424,-6.726135566306185,-5.469435946195003,-9.850594228741649,-3.248567922577444,8.681896920825752,5.729583480746773,-1.3439387788026134,2.075544027132531,3.7499830426144523,1.1211867523005228,5.850420983961202,8.312597950151135,-1.1839457647124383,-7.513693368886498,-5.962200551002259,-6.518526581917489,0.24173329997204718,19.454385602152882,27.919078848730678,18.100429269365257,6.952871458649335,-3.8618676390659545,-14.541962891139029,-10.252683264700295,4.13285465848611,9.718965442378476,11.65030958884521,16.189879534197278,9.934131019709238,-3.39798744715763,-5.619208541176505,-3.0540446693553953,-5.347136712358977,-2.2692548607825596,4.308658914326461,2.1690229210996,0.6135794586303898,6.882137336103227,6.833807690363338,0.9926928484620086,3.54746853917044,6.455445748625334,0.5614998899556083,-1.4854757480439496,1.8538336576868608,0.661988405976724,5.298936171870727,21.445886402706968,29.645021273085845,25.380541750919406,22.0552554202541,15.52831371619552,3.2008523936382423,1.114597137159015,8.17373854445482,9.60279907753293,12.3315254413598,22.349487954880125,24.231069958850828,18.205304444580992,19.87438284424953,22.946685471943105,20.707532879827355,25.857441091063723,33.81853227797756,27.751478404033342,17.522145568406998,15.440457350416276,10.675703630783484,3.8878121491643203,9.602956858576642,18.07209149329487,14.709868152172275,11.473931378587611,14.746098226954516,14.296813043962786,15.56937541096953,23.421966425026618,22.319580767804574,14.412174361212102,20.888529018884665,39.21913011532085,57.824986479688036,82.27733131574085,111.04146284252613,137.92626937673685,176.2237307686002,227.20090924386636,262.15488218078724,269.73341840244734,263.0168047970576,239.19334244321703,197.04372791828746,160.77034554429542,137.03773910315533,108.89971165140099,80.87431782485527,58.6060539496451,23.753121278110815,-20.72718922838569,-52.94633798171399,-79.96517674973643,-112.33840829574171,-137.32589477559372,-154.00142275873887,-173.41539235840403,-190.0747136217967,-201.1379216418585,-217.21645641839118,-231.9117009421783,-230.7708467301,-222.82245579246768,-218.05343725993998,-208.22432043551902,-195.17092573730068,-190.0923719903108,-185.1589905273755,-171.44632932528302,-159.10171034953527,-150.45459420011647,-138.90940737666898,-133.97440570165497,-138.43362496775458,-134.1313894527311,-120.57649710497671,-113.88158391865036,-110.61220725857416,-105.00627849449735,-104.70520243657414,-101.30367657095562,-82.5281414761634,-63.929765862498044,-55.52218933158643,-43.519340166640475,-31.489575426117057,-31.72409510202309,-28.69640770911841,-13.540841872251695,-3.989252010670633,0.4313776710085053,12.30602270138586,19.35112162312128,15.643528186029393,19.656569042976415,30.141578340706282,30.658643647460202,30.715568377159414,39.84557018374391,43.286647565921214,40.92827261764231,46.75190948216148,52.5032598592943,51.473774280661715,58.06979338323372,70.20133569414931,71.39762830116794,68.25314041824802,70.28916701098456,68.2926392461693,64.76711672606513,71.16746618351581,76.73402401591966,71.70887220852421,67.13153566858534,63.13641323274659,52.17531939783504,48.06443514828413,58.75482200513682,68.34657178967188,74.42966216804905,85.882196917841,91.22258861340595,83.49789688262068,77.15394413389845,73.08102872576302,64.3990831526151,65.22518417928391,78.38114614744087,78.95002775935856,62.8922982799911,50.873647090707216,46.17554332529914,46.75356585934102,59.903193739229465,71.52408288313745,62.48639596331769,49.138035570698555,49.2564508946861,52.21614857622161,54.96097301789058,64.28569511673648,67.11826413413279,56.5082531091346,48.884826944456364,44.13723679442317,31.671219860609938,26.628425519399396,37.23956012828485,43.30769320768944,39.3645448145365,35.8054099136977,27.52423679395023,16.471644636842456,21.23386706248735,36.027629139906125,38.64803024906993,31.123864013319164,21.253346108089517,4.882377514547585,-5.473955790411752,6.585862254717114,25.04840658506024,31.267611522346897,29.601858768056292,18.01640352110385,-4.5655656868472985,-13.908005136120746,0.9153627559397908,18.439564561412926,28.686771092191098,36.08559900126272,30.367670571698362,11.414706663958963,1.9451697072935623,4.0509526730978935,2.481945275712521,2.2437243192337033,6.098516784040291,-0.7366400162249573,-12.41589035911572,-10.338036692947679,-3.4283507038769074,-4.359650418502547,-4.849072085818165,-6.426453459959543,-17.308174332419558,-23.58463151842777,-17.727244300721665,-15.62443113977001,-18.148751624206483,-14.559639800660694,-14.238294732050973,-21.387231937038898,-19.773631855422327,-10.889888667586845,-10.31923734640767,-13.291773143459768,-14.641204881559371,-23.41948107812735,-32.28517192493201,-28.071254867459583,-23.208307745776484,-27.628890888073055,-28.960817424730493,-26.289329825591473,-30.456340438302057,-34.47851745068892,-31.686262630139538,-31.435555180459584,-30.393947657993703,-19.5976445370856,-14.097664179625227,-22.73313420208615,-27.981960947346195,-27.130624487154762,-30.641255858643298,-27.40590753391838,-13.626828863450267,-10.078461772629288,-17.5625960632842,-20.407948911698675,-24.84050013057475,-33.49120362021077,-29.45499597717214,-19.22361089331534,-22.746706495544803,-29.185245873615035,-26.202395997148393,-26.664289719321342,-30.483041199491275,-25.068860473403152,-20.624872192935428,-25.28403509296518,-25.482083103413522,-23.481641559712557,-31.648849408337522,-35.135653230077075,-22.135835575016223,-11.547714675817588,-13.248627643755661,-19.546588672806006,-32.55677861933951,-44.51327206201383,-33.02693327199661,-6.16100847189861,7.501473967924581,6.337990520960969,-0.06137685242418267,-13.157111819062997,-22.441349051972875,-16.57287053061818,-11.559912888354082,-16.45626339696167,-14.539002525333178,-7.47028844255512,-12.178294333476119,-20.996993230244737,-24.221569331989052,-28.562848871709157,-26.264243121291354,-8.906340185645453,2.2125901931665957,-5.125750508684598,-13.310284734428786,-18.45435584476231,-28.603498180678397,-30.466763023697123,-17.634709492840148,-7.565017518880653,-1.9253988886825018,6.869849298592666,3.724013000737606,-14.955272030139767,-25.207038319108257,-23.275805620645347,-22.386900513343306,-16.34399102792868,-5.32475637764023,-7.660901900559453,-18.132210952810254,-19.622475363342037,-21.03541994094207,-26.769586247005293,-21.078223106118706,-9.292162848022699,-6.766526995135695,-3.6885724591359237,2.811517235066004,-3.6556606223079386,-14.400745026868364,-9.403196533759168,0.720813175227419,4.549027857881815,10.131082445253028,10.374281388630862,-4.528024637733884,-15.345744387911967,-10.966654309191338,-7.464443653555907,-5.34249255521993,5.478966873562985,11.598573825195277,5.311597751241757,2.15881281356272,2.3323027812564323,-3.504237693525135,-3.715459029721126,3.744607781297371,0.2517419011184785,-7.317379365946379,1.1135040388895243,14.143956037699242,18.36552511771975,20.928009713958083,15.37284724960472,-5.35835748401906,-17.736634496778123,-9.280668953081804,0.10895842336228134,6.41914847481748,19.838138107386865,26.975856132275712,19.978212652575166,15.783415162360656,14.466006389131792,5.60401229556584,3.111127177714431,12.453834188180434,14.339687178336993,9.740750982190075,12.634083311325766,13.731033666216767,8.943965169035433,12.60878039045630318.628259044481236,13.683772756273187,11.032588129663484,16.96601097914492,15.887194587015433,10.793230645568578,12.968791819485347,10.165208580333932,-0.9372977248257586,-1.9759099344912476,4.3744821400892855,3.117504121128257,2.4121654105403088,7.296986649822379,5.953153719736326,4.108973409287495,12.648946400522894,17.15944908032977,10.319465815312604,7.912324602271095,9.472938850486404,3.295848455162197,-1.0679377079796217,2.409933688479109,1.998134159208366,2.5291106381387385,13.98687499509286,20.115608174702867,11.987702611618197,5.99613463904574,3.0108013577593455,-7.331058121009356,-13.548370504076495,-9.564021477209845,-9.822651724495374,-10.4227493978987,1.784470949563726,13.168566192944793,13.078215906521365,14.126871795238436,14.999044186584008,5.523929932108574,-0.6321954898000091,6.532870382650992,13.721501856900701,18.969763239956155,28.92193624568293,30.501947653382977,17.112979468811155,4.4724195256669805,-2.844747280632944,-8.839650242070494,-3.537218247590462,12.166961477452718,17.84266331821728,11.026766508198675,3.83591445736365,-5.707096262151733,-13.853528040411934,-6.794214367574602,3.6816566345890926,-1.20282520409472,-10.203536688988137,-11.068705102002161,-8.373913135293591,3.4784170672259442,25.45013612915222,32.91903615173205,16.130245192254193,-4.962778029241731,-19.991719406951507,-27.13398655974953,-14.121777791276353,13.527341834606975,29.29179890380744,29.954845678543695,29.819035975203754,27.87215313715176,28.77137945664352,50.15088859819637,84.4085027862305,111.6735830968521,139.9423335467191,176.45100061055206,204.28947517817812,223.7514021442377,248.729812225554,264.8640902450649,258.00177160379917,237.59257637771503,199.61962273328467,139.9912854152174,91.39849862917622,78.22982518313123,79.30773725254546,71.17989042215979,47.8061625228629,2.1596966056178655,-53.797551041925026,-91.34253744627028,-114.40387489068921,-145.94324023739804,-179.34846165115508,-197.73764576078693,-202.68175843281298,-197.34383432042938,-186.0176815855133,-185.82372411052359,-199.15422772195362,-206.49916392680797,-206.82879255002842,-213.293429606621,-218.48745695928613,-214.4853005839673,-209.0013137264279,-196.97283183089723,-172.63802085812364,-156.40765455233486,-156.79158114490642,-153.6328184561146,-143.728342298577,-137.1900880534802,-124.51740260010156,-105.90221876621479,-100.6281416176758,-100.90340003863338,-86.48027148010475,-68.29336304835452,-58.991313604214305,-50.94492733653013,-44.24848749719637,-38.03185613849493,-21.334176207101468,-5.392415457473973,-7.790534702595348,-16.021776395219035,-13.4072031135684,1.9847711402086383,29.243375958716328,51.34672534697021,45.90252676560235,25.932150048977697,17.391503182842442,13.760866055837571,-6.2089335993562145,-51.100774170858166,-115.76193627711106,-172.1325880055984,-184.4426375068136,-153.83132851698468,-112.05450606751563,-82.61850256478557,-75.24634327101126,-81.03175549700194,-73.99626895595414,-51.716699398906705,-35.93658946131834,-25.890939847181265,-10.425813863959881,0.31917558081084785,3.5526552474825204,11.77488432458957,18.77912377466608,17.710959117643196,26.205129303694154,45.5526614882097,51.66151395344857,45.689993597978166,46.59839915436996,52.834567722388435,63.42797336881351,84.66719386298242,98.93762059271077,89.86474958431197,75.70472592883257,72.06590845722486,73.07149125218186,80.82096457607582,95.15611895635627,97.10711968247611,85.77013580882189,84.83415575625156,95.83372821910832,102.61363263218489,106.72270354833219,108.99540492254135,101.90602512495659,99.61033110705765,115.70810493046724,129.48563372271704,125.18526272637843,122.91001112186018,143.92549072214547,190.0474643030353,253.90355246004378,307.69877032632445,313.7589782666655,278.0565098778691,242.72042146298227,226.28932869040443,223.16549324849038,226.62423775463242,221.3997494255221,200.2350037766211,181.83587147938806,174.95151605298102,165.96539036275345,155.91666248426048,152.6885102269379,144.28962216628668,125.42909991153113,108.43000119703248,94.24133827326247,82.13731594071533,85.36587442435257,97.61267566996244,93.13926046060378,72.75461238615681,53.21345239454896,35.15927397336792,24.097167338015765,31.47538867980203,41.47343419060059,34.07968682980923,19.266369973284,6.367610490352337,-7.77075470149514,-9.89887051677434,5.936041157136608,12.9311811372128,-2.9367289428857717,-25.051461869520764,-44.28872535815343,-56.41395977256985,-47.50428449403917,-28.251619858506345,-30.248129707185477,-49.721484405769345,-59.82051806359233,-58.20080095971559,-49.26850916475208,-34.21193797389163,-35.48091841168642,-63.45514921700484,-86.00397519568398,-83.38786442645242,-73.14101053198732,-64.34928833319816,-57.19283494658835,-64.10110724793985,-79.96537422875923,-83.7420120661684,-82.23776346032324,-89.3673442811412,-90.09837875628907,-76.99346385920092,-67.32736148782028,-63.37100448202683,-58.44718053799957,-62.9340972954249,-75.31396785383986,-79.00553800058086,-81.33808893979993,-91.83838233949697,-93.14473835415264,-81.9214653352119,-76.9290000220928,-77.36640188390074,-76.32942677948564,-82.66440045534559,-91.02103705670939,-86.28168787091795,-79.75967641135931,-83.98201940521747,-84.19578112024092,-77.21592827823659,-80.00858179036166,-87.15017278967107,-86.2414921284078,-88.24709307085624,-93.51172695113436,-85.5462552609998,-71.60266271295393,-66.02835187283368,-59.86621451194131,-53.83795475397494,-65.39512374161929,-84.45981023026982,-87.57611239073208,-79.85376582057827,-70.7427017801711,-57.664358011766964,-54.807854741221554,-72.12681684429158,-84.99280233110922,-79.55079444445867,-72.34926302295305,-65.71377579263502,-54.54373637537859,-52.516979531811366,-59.66061798795743,-59.63810163519134,-58.69297367251658,-66.40880857739694,-67.37447710192876,-56.85765143340801,-52.0334297505599,-51.850003346820046,-45.850409983146314,-43.37990331340292,-46.135772277912864,-40.71353921635703,-35.115817708066544,-42.41662781114507,-48.105098721672526,-43.090098759787736,-40.7884360050319,-41.068134972295276,-36.77893912119019,-38.68321715584831,-45.4742637141097,-38.304642163490236,-23.647308767538917,-20.489366009535765,-23.83113904290712,-28.377268404072844,-37.81506171241993,-37.26605923204257,-18.66172076639118,-5.4647595420973705,-7.126627808007644,-7.250300829833716,-5.663270415674168,-7.823444528802495,-2.0326363917692363,8.705474932308682,7.868577017085126,3.5329281247701334,6.193666938428346,3.1062866132069376,-4.772190387798753,1.2703434176831014,14.45678083801847,16.523018798413613,11.50795688053449,2.655488020681637,-12.608782703722461,-15.924716548478454,4.521127404037709,25.954068934496373,30.850617805450664,25.057765181754085,8.78250947501066,-12.314471871135979,-12.481336869784679,11.463160833713733,32.435935672571794,40.96926671177973,40.64789689973457,25.16148899259997,8.664117848277677,16.070522912014823,32.51476520623845,33.82220379971945,29.66847777338535,27.34387363683373,19.58808919089518,17.27695767689397,27.93863245664303,32.723569996783226,27.972585420295133,31.044881461280784,36.16507286974015,30.135364322136365,25.1019447469748,27.64668896343162,27.835641240341744,31.831859409984435,44.85585957121374,47.64340571718977,36.4144821335283,31.30343386041646,32.30889984299381,30.25871149306321,33.63358366113425,40.276636854492736,37.836112506973926,37.56245529581637,48.75710435560934,52.72402661950093,43.69176705215122,38.5616972825852,37.05779052172479,32.61978967902698,34.93245480059291,40.846177776788714,36.762898561864446,35.42297277568478,48.277319128109,54.2811039714905743.580639034284296,30.97174118774288,16.303044443640182,-1.5039002782233402,-3.0994746795965202,12.341256201343668,25.10262418128149,38.07777276647986,55.98491888416689,57.93340309687033,41.679368017625265,31.137040518851432,28.677394150893083,27.737662596295486,38.434123155594456,53.96649806913256,52.99048005391199,41.94988160440511,33.914667566600585,21.29492541932793,8.510146380923182,12.443784089358251,24.18337692125536,26.8993338060115,24.719995049171892,17.26013905397818,-1.270406200290231,-10.845586381578672,4.6858568376105465,25.982607183649755,39.533023151166766,50.04104919550887,47.51457623838755,29.126865236885678,18.318810041276407,21.05634397151123,22.19554587841492,26.10521002342169,41.54317375275614,57.742609617466954,72.72000712324117,97.48896862756072,126.56134870801878,152.06788608264458,184.14141974915742,222.3209718470488,249.63739006100064,265.1104439748403,272.7554972961558,260.63320283983603,229.89954815550743,199.0354462822533,168.84497248737685,135.7768014861812,112.85100368221322,95.08993310120242,61.57501388258286,20.628370309714786,-12.815097066398168,-46.434931262466975,-76.76427399682849,-94.39863753035438,-116.46136185995209,-152.13722001708268,-181.7133350698354,-199.90906851639704,-216.7671751951873,-224.55326934739608,-222.34299544672297,-230.35256299782682,-244.76992922797663,-243.035242893916,-233.5964544837057,-232.88027293381097,-231.74122744337376,-231.20682822094267,-243.04460403383246,-248.11903012821608,-227.83252636627248,-201.47745281661426,-183.6447361243068,-168.30639264874043,-163.7596378863853,-175.2572128378878,-180.08923242070497,-167.61971628952057,-151.81025170600873,-131.3182510761352,-101.87130695418145,-84.04644501876213,-84.68249257145469,-84.69747911080708,-81.82855690827188,-79.54651083023597,-63.24385342554177,-38.79410787808044,-32.60321745568234,-39.052976476722826,-37.53333192824245,-32.132664971510536,-23.764558875591476,-4.030561436511812,9.974544337793033,3.5737798205611453,-1.8708924761193881,6.629638273325382,17.112772016172613,31.19895722042404,50.64709649054585,56.83556041337568,48.76790335618357,46.0092204227833,49.01628607658712,52.53760550967995,66.09950759424329,83.34514308138412,83.84232958152973,71.78149745117511,61.5698705971604,53.11649024641345,53.301368231778596,71.09427354142306,88.27726156179233,87.72719345925798,81.41576907009795,75.88389606260213,65.36902306721306,61.433097153056984,69.85005596124236,71.80868318052907,65.57361890652194,68.54209235699922,75.88545459501698,78.37356044745871,86.28417277611256,94.30640352313691,85.79234840216093,74.43406303756109,75.34279489141146,75.20584796467703,72.45389673191546,79.42813420279784,84.2891632830909,76.52542807039742,70.56936995972966,67.33628730520839,54.821236263432304,44.954614424522475,50.32098349545074,57.64571771829606,61.113383536896364,69.05832095590003,71.24051832437345,57.66583759015715,44.91831704027453,41.53549200643701,38.79341804782781,43.523733644192205,59.56847089055735,65.89123073099664,55.85124106042579,45.07796536068143,34.42108977915481,23.13811886733177,26.096476275896343,37.12710943335205,34.00267747577066,23.282893916213943,20.166685417776986,19.829653125060627,23.25479223861591,34.052138204769484,33.93689584135805,16.095348323663856,3.548514874248845,4.100980443094809,6.041119641004415,12.485769372183736,24.16281452057246,26.012587317466114,22.257448804023454,28.093179645377234,30.539475848896817,16.774168182374815,3.4738847824823904,-1.303653079943481,-5.069173159167655,1.1215174493216051,18.800944600552064,23.877466227514116,11.530898728962992,-1.1369778798809667,-14.973827287801525,-30.319588220944496,-29.014395057839426,-12.971569271853081,-1.0455160399571897,9.321626032345565,19.181829087404918,11.109017527786392,-9.335124500769684,-18.332748854537485,-17.387735790181424,-15.801491284969845,-8.970661404160385,-5.746564669834818,-18.819333514485194,-30.66718361246287,-24.635601692392722,-14.205577421347247,-8.680118573163055,-5.448103894114032,-14.30350097473458,-34.83676167254385,-44.85979282753916,-40.81600469269916,-35.92742821436749,-26.30479813925632,-10.269476633769658,-4.454099914934463,-9.596799147242656,-10.94327285481596,-13.489794386185224,-23.569568914139495,-27.029412992971583,-24.139430243180666,-30.107975053070106,-36.488450267449906,-32.81818377916672,-32.80974060064498,-37.62441189688689,-32.14147967726323,-23.23535196069656,-21.18758744370452,-16.504467122157997,-12.637498457877003,-22.891927434522458,-34.092139537849796,-32.33562842417403,-31.051047166969457,-35.60467196071677,-34.674694118203575,-32.73301197997017,-35.18718461824471,-32.030043278997525,-30.666876872195374,-44.37051180664439,-53.2208190051487,-39.486064105331366,-18.736950336933745,-3.01132878724572,5.612465893036126,-6.703893745795774,-37.14912713806365,-55.66814585452999,-54.02988324030409,-47.3929108975337,-32.888111409969426,-10.33546876329493,-3.227053906458039,-13.546803119524185,-18.508129007592355,-17.72467761897061,-19.893543926479136,-17.916643282462875,-17.66245526361645,-31.980359175166374,-43.344689286597095,-33.654492559547535,-18.30071428071289,-9.860190303145332,-4.679412607988276,-11.042832030725428,-29.761864843973765,-37.57579858324857,-29.609227803750507,-21.801393134630608,-11.583326296725643,2.0948449777974973,1.1343791243544938,-10.448639134120363,-11.373606576568974,-7.258648945178989,-9.773545879087493,-11.071455780541287,-14.942923448833083,-30.929457214468545,-39.89450238601733,-29.724914813436403,-21.85691195590435,-24.001891786185887,-25.014313313847307,-30.407570372673337,-38.8982991276357,-31.51073734567461,-15.506008865057632,-12.345593857673798,-14.644359385388299,-12.385882311757804,-14.418892007158806,-16.1257347675641,-6.823936958677685,-0.2748246943530066,-4.578834058499311,-3.782073516877127,1.9445969425301093,-1.3806955875250964,-5.632713748668022,-3.5615820051997717,-7.759106742391627,-15.633307623999913,-12.392754509096324,-5.809895397318742,-4.580730200244463,2.368514373343279,10.936098935635624,4.30592199860345,-8.207302052549688,-12.420423798859135,-13.949170563555112,-9.398505413626477,9.591328354987365,26.058815934292134,25.512717403529336,20.425539393154832,16.080726601129705,7.055672620756298,5.672682488321317,17.108192079221705,21.926597218399003,16.39425397842767,14.217887503697625,11.999470798982145,6.603803507486646,11.07157588270239,20.064777716394342,14.19443192756798,0.3807723756740109,-6.742870578192543,-11.229838896376709,-10.613246577017595,1.2450205031758292,7.220230651367435,-2.747837464048606,-8.69384935564992,-1.7518803992293384,6.680217192927221,16.826851624738715,26.27781457329713,19.783820312013134,7.228382419268514,11.957786204235136,25.144971397289723,30.887134618074114,33.67516088308374,29.31146597069376,12.280562568778786,3.398097450989603,12.88207176550938,20.056227288558244,19.444517709375344,21.505245239247607,16.208545835607193,0.13237008090214886,-6.278573330461374,-2.9809543389972464,-4.1346582392635725,0.3970305080265384,14.188651522716153,16.343052130985914,8.062886534207106,8.07707088550326,9.306095497714441,3.001001554896259,2.389870026297906,7.594939584858087,9.359018730881159,19.990528288157684,42.0821204628224,51.142539709737164,41.851938888356905,30.042915167811227,15.817084817174274,0.8186634620021942,-0.29034752190756596,4.7009017907675466,-1.6939340805258731,-8.73044586052077,-6.540310029521727,-6.147730663039128,-4.312100133540884,7.827587304244888,14.487674474470856,8.197813083567054,6.415758337371689,10.492719212041294,10.315019051213577,15.079387004986666,25.54121501920879,23.82056093257409714.337670966357523,13.802944465874615,14.853279751960308,11.448683887048688,15.441472848475678,21.449747119894624,15.237200114398759,7.987658566229301,8.119146861556917,2.9035592054585075,-4.352862100120008,-0.9901056684087302,1.4117395854111923,-5.284781738830156,-7.445171912786035,-5.66651617161261,-10.32474354251498,-10.051311492968702,1.584662410235996,8.826069220408217,11.04418228260522,18.27843858948766,19.632667047448507,10.352723064602996,7.759701819073659,12.753872835362166,13.512970336921555,17.850485245679902,28.243300862189507,28.06333552088676,21.543574260589786,26.219602346536917,34.74308913362987,39.93260572007976,55.22642362252674,80.86265447403852,107.52266128964429,144.80543421091338,191.88638122728042,223.29728530107525,234.18153248276369,238.3157920049918,231.4749955835991,213.25879409240622,198.45274509884484,180.98060219342943,149.0365524854446,117.28068100601232,91.95568264065886,57.29357475657605,15.90301056990615,-18.974513018273665,-51.489015726587326,-79.93307770065078,-94.41712061963739,-109.98716567476085,-144.24292434718552,-182.60975508672928,-210.7156491286513,-233.63237274531008,-245.92423692397955,-240.8896815766865,-233.16765726195894,-227.09613530710237,-210.75008556202667,-196.1301997738857,-201.37480411081563,-210.69551757563875,-205.5160533478813,-192.0658527493552,-172.30027592687472,-146.13477380854465,-134.48096224295918,-143.4773467046724,-148.31715507933416,-142.08262898836324,-134.8115995116673,-119.22495135788711,-97.70785341459288,-90.57616501955997,-93.06743138144796,-88.50391839278917,-84.06408095115063,-82.21518561435414,-68.67228438407008,-50.43895291000268,-41.92071679166037,-30.157211610232533,-9.3517734915498,-0.10529202070843913,-5.422684079748898,-8.364005550389345,-6.760651342969808,-0.7356795597659505,18.288507796901236,39.18065792080882,42.03645856741725,34.7866362048176,30.55563125591045,23.718303435645126,18.650051173674015,26.985918836556284,38.83918792862298,46.28901194139257,55.68611395467773,55.775759984299796,35.74708024018345,18.03473663279985,19.14217430754946,28.09126404855625,44.22546486696122,70.31425872636198,85.86442422741413,81.00475886572522,70.52389299024905,57.10089011676671,41.06197742096731,43.1920598005773,65.92983702704545,82.61717901778567,85.48493043114975,84.3435465886341,74.87498560615421,59.85125023903659,57.07905890056062,61.129014170116335,55.517716812710546,49.16167572041608,48.54460065635977,42.25189039079953,37.34477580224589,48.21521871266259,62.28489106945065,67.8612201915896,72.01543423157196,70.20886145778789,56.83467777356549,50.37743649052,58.22898567485094,63.66133710594809,66.375756758014,72.86501913383148,69.0888208384969,55.048121901258824,51.97052537030394,56.92243669992682,54.06987746540148,50.09046326124192,49.08358531137705,41.95780102953305,39.08894598853731,51.85796471210581,59.37538254067104,46.97578477214616,30.20968968573982,16.544581569576227,5.6716938760454,11.63966404481076,30.50698563570888,34.34641819861426,21.059331279127846,9.478683053616628,0.7679112335931471,-2.9632814013631723,9.777832609288723,25.24889284252526,23.766233839210678,17.41928311579483,16.771332904069787,11.607447719762302,7.181865823028538,14.437740493357055,19.83909065144623,16.909671339336338,18.280857645575125,18.215202064281872,6.808904007715236,-0.5026725646343069,1.8253669325941393,-2.396795359107437,-9.525767459336238,-6.464067751983632,-2.884830617291593,-2.3111388480587585,6.96833917366858,14.005648405033542,3.683999260348929,-8.584001843450542,-11.747809895713447,-15.67061167876278,-15.149117143479373,-1.6940203979112294,6.963075778338349,0.7862889514116991,-5.76068364102612,-10.854873087603478,-19.199240526382695,-16.700282881043456,-2.505329887316112,1.7527015162602415,-4.220018073741986,-7.5533428910082545,-15.700255979165807,-30.062474788412857,-34.94464626843483,-33.00531775363297,-33.5256307737051,-25.3146995409656,-9.764429930811076,-9.51546581467547,-22.5020264484363,-30.59492629853819,-35.757354934486465,-36.486961618021795,-20.884806044119472,-2.3881383267394503,-1.8185233282221802,-12.77799320495875,-25.95562532109531,-40.28421704969105,-39.6996820191067,-15.955668217703352,3.8785808310738346,-1.601183543514459,-21.38391754442895,-42.58178813670113,-53.95945780007464,-38.442563680563936,-7.260298339570798,4.629591595018067,-6.889158462234281,-21.48913733182915,-33.852187184888194,-38.534095970492075,-25.681078457531772,-12.396148451989472,-17.909133370659802,-26.48985610292327,-24.450922522586687,-21.6400943171994,-17.44823704148254,-9.076897537510831,-13.049249548366447,-29.928058533093363,-38.02963736799559,-36.65479376962345,-36.79093941541716,-31.353213551698303,-20.60400701919312,-20.7028175531441,-27.41782151859294,-25.333303431893228,-21.00162251493793,-19.83067448233914,-12.624829217420373,-7.9468929141694105,-17.261349789760292,-23.875962469856965,-19.009355469997082,-18.24971746959491,-21.703392322465433,-18.808487243904253,-16.346659683469383,-16.210408119951694,-9.550914905895056,-7.318247992427058,-20.40687362120709,-30.204750581396546,-25.190111311673256,-18.500563222498904,-12.147369042013962,-2.452876695741223,-2.4480828886654926,-11.903293071229239,-12.745053701224325,-9.985168572621415,-16.538292490023494,-19.62194367955435,-13.044238403348164,-11.042022014072163,-9.587558035744285,2.069590609346009,9.317282305618157,4.707733250659649,1.989999700677207,-2.1359458160216835,-15.441589043411877,-21.711614431920776,-16.126028774805118,-14.89139671847967,-15.152302867508945,-7.867909528357197,-5.315167043637402,-10.600138617587417,-10.555209537914529,-9.952628964958333,-16.35567708612971,-16.09542690067238,-6.772439232853048,-2.8738655048830224,0.4060667480073258,10.61519114080017,12.557960843059348,3.4244246722219964,0.36681914057270026,1.7067180244843334,0.09965519586958571,6.790147832027131,18.59714786830343,17.15356735782992,10.819081978243478,13.516859562817107,11.77487327686049,1.1590098985071782,-1.812904607013212,0.27595300267177536,-2.4655349440735232,0.16273392881050475,7.171168858607284,3.727608096338398,0.5163158473534348,11.742255938218838,21.58256840946479,19.24786210293309,16.035091997606695,13.048536522936427,8.3486823855709,14.699037824481538,27.299941779316093,24.20876134597955,11.45785974704806,7.521637569393666,6.472372997421045,4.32992344789616,10.53223258334283,14.843046540829068,5.3444881140670635,-1.550847037953634,1.1295750317740862,-1.3351154996134327,-4.531262583294382,1.7786465169909227,4.271290524398055,-0.40873953580554634,2.98502001974396,7.8642352285200925,1.520487374491235,-2.2269715626082447,3.3162161651100246,6.0093573093171475,11.193377663881346,24.77463301378678,27.67210092926723,15.884687863616293,8.759318940169283,5.218214946852427,-3.1532827470034133,-3.5010192518350483,5.629748556678863,8.524858534424073,10.507242629106987,20.409576527349525,23.887109064693888,18.777751525723637,21.215977603633625,24.97590171483379,17.358494252819654,10.33700493496666,8.709459711266668,0.7155714778700673,-5.676034748556629,1.600828232498213,9.815413759485896,13.676226071944084,24.61987031715989,32.47735190150022,21.52655481689135,5.003118061556219,-6.39934877363455,-18.94076469132057,-23.076372472706044,-10.04282924113841,2.0274543816456774,4.963416293664305,10.615487277381405,13.200535255298755,3.9596271236366904,-1.704974647249237,1.441576734872166,-0.2940169406063582,-1.341507615143914,7.284684341641853,10.524562568687278,4.537466018815804,4.425641341622015,5.729041133406663,-0.6345255445382998,-2.1338711102609684,2.3907608968203893,-3.093177819020001-12.783653403625339,-14.095764387041166,-16.2925554828098,-20.1004265792791,-12.80322278265232,-4.595320251691424,-8.15602938767755,-8.476486964058555,0.8593780489054552,5.661333991064745,9.138009948335423,18.910605248016687,20.54787595481278,12.317245669790864,11.072028284134845,9.985002759909138,-2.637942450256121,-10.031200185542529,-4.168717571714418,0.639725866784528,4.621193236296365,10.533485671444106,3.519996493582754,-13.46537569940614,-19.19495270781453,-17.33497831406094,-19.43638780702393,-14.264444043655113,-0.44372773597524695,5.798065083859874,8.369317325403298,15.008287291194083,12.354036363657862,2.1548391948214793,3.55348202769392,9.851815303018894,6.8700567546051685,4.187672999484191,3.0595030587442142,-7.491462428290908,-13.534626160295572,-1.207337556753716,12.322052095023894,16.548292735893,17.757691998818498,8.326021137338003,-12.211502934127877,-20.3944348602036,-12.516360671320772,-6.100193769898706,1.1756572211754919,12.968764262083356,14.59518269969099,7.91808160758428,7.444042806099006,5.419698341747399,-4.042661068938618,-4.344052752587727,5.510858471898489,10.096629285220278,15.035266070479747,26.380006774440375,28.414103466197858,21.89248708539095,26.121521449063604,37.004538937529205,44.44252174880789,61.16846955512018,89.28896732392005,112.90276393585022,135.85820286222128,165.63107117513144,187.03042222212576,197.0369502358294,209.41161690971654,216.28298228176652,203.95621322167918,180.03353554032952,150.47706631480605,115.03940757507036,88.65214940113108,78.73135006670086,63.812011289004545,30.55738096621461,-9.543291007326134,-48.84035089418415,-81.25281192634743,-93.60594458423094,-95.86787453044221,-115.4976036426945,-151.78427526919646,-185.30011100592583,-208.85213411555685,-214.09489381139167,-195.4892461161792,-176.8742123774599,-182.76920431295235,-203.49692371635564,-223.05074531722676,-234.57220657290367,-223.15890772322797,-189.56608542262185,-165.818589793471,-167.17450636601146,-175.6572174172952,-179.72038005758304,-176.47076193670392,-157.11723820599846,-130.8520859573528,-120.45524454824539,-120.51085898819326,-111.20129281640367,-97.10479384207545,-86.7556132711322,-76.90213208522698,-75.36892284651249,-84.67285935445028,-83.88661212573379,-67.43379062171651,-52.45643829203806,-39.92267810265308,-24.787606215471286,-17.992177846437922,-17.861672203061175,-10.795844781829423,-5.013045604696229,-6.531155270952341,2.669404141066934,22.399293804608487,31.318848604283687,32.54080611491678,37.1292533231518,33.780595525689144,23.962553052646285,26.8203164581986,36.494480247745635,41.63840405569887,53.8940789826006,68.63977087932732,62.782222168242164,44.89642229689486,38.73144811695256,42.30184028649724,52.21207392298017,72.71159660789583,84.63479103254318,71.14082236365631,51.96276236568896,42.43811127046611,35.3610912665417,38.90413470121582,60.91203839601934,80.75392561883264,89.4715143674893,97.8322155561965,96.52431480719692,78.45750601359205,63.77453260395247,57.4047202993965,46.58095654794258,42.410489078320495,57.179184086049524,75.79167541538047,88.75376252907598,97.16687906075452,87.25635869418869,58.78671779455661,42.85036581073238,51.74534259465217,65.98390625344382,75.25633508655213,76.4602498394826,62.42115625708451,47.832155877478414,54.228014931705744,68.66009073434262,70.533679632342,66.31898028272408,61.187498424283596,51.61469690557748,50.42776798746955,61.69964826185856,64.82246229165297,57.75417988776342,55.52330938285712,50.429819635251704,36.33235836317731,31.225123723776726,36.82193563258386,37.82612797510457,39.63622552410274,45.86956439413265,39.93182041648274,26.909714413702215,28.193580569711386,34.62644681644886,31.525834499076694,30.297560515951595,31.643001804850005,23.040525393559342,17.180175627509996,24.74366234502576,26.48625143895983,17.922695765816076,16.834904304342263,20.705150113075504,21.85931522279969,29.225887181851064,34.53163472837591,19.237278092558157,-1.9411696593882244,-6.73190531374617,-1.5546667568544819,5.3151458130522435,12.912103278986233,7.403788738758961,-12.518313040914457,-21.749248558028356,-15.799049811659836,-14.14846171978959,-15.491581536970688,-11.461676298871602,-10.292862771847552,-8.90768961553716,1.2981272860726127,2.7531735842278957,-14.898971448008869,-28.382251168860304,-26.393726544218154,-21.51712808132589,-14.581479569514364,-7.736839608555671,-18.133542530040067,-38.05434424122219,-41.31198791311593,-33.569804263374984,-31.14497243779492,-28.205847050078525,-28.29523338000365,-40.88328059477072,-47.092696689882445,-34.23163779282531,-21.208713865251383,-15.502815511843352,-10.042164660702289,-15.651955949799618,-35.069357811235115,-45.68477626510637,-43.225359283672574,-42.63557194780343,-39.01539912354667,-26.894959401087963,-20.372048070626867,-18.32628575064215,-7.507686000592385,0.7964369150223147,-4.2391614428742885,-8.35836807663911,-9.280318210198024,-18.971224931070903,-29.873524852066932,-34.44900193774525,-41.19950112803886,-42.769985295068764,-25.851999829818375,-8.440093084598134,-10.926042772070081,-24.676464521354298,-42.61354981623883,-62.64186379354376,-64.29476291617587,-42.70762950556567,-24.71502217301753,-19.434317056337207,-16.837929892076325,-23.545103338513762,-39.37092662699688,-43.73418748225142,-37.13374545443823,-35.57678819992822,-32.18773212165807,-22.112784757476568,-21.820503164736504,-27.981359299970826,-21.874347823283696,-12.379910936032326,-11.12796516645669,-7.40787688364278,-4.5397249852771004,-15.491275771252223,-26.293436053598526,-24.53218236575323,-24.435627558847557,-28.920677141567612,-25.247968775255977,-20.41145710200489,-24.29013180400003,-26.793807458363336,-26.309913868208476,-29.707503919551225,-25.019260215421237,-7.5152397395713155,1.9562826209275186,-2.8556440174261226,-7.821866402393556,-11.28306467500429,-12.840324340185731,-2.9146037088364354,7.726523140720834,1.7081692190890063,-7.200421450254492,-4.778463585960019,-2.645951531048209,-1.7606735543051595,5.590630478106001,4.661970160142761,-9.546874442690994,-15.102566930963231,-10.347132445576054,-10.66018523359328,-8.07332918273712,2.65952881037853,5.080203061501253,2.050081113033108,8.386558769414465,11.042244568226813,0.7023733604504159,-3.197708313748903,3.8175205188881005,7.56633360858763,12.100192676152616,19.634864172672117,13.243264509274413,-3.578933385109403,-10.23418762574187,-11.318956689432778,-16.182720534378074,-14.025312733237959,-6.888583549874996,-8.323399159355027,-8.22825720990983,1.9512734794944167,7.122860891012238,7.648792941550687,16.788676778710926,23.60939483297594,19.73606595836211,19.08198443284301,19.496058240612577,8.939427042017126,0.5161407763621217,3.5915695608294955,4.352104316015685,3.7609197987404945,11.95564628487323,15.039873551816225,4.636010998296133,-3.5222503653874284,-8.093635632960936,-17.34370587412133,-17.797729384765777,-3.9159400319011954,6.03273423418101,10.197544262162527,16.972967259490886,13.89231644725608,-0.5450607542760109,-3.286987780592999,6.727214889681367,11.78468853807127,13.931971091197118,15.939398302571192,7.746921186293884,-1.6663065604005154,2.5678800044171477,7.325907069367952,2.6762465847585504,2.405375211021452,5.93518198768137,0.5530350156732404,-4.297097210054819,-0.599962742321043,-0.400272242059865,-1.1464456671566272,6.672896066819144,7.179466695365614,-6.064953684657707,-9.551710430259082,1.6358907193887475,10.436090948179759,17.62150619027097,23.55097627532886,13.807468232716001,-0.9981455542707831,2.8518746019528813,14.745444174327861,18.122189896759885,20.75653722574804,20.073459626329136,6.589230789727061-2.6890820105486286,3.076306143577711,5.827645734090403,2.9474539888356257,7.825623139729448,10.031195557073277,0.013841504908197244,-5.8825096734315405,-2.7059132614829244,0.017795049343310193,9.687251030034732,27.294165165551142,30.64909189677312,17.516885620099096,7.5584151272620375,2.617222680089893,1.4301091944903872,13.218290830438292,26.346823155590418,22.943659525738468,15.037688533199459,13.902427609684288,9.127325287815852,4.715370219426104,11.729293294637591,14.705456572423456,3.103050747019339,-8.212141213489597,-16.905787886363605,-27.351267147706018,-21.446691970245624,4.9833515443619,25.12206854251462,29.643765937563447,29.019752911373843,19.947018718914713,5.403225376517256,3.791448074412814,10.945871160578154,10.915422001853738,10.467645908829464,11.963729092150988,1.078443158975051,-13.551981780310326,-11.269452427179509,0.07552781282688903,7.148126718581667,13.4254058190274,12.551091841929257,-1.5202535085734041,-7.196552278701578,5.427792533616583,13.024501258158612,9.390149081470287,9.602364105822787,9.174503114029514,3.3436919855165144,4.797468306383071,8.620396390140444,1.4168713629404288,-3.9748163259857328,0.5181727570118349,-2.080959317292049,-11.565446511672572,-10.825074687826259,-5.200525676487084,-4.019400909235934,-0.8107154959642986,-3.466944176718093,-21.59838545482475,-31.784180897894778,-18.06097907798966,-0.0799988346582623,11.320288009387184,19.355852841820333,14.427430263945022,1.0446331894171923,5.041901834407321,23.75339724973646,29.822497175019016,20.154546098972663,5.424077339550209,-13.200215490201272,-22.10872836740801,-7.017612527146224,11.679839100110645,13.23084779336487,8.612883801752519,3.606015470048887,-6.400212932188924,-8.387898361078264,1.407788499660743,3.8352338178331795,-0.2832061193993034,3.4333149881891387,5.021188737389661,-3.1708919233836186,-6.404175683992281,-4.202342481236355,-7.521469756003525,-5.142260289390824,9.749062897261023,17.610681756821833,13.867253940355722,13.010295801046057,12.170693395316555,9.922509073715062,22.3897055119235,46.5926760451303,68.52701379040744,99.0498870507769,142.3205775295025,176.06082203271296,197.3876228140782,221.09314927325823,238.45234994248844,240.08513528504497,234.21839194038915,211.64669202422024,162.92713861393383,116.85290865137162,95.69980732697108,81.08554770049419,58.52731392871726,30.366580968586277,-10.201769267646663,-59.208353449380674,-95.22501967496095,-120.88119182484255,-151.8359332355222,-176.3985484838703,-183.17573240384044,-184.91571379398366,-184.88155258605116,-179.03750183427056,-181.76718634788833,-196.93554198749894,-205.91305771592607,-207.4885006115283,-212.13580055669485,-209.11904057343378,-192.86225818925152,-179.97435544832024,-170.88951990043938,-155.2969446138747,-144.8603726880625,-143.396587755131,-134.66305784869962,-124.450861770713,-126.2692635283297,-126.44962180172976,-118.86570789781847,-117.05900858011367,-112.34630596603122,-90.68435380073826,-70.29063486555249,-64.48166397051698,-61.000376431997644,-61.54731492030981,-71.76772393369117,-70.5877211799955,-50.09076824557217,-34.460166263648915,-30.143157661145477,-21.935474097981533,-10.486022545417164,1.1823828950322277,18.863499331062688,28.213391646194736,12.95743256345621,-7.3620218490457905,-10.587531231176671,-0.4112326095315346,20.831799529117873,48.97171529234925,61.685249150683504,52.32823260562279,38.92280754568408,27.250329521170784,17.983788809469864,27.165077863394043,54.050149632499746,72.83798964320694,76.41501784215951,74.29562290037452,62.45861509391071,47.53195050120773,51.0416069105582,63.42926600672722,62.206299916678404,56.424035391288584,55.34578890391858,49.84156499733808,47.75038861226142,59.63460803954829,65.8791101536309,54.79123085824086,46.533351187168584,47.917524904795826,48.61029374149152,55.7073742160637,68.8940302643889,67.2367697460221,54.67386385994408,52.18652052175905,54.44740100137222,52.18183487373011,52.90159542745385,52.47413829490336,44.89895271040224,47.23770758130562,64.06612715642791,74.32460448592686,74.6462227327333,74.04033846254552,64.31465037407362,46.9098073957377,41.45902404866517,46.32984443417962,47.96525930799719,52.94762472146947,60.538104641724374,53.70589977166179,40.89501807903712,41.74625355626843,47.15333716854809,45.57723163296733,43.282578057743805,38.00805147779154,26.8971254824872,26.526173748428292,40.77345673503695,48.76877418071021,45.33805432527327,40.46380377687978,30.14280257580593,16.504261840626146,15.03258105043385,18.880807677560412,12.749455953194456,6.610790264080694,7.587728877148006,6.323447949111377,9.085342511149545,22.824596148652816,29.59734989511835,23.6256390292302,20.914131407317086,18.371476319673963,7.368952765433829,2.058107008284825,6.937418114071548,9.301182582724856,14.37361905957652,27.90476804346887,30.893270982946696,18.12183212813011,8.638903445446743,2.2566578776601256,-10.650148842619927,-18.059157016817128,-16.865441498294253,-21.432101833218493,-23.314756826975618,-8.309211527315616,6.607656300341876,8.29627145378654,8.73825939304994,6.418108257948535,-6.849007458695688,-14.56345268243684,-9.338229470067706,-8.708066036756287,-11.21744183732302,-3.7290315148265205,1.5970484384485448,-3.779855232279451,-7.2341751738942275,-11.764989404685114,-25.943453243921137,-35.02690744956709,-33.53266298601798,-35.12832710928388,-34.5876473345171,-22.31979284463966,-13.243697098978311,-14.10572017862597,-13.473429307182645,-16.486003398254812,-28.79119659148003,-32.13162423590455,-22.36239124822523,-17.563990443591592,-15.54168764380706,-6.77019594203558,-3.4597666194126084,-7.460113801113531,-3.4914417394399404,1.820273357450961,-4.976137676254171,-12.81620499816097,-15.297216986417592,-22.70118483336185,-29.24504909443032,-24.57763034302785,-20.42065267057852,-22.58263253380722,-20.097534033043686,-17.344611851552425,-23.412892380159263,-27.621860708938364,-27.334238185273605,-34.17404444061399,-39.450228570473584,-30.990223411155498,-22.347223981273473,-19.403656472012617,-11.446035640692742,-7.214853970565832,-14.878733752526566,-16.698013399046857,-10.079002545729526,-13.586011154737802,-22.29344575104552,-23.137213002380456,-27.26207035658679,-36.63037696783524,-33.986513925130225,-25.479261573800258,-26.400590726612826,-26.064804292103435,-21.04720510489541,-26.09342928801689,-32.039456890593044,-22.542164086454342,-11.189276772927824,-8.497501772055891,-6.2136944844916275,-10.655658971356855,-26.471816378989875,-32.71128771582576,-22.390764569566223,-12.638753321493596,-5.233198363298966,3.2397680244761724,-1.8154966324037232,-19.989676049817493,-30.059414183115024,-31.49842054155736,-33.003717777270026,-25.24830838380197,-11.822107895233799,-11.862245631727959,-18.027360841030696,-14.10360719970801,-9.046416835697597,-7.736733574368287,-1.2075168402849852,0.8218557538638784,-11.50853939534025,-20.57478085381417,-16.651922988860914,-10.94182702919706,-2.2634564346023716,11.471099512698522,12.541474053175284,-1.9334714582027512,-12.540265828851688,-16.844205455043,-21.456866806594334,-18.491475349250628,-11.58306958512453,-16.3393919718192,-23.062028010545,-16.330295801998766,-7.698711572849536,-4.476853987698679,1.2220089623726516,0.039734015700852,-14.574043034387248,-20.781006406590397,-10.51014977128314,-0.03420313060260116,11.202573133642078,26.336241823988487,27.046109260309137,11.493941475172555,0.21586286727255044,-6.062556496422312,-13.159268848183675,-6.601703731723232,13.05808765447761,23.485831136147514,24.964984308024324,27.744562556689093,22.572952263072374,12.317229518885586,14.8491286092412,21.532115881375262,16.46633582911719.25882756403471,4.361085459328047,-5.726301327036515,-8.40337537333248,6.608113799989096,20.197938730134624,21.066624324289872,19.465062221692996,13.788649122361399,0.7818583898301954,-2.8653939522979557,6.184270318589249,10.384432170287688,11.908410027783088,20.009523002386892,20.4419302414283,9.499950119765138,4.374022792703568,2.9186247303119406,-3.0228613772873296,-1.290444980738899,7.937093434070625,7.999910774401027,5.265593846307111,12.754786382134697,19.018569794680985,18.939364030327393,23.87202712188897,26.668309737660252,17.594971075079865,11.362186841871718,12.48515369154364,6.8631449871381855,-0.6798474121603015,-0.599626804936763,-3.611129791948185,-8.77506682269898,-0.9395130355659953,10.609085255542789,11.636994975441906,12.5145035328477,15.38481282423404,8.12693507333826,1.3404480076795262,8.163622739398294,13.752161823081293,12.023190989302519,15.275335204560955,15.32674171788496,2.764061101125863,-4.021484441876607,1.0699021765430392,1.085962076255147,-1.2393027909306673,4.040130597663722,5.437040096636849,1.240846288936642,4.353391651891385,5.882873841669407,-4.824183047707281,-12.181171274903411,-10.478865174651514,-13.437873482347934,-16.658128460696386,-10.315295934562702,-4.6881198062293725,-1.5476156399150436,8.848023783945736,13.656184783649023,1.0220907232903116,-9.364180850221363,-6.409440938110722,-2.411752446760869,4.162814448364369,14.881168900309586,11.292048899698054,-3.2848575842730314,-4.196203981705505,3.5505586455040428,3.271663051415689,2.294091533437759,1.5186466048386567,-8.449726226271677,-11.414231798415226,4.998208501561139,18.117872373740205,16.539493585222484,14.362187298796973,11.779852293946854,5.939610891092151,9.571499522408155,18.234861360900403,15.099520647077206,12.755168948628526,29.508815945259258,54.121720488527714,75.51672845730631,96.32014569248322,109.8937421600909,118.43861412171222,144.4511064916818,184.69010830727444,209.94237030384895,216.67225889298567,216.41385956161463,206.286832398076,190.19807557019286,176.34129039374506,152.87059440031666,114.87378428594334,81.41265197148485,56.64903580137917,26.259949951901916,-4.851981299802994,-26.29623314315066,-49.11851150346587,-79.08915537583479,-108.12534065108451,-140.6828160081403,-175.89320324283165,-190.55727533421756,-183.07505768322056,-179.77095647853508,-184.6098643087252,-188.76961559946636,-202.00874425515158,-219.75884054520083,-219.0588086930832,-205.49600539553185,-195.5183080741196,-182.90438096521535,-171.68225666527042,-175.8546012015933,-178.81789159588763,-162.04413249886412,-139.92009806599833,-123.26176793133874,-107.58535705552455,-103.29887470060955,-115.07069746981668,-120.63587260558434,-112.39566774367174,-105.33449126702337,-97.69676651786324,-84.9904810854825,-79.69645667180083,-76.38041650774895,-58.17739299961184,-38.804701988914246,-36.34782168021149,-41.348257351550515,-46.182671583550196,-50.3700210408624,-37.90735051511406,-5.227742163768552,21.23033327717206,29.98295463417849,32.313940609427775,26.805824770259296,15.110271049042943,17.881456740648815,35.88668748445784,48.7021623414471,54.2230204291465,55.897910594008565,44.54615777004928,29.253782967147107,31.463970115878837,44.10233526251693,52.131591564176375,60.68196819695029,67.35944702178286,62.416949323208215,57.1615829141831,60.54682771032987,61.251069590432095,60.30538430633373,67.27719161180553,69.2513038478659,58.45339078564487,53.80788808288301,60.710718246358574,66.40823728437067,73.65048455298876,81.53088323283126,71.73262588969814,51.67460386693066,49.18808709491596,60.69266734717941,68.72779553369546,75.92763750214557,77.43526964624832,61.66387260118232,47.407731678401646,55.218177158359055,70.43667182106431,79.07815116139825,84.35141073959481,77.6575545675019,57.108292528772054,46.26738200802121,50.161452848825355,51.60899553120956,54.12367795154627,63.26131443770999,64.36626415533976,58.2583589536456,58.164040664895516,55.689665013690785,45.65674704011181,42.916614924656486,44.85010676821368,37.37079141718539,32.20335580002005,40.403255439218675,48.08319786289344,51.56756634712212,57.36189398876634,52.399629596534794,31.97548536534157,17.988413549677848,16.191768057368662,14.565072762867526,20.361006435113456,37.56854404235624,45.20364765080019,37.64240185118791,29.110615149307073,17.631830882908883,1.8531507259857554,-1.9692480254609421,4.246028915517,2.742648727768386,0.3105385795591651,9.226433693099576,18.386515708569497,22.696314421005944,27.296725037104984,20.007699166297236,-1.4100421796340985,-11.244234614579165,-2.5501202145405055,8.290195747396758,20.303148780036114,31.035591106428093,22.67236442834239,2.163130873348499,-6.264660142963351,-6.6267331106948095,-8.70158414654104,-1.9387469395441466,7.97687211181854,2.0830146401846443,-9.454152344144951,-12.551165996259918,-17.0180676520652,-20.305436012982785,-10.244727069492832,-2.0435208293448426,-8.92375559367499,-15.066962249619152,-15.017008951577317,-20.4743867560413,-24.30140620445768,-18.296016508577647,-16.781304992334185,-20.576122152513225,-15.578904506468731,-13.011813798199167,-24.22781554787198,-31.93065907735572,-31.811574678253255,-36.9681596413839,-38.91933145965692,-30.212234961293944,-25.913707715963238,-27.228175551346197,-24.96094500628874,-30.60750240359616,-46.45928498046322,-49.08814284549553,-35.96505562316641,-25.86254165189206,-17.445765104507228,-8.511385150254267,-12.862762073500598,-22.749880590866727,-20.131136338832587,-16.7163604954468,-21.936413410332154,-20.241453514344084,-13.209421769578086,-17.023582287688946,-23.808388695890986,-24.69741022451473,-31.006209815153692,-39.27307274892548,-35.31267511212714,-30.284446955988432,-34.01417125919666,-32.780737385973765,-27.319642338114217,-30.336687463018524,-32.564551808565454,-27.22648180246849,-27.07248515282204,-29.758750386185167,-23.23969339623646,-17.950752749988133,-21.574485236856482,-21.047985486192033,-18.284563493684455,-25.429497042860707,-31.439171102608704,-28.190834186299888,-28.807120164247163,-31.31089380319356,-23.91938640467714,-19.021179289078432,-25.55946780060138,-28.504028546886786,-26.69281894277396,-29.829009577025467,-25.418133550793716,-8.021992417543627,0.4713812951345686,-6.402857894892953,-16.08530568491026,-30.278465181091267,-45.05721203929815,-39.921010741908,-20.02881002356574,-9.289948444832925,-5.880212646713037,-1.06102299040267,-2.958704461040531,-7.818843521430312,-4.127638885874983,-2.8214937638021387,-10.468303366872238,-11.040300007383566,-4.189483470306616,-3.7297890837604952,-4.044872005786512,-0.8867412912437707,-6.617102991202254,-15.952472307783019,-12.644637273467978,-5.3632902198769425,-3.756753411481713,1.217649483966292,2.986015457189126,-11.446267695567247,-24.905924635428576,-22.756138320381304,-18.011295054621577,-12.792342288985644,-0.9297034840327987,1.140654526640919,-12.333468364331422,-18.024485184881865,-10.281937215693684,-3.2014498627069314,5.862616042514246,16.177966307473127,10.283587221075305,-5.704378120195841,-10.179259230112105,-8.648180149405446,-11.097912719569422,-8.116703319983223,-1.65369790799333,-2.7703663849292814,-2.08104242206078,6.238069018788874,6.2861671280392555,-3.441934176553144,-8.194205239753234,-9.748733386264103,-10.314641659182895,2.026236526138521,20.44785172086206,26.24612235899883,25.733644548133043,27.31859400279998,21.451284578242387,13.11357315282601,15.20447861607406,18.081288274529555,16.235950992500047,21.41958709720921,26.90857188872166,17.881199115381747,6.211884836222285,3.902050091995628,2.3532984776720633,3.7781410397348623,15.086664250287708,19.98291223180076,11.2273453377810567.093098542852693,8.922670530109018,3.7960489825264085,-0.38559145656307825,2.5067559943080227,0.6546873122715493,-1.7304893810432764,7.454843613660305,15.260162860356084,11.928290145272083,10.798865614730548,12.143613181922134,5.409414677828566,0.9968328875840706,6.442224537036727,8.946120711786895,9.498587928723133,17.601514107966914,20.023253114308183,10.821313114266264,9.618394749497629,17.84132639251186,20.358538426906485,23.124636263292196,30.46385735355677,28.836231488355985,22.68460999712759,25.286399760443746,24.145965766098104,11.635841250500892,6.263651350883588,11.181868928533829,11.961670223115938,11.599488851614652,12.323506476989314,2.265019130766514,-9.392237347922865,-4.080544389263029,5.833145609183389,6.032602046540517,6.3685644954949145,6.3192664334146755,-1.158469827302997,-0.7897528483224239,12.516101988547558,19.125608926200304,17.93427435906197,20.53363472311491,16.782832413416916,2.279445701382726,-5.0970567449226625,-3.7317318163561417,-4.585992834928064,-0.2521852980859949,9.966497198816793,8.801028093996576,0.8228943507641477,2.893283825611099,6.289662964824996,2.067766451764119,-0.05788994252847568,-2.901892232932238,-11.506436689196361,-7.643802233794639,13.027312084777309,27.69445928314002,31.549377959289515,34.28204529215972,29.505690881173813,19.381114556846704,21.772649291272792,30.452545460370068,29.360798277859548,30.860250049538713,45.37641156988181,61.242269967250515,81.50897044847902,117.02806206494537,153.68484704624115,180.65966363523472,205.82005837480335,219.24436706592402,208.7143973955521,195.5968497201185,193.447486833007,182.7441248617314,154.88606801715133,117.3249449402353,70.62822736562242,28.437127189927132,11.275352809572032,1.6444621540072613,-31.84032898724561,-79.86842928257721,-119.79539359706645,-151.70252573696118,-172.80293771388145,-179.2537567473991,-188.40978746672218,-201.95930914318387,-196.79663863353463,-180.9096896024386,-181.18953213836602,-190.56305466229105,-194.2931329436536,-194.98685701504658,-184.73350537679667,-160.45023352851663,-147.98138388794436,-157.93094799709303,-167.06793890841433,-163.23533662258046,-151.7306094499403,-131.2861928063052,-108.5859251632925,-101.05186494872687,-103.68990728123177,-97.9054632984075,-87.33452680473144,-80.80642424137989,-72.02509973336794,-64.80034063718156,-68.01332111874443,-69.10519248805306,-60.60579213292583,-54.23188368237685,-47.450791954956934,-32.070191690181744,-20.91586261694227,-19.406253024320716,-13.396475380353742,-4.445763160978506,-2.8794624046169672,1.1810494380705412,12.407360338308479,17.319348730632818,18.404771096125604,25.0174307237953,25.437095422984584,17.384684904600945,19.74624929376575,30.655997463323477,33.1389554059178,31.498163539554614,31.65132631339239,26.55470859742949,25.882907931198204,42.01865111445344,57.101226410064015,57.552825208383624,56.85217239816241,56.61241610147211,47.801842324707266,41.338780290902235,43.51794655915731,44.27255650790314,50.54461805691963,70.93859888485876,86.26868438709771,85.2803491097289,80.75029355117196,72.2487782449559,54.242745277596185,42.32446108886704,42.080458601624194,40.54833751807735,43.542320426768626,59.19669808947163,68.58311809213767,62.22695947115474,53.98732142214679,44.23275925037694,29.573120635272026,26.55792495824722,39.212466027669535,49.86497533303094,57.388356448026755,67.42808182812104,65.74927292734927,50.982009392430754,43.54496220631577,43.177802137194334,40.051245009337826,44.38748368155482,54.264465818712836,50.26242123701144,40.05197405818247,40.72684725170292,41.38686497502208,37.68076104997176,44.08973674384658,51.79388277854042,44.53140460571545,34.033818569691284,26.374279971908564,10.933596683485774,1.0631134668729945,13.730820621773749,31.30774717203612,38.89043508093198,43.39344388979558,38.94948998941881,21.330700760223422,12.181842368211509,18.328655769490783,21.458832201914678,22.314387809445535,30.03904850558763,31.08370682704052,20.150422600515355,12.391131153045293,7.723355429527235,0.8388469433960868,4.437541642458354,17.048037218396267,16.92585518857836,5.3477905960751215,-0.3804990985942513,-1.3123835226654514,0.619984018220628,11.06562468542862,16.189729311660187,3.4531340701988262,-9.093363180571144,-10.757100817892422,-13.354844054292274,-13.206332616328737,-3.414070776536161,-1.1124995651452543,-10.210576128157124,-11.065480660351552,-5.931219891522936,-6.683681772234443,-2.3235526274219525,5.997790314921742,-1.1768663959980765,-13.282142995006218,-8.594742289149035,1.0243817665361656,2.5405237142637533,3.9002420615946036,0.8623417441153038,-12.018430519669081,-16.034012860352178,-5.3760376825064515,1.1575221820221329,2.404371802301899,5.75554636136101,0.14803655814264438,-12.571360433873599,-14.460763097690116,-11.545928568379555,-15.212769701629542,-14.767770951796727,-11.65016271454012,-20.655844428022142,-29.957867747859403,-25.1261570181276,-20.551415127355142,-21.138972222353612,-13.83125021732936,-8.746628923086757,-19.60464642154847,-29.860351375151573,-29.478847936373256,-28.79334092179334,-22.92169255053087,-7.560817457105492,-3.631350088050769,-17.544901370527104,-28.592203921862716,-31.460030075059635,-32.30461599859352,-24.200096605222143,-12.698622914799776,-15.854078207962786,-24.87637249131604,-23.67806409435437,-22.104729189389246,-24.90252402608186,-21.40877770140053,-18.391717403114036,-25.204490852967766,-30.289245301066952,-31.56383486078216,-40.548782381541265,-46.93540474224109,-37.397905672649294,-26.190085041631733,-20.848621833426243,-10.872186176691404,-4.963353323856373,-14.130896467730798,-23.070106230895092,-25.95303021770133,-33.645980040464266,-36.26733567578268,-23.67800628320888,-13.60215776553906,-14.248001982063366,-14.064749443044114,-17.486282206771968,-28.67370845156651,-28.764039375589675,-15.811568546527475,-10.494170265649633,-11.768236293880602,-10.97876662084195,-18.40993696984507,-29.189955963646245,-23.95936404608828,-13.194256807917622,-14.110248168271221,-16.24399807512082,-16.452068921248006,-25.38041142612256,-29.956888362191577,-17.411082944697327,-6.912607395102491,-9.40651506355984,-13.286722414001932,-21.012526869206383,-35.053663934866655,-35.53045189404354,-19.38443323170812,-6.664645158506916,1.773423538307188,10.503354979277193,5.7258324571391865,-9.521905097695202,-14.439344585689096,-12.216136235888452,-13.138076279584148,-8.019427537168102,1.7946765844836872,3.034690870590697,4.9895141712460624,16.588321222745794,19.024127620582732,5.391405245402218,-6.566096322303053,-13.955877511406946,-20.462922231444413,-12.653203245211142,6.917482589529078,14.28246945959739,9.772993135359833,7.612793132528624,2.3254691330267945,-4.765657393898909,1.3755633122364088,11.393353963423431,7.652664139204788,-1.0376925245978739,-7.172052349165705,-16.257944776356645,-17.40374518240257,-3.283006811428125,6.385304900222094,4.051654864592486,3.162588595928447,1.6730721158146382,-4.383646438557164,-0.6685277042563444,11.595416235624201,14.1495336532858,10.97299061505239,12.973612645492206,11.622972170274775,7.403823486036194,12.688221763110784,17.372483072774028,10.058267363253263,6.121262822262429,11.028088789549916,10.847294411791617,8.786399217581904,10.943969715156197,5.348187703695265,-3.9267578092508955,1.2874929567865694,11.420037387385944,11.397080403054858,11.696169893624521,12.87550093612789,1.8570335234401232,-6.377910691735977,6.102294726879576,24.010698051284162,36.1859659692157,46.29193859512863,39.799360157349994,11.469299941528474,-8.166065900450619,-3.65112616411273,8.457083308770407,22.239646315599433,35.025607133635845,29.35849705211534,9.598140025820976-0.32911059284767874,-2.3534819176680033,-6.683114820524857,-3.148300429132771,7.526793287029891,10.263119118549218,10.326803959946282,15.81656320762443,14.95442779574108,8.503269386614566,12.232203708361627,18.95899469647169,16.332316910033953,15.527272216035643,18.561168693627483,12.287835884888114,4.809324348659894,6.657748227852235,5.701589644105807,1.501584923570854,7.873943614352635,15.654276152776612,12.525952850146941,9.283085724713427,6.333991742337487,-8.10194969856078,-19.555197252348883,-11.633740590808603,1.7575241863816324,12.163152174058965,23.9944655194847,22.207471465210446,0.28116594335386225,-14.469950594983873,-8.936945986091878,2.2119318795750083,15.871098145092475,29.536834113746227,25.286439677655544,8.83174341937448,6.0041575142360175,13.301368035804822,14.723821464814154,15.33419126996271,14.657947226350512,5.919916046809936,6.195387579700713,25.071778678886304,40.91261283699933,48.75023512672758,66.04748228972689,89.05652807628074,111.24185764121111,144.55418991384857,181.84582843738085,202.4119294420929,212.63107093843558,223.24749916032744,224.3439519403725,216.41870103599248,210.33987078234242,194.76796118692863,160.36767923013434,122.50298954854301,83.55944494462652,34.16863146317471,-9.637582661342858,-34.04683122300841,-52.138282746893076,-67.63590967073903,-79.6146350420131,-108.99011659388663,-155.06543357266432,-182.80662212300206,-187.15926562802852,-194.11767164482603,-208.40519988757916,-224.14788457069443,-242.7778976724091,-247.42817377647506,-222.2196213772354,-193.66230716049557,-190.65309701275154,-200.84339014852782,-208.01107443585585,-211.6094968132244,-201.25174875110557,-174.89141024925982,-155.6892478916388,-150.4324327204795,-143.3334354758643,-136.8563231205181,-139.32879039387964,-136.90189295634468,-123.34962314737194,-110.14106419230032,-94.0533825636681,-72.92367326810677,-66.83846935379873,-77.65755630506304,-80.90448167480187,-70.562230749361,-54.578923219221025,-31.40122853625723,-12.050231296030923,-13.538885711917573,-22.195912702481504,-19.83942977800624,-14.412175913929236,-8.107588558100215,6.519630422305662,16.923373349094774,14.315723458170783,14.324038783272583,19.91259235797814,20.199474520506566,25.512671135393603,41.56092694998412,46.99872735487106,39.187933354128134,38.314065143839315,43.21295917648495,47.975868082250145,63.25465331597291,80.23058227016593,77.96151206882614,68.47627808185675,70.06300262984118,73.13403519239162,74.30467900834518,81.35012641901676,80.97393993035244,65.98502376096117,56.507909212061904,56.966745754028054,56.23571892097103,62.79855735432105,78.10035105433109,81.95541731979782,75.22518386092393,73.53790932371697,70.92367818775224,64.2416768824548,66.98340290778212,73.3386549876127,69.36562592010469,67.42718419040975,74.89386003578171,73.7160162521336,63.26217597764456,60.946164713820956,62.15547926347823,59.55891167020111,63.66122127749914,68.5380974688561,60.45642570666472,55.18590342463315,64.60959031366109,70.57951144320847,66.6057018029236,63.03889725563153,55.450659794082696,44.32304683854427,46.481649964904236,55.26299355426333,49.29213529070998,36.8846934072157,33.35883867418716,32.679082055005615,36.501257999356206,52.020629208349504,61.09286804910222,50.136497544381776,36.0658534573209,27.2788053656706,16.759699558587673,13.10234764691598,21.695481002089554,27.970075900676548,29.505073950567976,34.093493308583675,30.56608601825002,13.351751926606424,2.636339629432256,6.240764713975322,13.549015002896905,26.03390322785753,38.230678443655705,27.76599402780698,1.881936134496689,-8.268544742633715,-0.9263938737647166,10.454204404574218,25.271855551701336,29.572997821857363,6.851775862460583,-20.337904044183738,-23.518461012905153,-10.499329980075107,6.673190677280891,25.90386076502192,28.494802287240663,3.5555371696647224,-25.274163103075825,-38.61668163556079,-37.841243419620184,-19.559408108292097,9.604292073778417,21.316311179793576,8.177532121854897,-11.548251373413937,-32.032291293005095,-46.98222958048144,-38.99803736927615,-17.01203121246953,-4.375778726993772,1.2584440895881044,1.7240467300808042,-16.52924575721699,-40.611545311587534,-43.614243341161504,-32.45514812321601,-21.924819516884362,-8.299594370769771,-3.2777097505040436,-22.685106460931234,-46.402406901335176,-51.50626269330197,-43.592620519366804,-26.570046102650537,-1.1807961826076445,11.060204122815172,-2.989942015416868,-26.068829968051055,-46.58586500758938,-63.7369231563896,-63.10150087033972,-42.847972840932286,-25.99796411296003,-18.991630899285802,-13.977532683344965,-18.626579206819613,-31.309226754091615,-31.342100473491698,-21.083953207747598,-19.65802005181174,-22.934836652415836,-23.442739998430334,-30.40353038628313,-37.76683151775252,-30.521370420883947,-20.8265996041871,-21.47213979695701,-21.052795900563552,-19.564437361491507,-28.85672084890618,-37.43513193123171,-33.691067363824395,-29.588608893200437,-26.67011688284581,-17.373104919973564,-15.887351188279066,-28.85164892954526,-36.46526834784506,-34.30233599867331,-33.420910338907795,-27.232889533696458,-13.321037132816596,-7.6494379353993835,-9.901022594882534,-8.066132088041165,-9.188479824715428,-17.487367223113637,-18.55426023819222,-14.091918250749686,-18.23195348591801,-22.518352399933452,-19.518400353588742,-22.18431246106566,-27.789003691644503,-23.740149959754216,-21.212562097725964,-25.691448870687754,-21.201931794042366,-12.336478551135116,-14.88524727503289,-18.12232355391592,-14.450704809592423,-16.090115985782916,-17.541394199361235,-7.023646237886802,1.0864394655403478,-1.2956979596871385,0.47264150827021867,4.621998342813619,-0.42408956184093904,-3.980851381781616,-0.9702136390842393,-4.614422712536266,-8.459194801597768,0.12368674182013084,5.926642385812276,-0.01437147233474878,-2.586590985872297,-1.7429213486383084,-6.79373937906191,-7.629092561800054,-2.4094736885345966,-6.433103286337745,-11.774768586749484,-0.9000518955553307,12.415395987799378,12.963920103274155,10.889173087861414,8.457330959902496,1.3185143128592838,3.0034345587672275,14.18849853650565,13.907300677762029,5.153772845848159,6.231373401898918,10.221535498057154,7.626829926147343,5.748819625944787,-0.21620494216626684,-15.979047513412853,-21.704407373490874,-9.65314020309603,0.30999722851031186,5.578598812758597,14.721064220448655,14.18977041368436,1.786650491095962,0.9049190195421881,11.350387015340619,15.534015487833184,18.487209432406146,21.55265974833432,11.089768304554447,-0.31326248189402506,7.00418353725916,16.992933212279354,13.940780550924156,9.42951190028382,5.900066114745287,-2.217619653123791,0.7627098710030409,28.78135068878226,71.1633034103347,111.17550692876306,137.46887000574077,139.69502766490504,114.5891445068896,81.701918897155,71.3603774654423,82.17385976038801,86.50615500063188,80.73893242034136,76.60247008698455,66.63736079970863,50.68701517084567,45.079668113168054,42.733342778346774,31.483758290033414,29.07738721005435,40.57225446013967,41.27970329679134,28.584085364171084,23.02536805164833,29.643928026497917,40.90037592689231,51.712177855711666,56.825338474603434,49.05330959725564,32.7948947755391,28.589645199632542,40.39656936368591,44.592270562620264,33.61692173787242,22.779469858106303,11.114426513607413,-6.385251999273855,-13.027112132516052,-4.889868293244758,-0.38463546544748944,1.073828499906117,6.907600431929591,1.0230880282027717,-20.04341675739775,-33.9538519592342,-38.76849802798719,-46.49722383535021,-48.42025864483237,-42.74753314341913,-45.72759373779782,-52.104671316959454,-48.58574194688468,-47.289236871724775,-54.11753301252921,-56.26309858876853-59.17643298683477,-71.49638594365972,-80.74300585205278,-94.39228166437498,-136.6729020628419,-193.4452144668338,-233.91974466261314,-251.1957398638828,-241.55552381896047,-206.59614421933122,-176.74819204812894,-171.4375123099308,-168.00492512940744,-153.40601018668997,-145.3894664358329,-145.74644747159198,-142.98170745140592,-142.22955757672537,-139.67009263611416,-119.27493580825865,-93.62358685026572,-84.3342490320162,-81.58100101769372,-73.31509863064628,-66.09226615273823,-55.72552765367965,-36.70143967120066,-26.565142542712042,-30.985075163475095,-30.29628768844887,-22.750493302724255,-20.35054147210177,-16.813606798627966,-10.947306539206476,-14.798453647786435,-18.025382383913012,-6.1002768483075815,5.644135682434127,8.593948969120529,16.376681652852564,23.704063245929127,18.35795314979504,12.13164674693973,11.168570485742833,10.282609074176857,23.131289734185046,55.52148355503609,79.43245479097027,77.91374411895603,65.69364358361699,52.30715147808868,41.38799376347756,48.08211487778593,69.5871647416549,82.93252344295499,90.48901279401673,109.08954274789178,132.73059961327874,156.2065743549919,190.11604978804726,228.60976427119732,254.64193581303508,270.5443413171673,280.95282645813154,279.676439839261,275.7314239090698,279.1095293707474,269.77341644425996,235.99679674355622,198.523060064058,167.3549249279689,138.62438378518294,116.98865781105579,91.8532459122358,46.48681287115613,0.23583617363925313,-22.637377810215742,-35.43227535386127,-52.253294710039775,-66.0400200908421,-80.64614462258363,-101.59206403905033,-115.47520695950125,-123.86680193895796,-142.5890724528599,-157.80611681811232,-151.18038660327088,-138.37791910370788,-133.02202108038517,-130.7077350026671,-139.08590716656764,-159.9957481488694,-169.30988368252025,-159.17338060506137,-146.8648287937638,-133.2291192959522,-114.3385937595701,-106.27338384458443,-110.96765342831824,-109.24959702952073,-101.97550581724772,-98.83073217137735,-88.41545038418435,-68.55758978854999,-56.70830359203134,-50.08132984686725,-37.23106479299153,-29.494553316469087,-29.190110077860435,-20.33960726257643,-9.439557374349606,-9.456093239230617,-7.07330610416089,2.9341360256558153,5.8270481119895745,6.393362795823757,15.898756786759948,22.287122245016704,21.53813632233871,25.607410558150313,27.773650667812756,21.54664409105279,24.845036860609266,41.06968840249389,50.84399718030008,52.145858348574,51.36793655974084,42.91337187695632,37.32315964857412,54.03046512466831,79.33119362799579,91.53279270428163,95.18130706587922,91.31979610009459,74.46130097716508,62.827873678639975,70.14445928051269,78.89516030420937,80.07779235269935,83.24884648001522,81.72601837737427,70.83187992404319,70.99007216333071,85.1293810314798,91.01001159245556,87.93349281516565,85.03758606782594,73.22590618414353,57.98182020237665,60.94260191823477,74.04560090002279,76.87193990194208,75.23599410022456,73.45002212499503,62.143314005110966,52.248830491623714,58.402408054217254,66.28612728899796,64.83798899534025,63.7470537066703,61.05728069036975,51.59794882001283,49.314703579691376,55.772953153278934,54.032330299929114,47.014355764269865,44.94378712702478,38.674224999585235,28.62648735543823,29.89140691778833,36.71315086370728,39.0212863479887,46.693944324755975,54.97321655739795,44.68728318929581,26.73004202090938,20.824948004371933,19.720300227810686,20.20860150766675,30.296628718693558,35.638353804615434,23.83174466819545,12.979952859920003,11.221428816261785,5.152024440897346,-0.6031129952225109,4.067412844450484,7.4690116439018635,6.819438681910466,14.072701512670951,19.712852655881804,10.093926874957225,-2.713868935998043,-9.91116392111259,-17.253410586399383,-17.486520147386678,-5.105501972282931,2.5457997583320098,-1.9225490142421933,-6.7194639691511915,-12.657183227416395,-21.96378098920684,-21.553982779397636,-14.943204815263293,-19.76638879394673,-27.432057186645675,-24.30447265742869,-22.158483730836526,-24.560073596672456,-22.07269866266854,-26.005878871958203,-42.55275455864691,-49.35542632313516,-41.895370358253984,-39.720059234339175,-39.762510104773426,-32.4757806520132,-30.731993539513795,-35.04481096111549,-30.67363827331173,-26.571322889129316,-34.5383683787532,-40.86209281193217,-39.414406684024044,-39.96302221973435,-36.23801519653277,-22.627850038219016,-17.462782770281216,-26.844246362813067,-35.4073935549797,-43.50224220717325,-54.636235433906876,-53.693839034422545,-41.24650957635793,-35.933889150542846,-34.481598016053155,-28.06227688973258,-28.448104179347936,-35.96205017104903,-36.311265860855556,-37.60088406831724,-49.7426251905612,-55.480986510229336,-47.321130436941026,-39.072959905963,-29.61365701469198,-16.116608735568946,-16.284275548642142,-31.898332232837006,-42.75654958107562,-49.13360325138948,-59.18981883267511,-59.43943736996021,-47.14487500055014,-38.91895236057024,-32.971159477074174,-24.415191418946527,-28.188701643413182,-42.0277247336508,-44.99119457957376,-40.02977174310744,-36.79773345858549,-26.425398418893693,-14.398707722410533,-18.113995032814355,-27.68444190299774,-30.04188441731008,-35.93583296975415,-42.56252263248266,-32.124060851236194,-15.27776707587633,-10.357012507770236,-10.52354259119878,-15.538526485281652,-33.66334419017368,-46.16982857041067,-36.96618282125891,-23.31787029987575,-16.03314098626005,-8.35896554827982,-7.296162933519664,-16.684321125356405,-19.703055997285773,-14.719496153578906,-15.785214112283498,-16.54972827554955,-10.574892182897422,-12.200111322621714,-20.295184728521296,-19.572834252627096,-17.110809266293927,-20.07426500827033,-16.26661243818998,-9.894009385872838,-15.173031550088684,-19.215515729427537,-10.853570528393583,-5.4281213289140124,-5.927190485287019,-1.9804530289993916,-4.382298751933186,-17.961616773656935,-21.196892723697164,-11.313843162457298,-5.908475204038538,-1.8222056131200628,5.580682379078848,1.7355899214998685,-10.580841937283722,-13.270192022874099,-12.364789797977886,-16.639437496689876,-12.325772578872368,1.652355530292784,9.378257533582216,13.632756194382683,19.85654771072875,15.101358936723832,2.5199585498649513,2.003918313822017,8.040276348543205,7.753571064144689,9.973367397656625,13.565691198221852,6.057821353617756,-1.2054286766266484,2.46433067842449,2.6081275913221114,-2.621966675065685,0.4223815329054448,4.516498302630825,1.3317370995483957,3.223597402217055,9.517906894767313,6.900881858610241,4.256210098822093,11.548485982160738,16.035250583066993,15.815091960983484,22.10628879331275,24.160389165513855,12.513854866572137,5.0197509119379085,7.34624411990588,5.802395898036315,5.968858750167821,14.872283345311011,17.133972565511726,12.163107308401035,14.39378943092213,13.50562761975073,0.5078233256236393,-5.076529949058288,2.553851626087643,8.905309652095298,16.62783291917,27.44831538559758,25.26606164104199,13.996714028970539,11.917192669037693,12.309268804864285,7.232714875243718,9.25046520331478,16.73515909859732,16.051423808896686,14.371382054628002,17.54385433437135,11.930887826045023,-0.8628725080912911,-4.212915654809688,-1.7745389649895378,-0.5724033296578918,9.337360083271061,22.155641553762273,19.43910067731568,10.600401477664878,10.049550648928044,8.391625987490343,6.1778687352287145,15.325582490636512,24.288131924213786,21.561549288016643,17.69275544274155,12.58368830454225,0.2772871343515808,-1.9602120220105599,14.386355568281495,27.371670053987977,26.23725448897787,19.85622814897237,6.807924894414077,-8.189926328525464,-4.800275757895875,11.469187526597528,16.68458300874793,14.673032244835836,15.899078761367683,10.052488945923631,0.37506004334400567,4.39036199507704613.896287206025272,15.738113319338037,20.475665604828365,27.954349497543596,24.430364887803155,19.954104634772534,25.307283997810366,26.228503149523764,19.786176054521995,18.400026584643285,16.810744047541263,9.93602434252297,10.051766016539844,14.31630844521742,8.216957678346905,1.3233257202138002,5.503872982023426,9.980074216773296,13.10222426923588,22.559040722939088,24.363090563279414,11.670536597977636,4.765300939260165,6.537031853517863,2.6044636403220123,-0.007302059489811885,4.779245993929003,3.4408495672582102,-0.9122427999323781,5.415564044245801,9.438263304681264,0.2903335444682371,-4.672729809982209,-0.9640505816422471,-0.30708803479029934,6.288272763417107,22.57430074758271,26.25194289057999,14.922846773678103,7.269538125940152,1.129280683888043,-6.473056930557525,-0.7531159339179929,11.782157711342151,11.030353365476365,6.678433070442985,10.697786342928318,10.85795498826458,7.967520272298765,13.111241716642182,13.916488922032741,4.368625974951819,3.407588936900345,11.191858882047828,12.710040480300291,18.444019159937042,38.02373664007391,57.50549428301394,78.78180198904633,115.08099579944863,152.286514188993,175.36669342740748,192.3446850984669,202.31821657336394,199.20532278300806,199.7937969667263,210.2873561615927,204.00060554097814,170.95125745238042,130.52555153310766,91.2408980443324,56.23054949511885,33.41834241637303,9.816624959955066,-28.19505168356788,-60.24084268341745,-70.63682619515822,-81.85232299283975,-113.08625401569827,-152.56855255382928,-183.34641443191907,-192.97859262683446,-176.94670239231883,-163.1147873246142,-183.1551552800879,-218.5754314173498,-233.57388740760135,-226.91205036015464,-212.46235156960313,-200.1259396309302,-200.34172199486633,-205.05402471319894,-192.69539165393462,-170.82761379836668,-164.5580689482643,-170.07502816909505,-170.3244165755616,-163.59299594104908,-146.5426013991295,-120.11568688959375,-106.58745287734398,-113.01468019726241,-118.35460677284073,-116.43404101601155,-113.30485843506044,-99.45114492704903,-76.04397572156843,-64.28639929050647,-62.596365372016024,-51.92852073038387,-37.002938258175476,-26.01791849122261,-10.782868249634024,-0.8097309944660886,-11.671902698136002,-25.81411259462417,-25.35681496574443,-19.13854401893845,-8.074994580095701,13.797243144753217,31.501262008402083,35.83511089946441,39.94044158300963,43.36900905937852,36.17507423053344,30.993469923117814,37.48518130910149,44.1935836426343,52.23517450947341,68.21469752972337,74.56403206950601,62.867670766322085,53.38488002171341,51.85407730166203,48.63510424681802,51.525526458254994,62.36935033016283,65.65476117303203,67.06217523472843,80.13835849080854,89.11980349450909,82.27108668667175,75.50828599757439,73.67911318970955,69.3966190970558,71.10780897284748,78.06206391441867,72.37766797620291,62.257953543224346,68.89291444091513,81.27264734721294,81.63696651764727,75.06146320562607,63.710990526817355,46.87044375688937,42.21453451728905,55.172019412429975,62.622548995285726,58.83330854816097,59.162987825614024,60.36582716750641,57.35351903158101,60.0879194886892,62.676695972207895,54.47744313837529,50.16871911037946,57.473318192131025,59.82306143353294,56.61781815433494,60.49650943869394,62.71907165047227,56.0208199794282,51.06647437421313,44.13435386510747,28.193720764671134,21.90102301791642,34.459209108288846,47.52201188490038,54.77285075967552,61.13613614597875,56.01022063517481,36.82484720088809,20.897884484162997,12.512381114462448,7.701152516604444,17.763366176463048,40.14293403080637,47.444436509336725,34.435308563180335,20.784597700655457,13.041622513084054,14.277603427125024,30.095718025058595,41.99447608857878,31.48096098436609,14.013020763005414,4.195995103701492,-4.230617142667576,-6.857243214977853,4.4456591624092905,15.75252066487936,16.90017981453788,14.731685702874085,4.619271119576779,-16.990724191431397,-28.097189817868617,-19.0461928317106,-10.587094738167536,-9.622920029809034,-7.038552617268058,-9.158017463811362,-16.534942329047443,-14.560670769026252,-10.450352721556223,-18.695567451120997,-25.765047185964065,-21.683258118195006,-17.999655108270552,-13.900089815816727,-4.850089537169432,-7.568508861445084,-26.92763428078743,-42.364321078771425,-48.20236339184238,-52.09981917355533,-46.72995618912692,-32.516412694686856,-26.551541634977774,-24.76645219803537,-14.567682445426055,-10.486756513421192,-20.59249074734607,-26.545883998104834,-24.698456851301522,-23.774482400092314,-16.81217514214789,-8.145186357652419,-16.653547278305506,-30.041902466322238,-25.550649815196778,-15.887885663463589,-14.037965252412594,-10.291223592071727,-9.572415290560732,-19.96834461239407,-23.739230782463856,-15.84892549587174,-15.942707460089832,-21.54133958340957,-18.90859013933815,-19.86909404630393,-29.428909343008776,-30.050166686751947,-23.42676303897639,-22.0873978114093,-18.388865301215787,-13.258774473687033,-21.460007965115548,-32.20010171461737,-29.121092681781064,-25.360506142133744,-28.445653302211053,-23.964072179376046,-15.02674748410857,-14.241026764632911,-11.858904219898996,-5.617628154507873,-12.12060584484719,-22.374897797546886,-16.077020383415537,-6.5931988457637765,-8.659281670256874,-11.875853173780113,-16.87483799984983,-30.65795384268708,-36.714650330433685,-26.942776057595022,-19.160308388155737,-16.03398888527594,-8.610605871681987,-8.568507177265605,-19.305279818638073,-21.94779210026107,-16.91589482029529,-15.810731493786232,-10.099322105958109,0.32033529362810365,-0.23947984540804046,-5.503851217361722,-3.5535568669455273,-7.181402402137799,-20.058808544241284,-23.96989577886075,-18.655515655374913,-15.993526467356055,-11.934792186348428,-9.460070822034798,-21.66379934772527,-34.47268158574101,-26.38349951286944,-8.68074010289959,3.316563281567592,11.013198546882286,4.647234808380848,-21.584445939015808,-41.792386480918644,-38.33750375361449,-23.846278239230625,-3.2286788761626575,22.170933379585875,29.6168639813544,12.812080736889495,-3.3212725096866667,-10.822926851056822,-17.171114639160084,-13.918365235242664,-2.5284228579813544,-2.009837487186659,-9.282101615221842,-10.701027315889641,-13.531256139455198,-18.898395202959417,-11.926997459282944,1.2735616912577576,4.9711454197296066,6.277693176948754,8.358758467215505,-1.0138166633303998,-12.771637681087089,-9.442973391552576,-1.0945171657503399,2.113391070400292,6.729622966291615,3.0712060530019394,-18.762575312789792,-34.29092523057818,-25.610007486337896,-8.599306644211342,7.126544476519619,19.7355220705456,13.69979286090601,-7.49845312144364,-17.728647468508512,-17.50554988296737,-21.149712044773835,-18.808109647010816,-7.679180860286589,-3.7931048155707168,-3.1122055831222024,3.038507945894546,1.8287458306638418,-4.949391707763239,0.6064719745011371,8.96078993097486,4.6952541100571095,0.5803298429389043,1.445723819522564,-6.31762881295546,-14.260425927789626,-8.742621482949342,-2.471887217815587,0.3535325509839966,11.58238706615454,20.04292690490493,12.619645359221465,5.953937992328976,7.008255352752216,0.712532768429758,-6.100799310879634,2.013747368595999,13.671904570335732,20.64415666928622,29.056293332296924,28.023772191133265,11.634004031692703,3.948906468443321,14.821980027396437,25.459323578274827,31.09184592646324,36.4520890485839,31.371419059919127,17.590413095959427,12.179318201653961,11.233926690829147,5.772684051232099,7.44727319743488,14.727790320020034,8.975257728832222,-2.0848935424600445,-0.7775881116366306,5.084436557844004,11.11044068592886,25.508542447464308,35.613216550506976,28.327928024636904,18.341400813005876,13.09680849603004,4.148516769460827,1.6259763806794507,15.9042418583013828.283785015748034,26.1534068524841,20.613507487019003,13.404860195786373,3.48153061315465,5.144176913872079,15.48563614325593,15.304883222752398,11.640435541743095,17.468098572115196,19.587560228716708,13.494840670506964,12.822360524744607,12.85371056273268,5.934447820455756,5.072182270234304,10.140787861554172,5.762520650222056,1.6431922074039937,12.121921228630313,22.443149366486875,22.990524237081527,23.011224966066834,18.071294541954874,4.666330675156259,0.5069422512246747,8.176196446258713,10.133535293568256,7.75667531602574,9.209216432389612,5.630791860568607,-0.08670606222691646,6.080290228487467,12.274425935690005,5.074826792569091,-1.1616908537229778,-1.5409342845629594,-5.994987720520791,-4.526751149778754,8.727105228592357,13.61728094634618,6.84327364570408,6.911119334531269,11.103961489943025,9.650461373629883,12.909018396575634,20.15389844888439,17.005265667968928,14.9175224873978,30.88013656043319,54.09658475787825,79.18698869398192,117.22785629766699,158.06136202021642,184.0754675691473,201.76301015666104,214.63379461822848,214.8662992436787,213.45199076386172,215.8392274595621,198.74270760598165,160.41612408865444,127.95923008966918,104.81865045260393,80.91664247323169,59.44538131419568,31.808697379715248,-12.31310931948887,-49.34926293937226,-61.27006228561419,-71.9843739872223,-97.03346989249934,-122.80703894572599,-147.629648715478,-173.65147586809294,-185.5156226590164,-185.28434185298684,-192.45072138584067,-199.7184135520826,-194.65474298772,-193.64909636184407,-203.5107395981413,-209.12764586794768,-212.43661724390898,-218.50036039472195,-211.1718151141169,-189.31712893805368,-172.57692067381802,-159.94020815460567,-144.48170257576956,-140.23570331397013,-145.70273710050043,-138.5771186438607,-121.7154625372419,-111.02783934395092,-103.10135685126095,-98.67457942239399,-104.51528735112339,-104.52617471372548,-87.44221645277173,-71.43817395388474,-64.2003100237813,-56.27189481609883,-55.04694822507783,-63.98826866717618,-61.57632370922493,-42.1956269741649,-21.048168820710085,2.605843640870093,24.841839095660312,21.50900857370613,-1.3410837331751564,-9.025544295360529,1.4070354181463283,14.553204348508505,32.94114399942131,47.13273696293753,38.78940336712657,23.57343604478552,21.619922421518567,23.56556662361448,28.616437407474876,48.65046692135026,68.71295041238983,70.08248210910403,62.80244448374495,54.40126179659408,41.94722256598266,39.530388532605045,53.7621550385386,63.21669954223277,60.99418260317535,62.44043076756608,65.13006892604466,61.29097077094565,62.72708239902766,69.66949987615854,67.82759708784756,64.59221459237773,68.23633535759987,65.31191121649489,58.78140274798815,66.05233574958994,77.1073340784067,77.70185616054977,76.75930986929046,74.14085311424624,62.286670048755994,55.93011196613014,62.59977112271956,63.52577290577674,55.55454845883912,53.574127656025794,53.505948156028055,49.76682736779625,55.34823720507032,66.7053513383855,64.94030932417047,56.269277093482344,52.09419253336513,43.892978538872775,36.21795328781013,43.120161636562706,51.39440642912637,47.71309621525354,44.259377551500606,42.00581171211309,30.6399364475368,23.44377874764934,29.252979601926803,30.422088777962998,26.106469015618373,31.144162161902848,36.78390950278887,34.962263824210154,38.03612103866689,41.62199655079323,30.454031275357494,16.95308358297808,15.481431249798463,15.05459598283619,13.817082095559332,21.48860606369612,25.803161737657696,17.883899416775446,15.031373105414733,19.811658106186666,17.923191043782204,16.68742439467357,23.746502769026762,24.773125028873213,19.797188128282592,22.11840422495525,21.609813358615476,9.603519383999426,3.5518069726420034,7.748774232812738,9.142428240084143,13.713446979545987,24.389291395202363,21.344811092327397,5.590684774050779,-2.1848708007747413,-6.1553714458353035,-13.255704603337216,-9.253519413737353,1.3400947884331451,-1.4790056925184119,-9.492609829271004,-11.18722623798398,-17.705525848739796,-24.738243851926832,-15.895787175668257,-3.3573632944284846,-2.007736405508609,-1.9942719996599445,-3.318617530653519,-15.492590725302602,-24.036544485585832,-17.748827250194964,-12.380458835948492,-13.471833522201266,-12.593626457819962,-17.26942351967811,-29.023931341679837,-28.032598201188065,-15.460582117222572,-12.441407856011415,-16.0097663770753,-17.47401556176743,-24.81356062318247,-29.25386279315923,-16.02745248691771,-3.7441144950221577,-9.171614331265895,-17.76977863236907,-23.897580327514163,-33.360904919554,-31.773666770478265,-14.715268405019945,-7.537719953279478,-15.531711144870586,-18.73908636083948,-18.191440061413488,-20.854155639395213,-16.03168972414516,-10.034141649189554,-20.653168465821317,-34.78601448776078,-35.44818931801299,-33.16187586711565,-31.05929923619466,-20.105810280253472,-12.410231316793652,-18.389704408245265,-23.68146948501773,-25.65047978396334,-34.14411179606503,-37.35603711563084,-27.535842956066016,-21.851901985079532,-22.098069185554685,-15.21242163571797,-11.17220537606647,-19.017554003157805,-23.642464962037447,-23.681588724959184,-30.727762258308243,-32.11523245333159,-18.27907099443647,-7.817126605914567,-6.205316611831555,-2.762108579263366,-6.057640090420229,-20.40086231962459,-27.297553111336118,-25.46191816881188,-29.491042907012805,-31.788968242581404,-23.385200455030684,-17.752056874209046,-18.532072446789023,-15.714412001494996,-16.45210098711535,-25.038332047033094,-23.85093587272993,-13.091332648395937,-12.248668124795552,-17.51215163009479,-18.038439663663535,-20.79483186667041,-21.751477793789423,-10.418230077114618,-2.656391224123458,-10.491184705350747,-16.9516128765347,-15.938259313712587,-17.727745209146036,-16.19779223876881,-8.2686906710362,-9.005434852414954,-13.917552259945658,-6.7183809099709535,0.5527905223195739,-4.567465801908466,-9.189046674464798,-10.875800734370717,-17.719349092298007,-18.17909424510702,-7.763272700443172,-4.588317334015203,-7.926848368390562,-3.890072859650982,-3.3651136998020523,-13.686489572030334,-17.488554900455043,-12.671324469333644,-11.163074977046586,-6.650961957167521,2.059796189613669,0.3003689433766408,-5.814235187317067,-1.3175064666411995,3.2283209472560492,-0.537149864995154,0.5815089116541869,7.062259355091425,7.925956815059001,9.626014376241212,13.622295294810542,4.745023709438735,-10.095748701789486,-10.868117521224034,-5.504632278553771,-5.003301384108287,0.7669316267336721,7.400398856156263,-0.4091473083482615,-10.35938883745516,-9.061680030046912,-7.587988909305755,-4.865254208353038,9.95138777729592,21.589322727159306,17.528062395348197,12.17216907542394,7.852085945900666,-4.673360516772916,-11.707997209662215,-3.2670258998978197,6.0271649543531876,13.634599092633149,26.104842844703253,28.362008875186806,13.800677161714237,3.213594324064508,2.7764272012614453,3.013452504141574,11.095090292501531,27.256357570323047,30.91604124652607,21.794787351219234,16.340682530379006,10.00481227004842,-1.1341190071357077,-2.906329796663726,1.572810650360449,-1.1160745820946534,0.01857844645991802,12.095527363909403,17.944961813655862,15.57845473761746,17.41187446236715,16.30410167656344,9.103966657150574,11.824888190531219,20.484443356403816,17.713898606265563,11.933086194443565,13.74021768119507,12.920992062378973,10.784548228929053,17.388174413223474,20.34480586657113,11.684821522135781,7.992527649312313,12.32313420427062,12.53588670230534,13.557469994767144,18.704247140659206,15.295615034897939,7.28899755253282,8.293979897641329,8.753501311068838,1.61051724089848,1.0865352044976189,6.936264728437576,6.927766189878015,7.952411627356335,13.0737352941368748.900579397712036,0.7161340540311518,1.7741176488454922,1.469786532499063,-4.605587908144982,0.18120786321374416,13.331138627033205,18.128476378460014,18.766598525401122,19.14804079645835,9.497751157694008,-0.16037798174635753,6.3067927986154935,15.244717126452882,15.184013998832942,17.41409920668326,18.40543396557368,6.690033041873701,-4.560067060443559,-5.781302928597911,-7.885755376601305,-7.9532325246609705,3.5074502555597147,12.916021192577777,12.16155146858046,13.91269938822347,14.557914809759568,2.572514173409691,-8.276696991213173,-7.337444275854373,-4.826133050066905,1.1845262121296172,16.092116792908016,22.467559851469463,12.996795150187413,4.562994948358366,-1.2331427020066552,-12.014730305053146,-15.155619182371113,-6.90521350363257,-4.465683377922314,-6.405577449481005,-0.3534137180428041,5.956360038967807,10.48856659399567,28.23775921198074,53.510551432771635,69.57159399060549,86.21488442602032,114.48119842729194,143.98038527560473,172.45554348853008,203.2100989482771,222.03614025528162,224.17188709947754,225.03770998102328,220.33867378263884,191.09656490771863,145.02627866807416,102.21172982751233,68.80191895566277,50.31155572280667,41.90999428597004,15.92448800574338,-32.33913996033684,-71.73440962617923,-90.38856053083111,-101.07114725612504,-108.34584153004803,-121.58286255564067,-151.57575501588641,-178.06536446201642,-181.81206168889568,-181.17975618155995,-188.67386435541624,-191.9467066623576,-194.22543687022966,-204.85877807349033,-210.21551541062786,-204.26254933204171,-199.1103301872603,-189.06541229544877,-164.6022138650113,-143.9760558843945,-141.02217869648842,-144.10085733068752,-147.56357790347354,-150.82702059107112,-139.39018185697591,-112.57716990636504,-92.33281878642732,-84.69284458865174,-82.97105308977889,-92.06560189189844,-102.80794167644423,-92.56974101065612,-68.86767556631592,-51.08758108334455,-35.8873931897781,-23.988038472828435,-24.695414353739736,-24.60951076153958,-11.387405874266005,-2.344991701991167,-4.728312570153085,-2.2735579015074077,2.539067407930273,-0.4223337274638639,2.552658135325411,15.13739944603551,19.7900144550433,20.47685522738972,28.969984074354414,31.210069065895482,23.79830344217411,26.62666975475608,36.69373565092436,39.25224687069837,44.143854586686096,55.41261062465224,57.09988652184243,51.912468487352555,52.19894674884701,48.46567093259857,38.18465782412403,38.58969690931296,46.896005831706894,48.48591447899325,51.749885711967146,61.950995250169356,64.71266899813742,61.26750830451108,62.68804213538527,61.31506874745933,56.7220832094716,64.81503943291,78.21526250536459,77.35887984669597,68.7658432172498,61.394797757667476,49.56149059658108,42.58509214028874,52.57396948596653,64.95090426673005,69.69500235978593,76.57407822557265,78.68432763749452,64.56309614285483,51.056252989345815,49.245293298308034,46.49414710108696,44.65457843397621,51.923707363272,54.358424479031854,48.59301255347945,52.672284585475246,62.39236522066826,60.41847651172746,53.40533839617727,48.618446577780475,40.03423270697076,38.09073631577013,52.98423965899526,63.91318551727183,55.58933841548633,41.6770139447602,30.184124023053194,20.360809331714204,21.714409317946487,30.123947167327806,26.035443552794973,16.974366000299028,22.4842865213169,31.51230745243041,31.193182267413793,29.80059963304921,24.716367472984583,11.52913418056021,8.801484686575087,21.312097862201735,28.637143921027143,29.56551145954479,34.043091323206575,30.327378821975834,14.169094174671145,3.102946471971883,-0.6952740517312362,-4.7800847342857,-0.8357232200306886,9.51559403140601,9.001276910636301,1.6612132251390834,1.3782952889320128,1.656203513204706,-0.7551511697203155,3.5659485810124156,6.58419538730912,-3.185584473210898,-12.9036251569752,-14.19141890197274,-15.431859208123093,-11.507726372520441,2.7857851547714976,9.266488685769165,0.6033691105048362,-8.481421028139698,-17.480251827772324,-30.057085576886813,-30.98063028758972,-19.057059950302982,-13.025394492355975,-11.544216848734912,-7.032629435006211,-12.406600516801342,-26.13745182524842,-27.72624141803975,-21.406181657500138,-19.727748173140064,-13.183997122804172,-3.439736488393468,-8.037635288755412,-18.495073140755895,-18.292742443812507,-17.275468674288042,-19.34976451090431,-12.974389560008802,-8.34753863972065,-17.109889938612124,-22.791066131196946,-18.78553934408321,-17.400864060072305,-12.84693183438949,1.2645907988245861,6.573818267668766,-3.772004763975612,-14.787814497012311,-24.659136542307287,-33.871073030261684,-27.27850486554334,-9.688518055736328,-6.212892881975438,-15.368661491148885,-21.88458811130982,-29.613805985871256,-36.0578321911252,-30.37718288250258,-27.106925482264874,-39.05970542931462,-48.17558607553523,-45.85667007268541,-42.61127443582564,-32.70368407994077,-13.521767806747375,-7.293341179749083,-18.266515537374868,-26.2115214197636,-31.353946817826344,-40.425785691077664,-39.62312271578861,-29.930604797196697,-29.16745438158047,-29.70720207528267,-20.137643862309968,-16.175573683239783,-22.771456263199404,-24.431210176057547,-25.06587906799332,-32.71155203183115,-32.212408648010424,-21.725479656114846,-18.12208942823905,-15.51525381455107,-5.411881727624694,-4.279094654200715,-14.208435242409973,-17.285749201437003,-16.804226198371037,-21.477240611673636,-19.937904251662857,-12.78613562840766,-14.114252629471876,-14.486033490761855,-3.123364555402522,1.9998553694533157,-7.975224746869843,-18.312994734270852,-27.992306944333546,-39.42421330339129,-35.93875083365718,-19.108354404475396,-12.40340776700263,-13.044017340088546,-8.094993345912462,-9.227574503602094,-17.88559387521414,-17.21268298487643,-13.896361620374599,-19.447606386912074,-19.764855641561844,-12.029817054329023,-11.6464990516956,-12.150573218921409,-2.9047272471988035,2.412745399781305,0.16649143622957618,5.070218958559833,12.22616383319145,10.258391854424694,8.13096618477331,6.064521485492849,-7.108937910959086,-17.922084814510622,-10.832714707013466,0.7939012347433421,8.482469942489853,18.21142955092787,18.209305130481404,-0.1970779966610321,-15.827061373633256,-16.453280847775012,-11.560036058341389,1.8504241165932123,23.74312680087848,30.78910482097464,17.42155320996598,4.519933572786431,-2.744175298987858,-8.525152956146982,-3.5066876409143974,8.062916520563421,7.829745608247238,2.6004120264752113,6.764390203508794,10.51780337427814,9.731970708556236,13.88628573691627,13.37771381992765,-0.16864219249082968,-8.766978970094858,-5.955935364852163,-3.847820528245734,3.2284062449513615,19.548780048502795,25.719217101897797,18.964196254187467,17.26689924095824,17.691626974983976,12.846538507577192,14.791178993154372,20.211918470263363,11.785242793788612,1.3278104775162256,7.182112944325058,18.106565644909832,25.94294382533017,36.80877489709548,38.40646078313803,22.145466133007588,9.36768864591824,8.5752580372517,5.220030359413461,2.5271047463489045,7.853789972448035,9.005179849199553,6.264774621295432,12.675072162367746,18.247632891166266,12.131843055286568,8.416894348227439,10.599738914163765,5.638317849250459,0.1513826895193524,4.234542859987952,6.774850248133135,6.620962882277826,14.666954945720946,18.527775368806843,6.836794557922801,-2.1540784443696803,-0.18784853629134046,0.5835109894103221,3.3391758337019195,11.918836908110244,11.522703291917235,3.123842000947488,3.603936488015434,6.78169183517343,1.5405034785563194,0.42795861908560884,7.772258194038448,11.009735953250464,14.25078618079495,22.84042952105725,22.09988076161224,12.167766381584212,10.017687872423167,11.491909715714566,8.547903314059681,11.554046470811631,17.26687036800750310.698558380214182,1.9597852082433052,4.327700618016449,8.256342455149355,12.480475205754004,23.20274197538315,23.919401903022184,5.428179793023197,-10.84114015332483,-14.71650554964236,-16.13762664125484,-11.773010002140847,0.3243405219728368,3.1242820319704787,-4.161325250642778,-5.0360522077613865,-4.446216573590407,-10.920754301653298,-11.277679311083304,-3.898068614784481,-2.637599267143113,-2.151733182829446,4.229735639261791,3.444338024977644,-3.855139753143954,-2.463224997713177,0.8497175466858174,-4.593494151134128,-7.704556155569265,-5.479964089450124,-6.516632724615023,-0.9592718804700868,15.415914014179288,21.27040128373894,13.751931869683215,13.18253315650022,19.701130714045874,25.937501671749544,40.89558932535592,60.266212815669434,69.20804533822107,82.824005341783,118.4461313322777,159.00534115700228,194.47467101561796,234.07925154139474,265.18147466117705,271.96984533864725,262.9710368979512,237.58063168329633,188.9847886646919,140.65254160805668,114.27071710495268,94.95294783438284,66.28397784621995,27.165362491980428,-25.438325598561097,-78.7312618955553,-104.49116502910393,-108.0962163057754,-121.325913950878,-148.25771955380566,-175.63192584332654,-200.8057498489165,-212.27003227114096,-201.47003200637764,-191.81097868312696,-198.31104350847775,-202.64128208949904,-199.72158980646648,-202.8555879205452,-206.4844338998578,-201.73076115215594,-195.17204860832842,-182.8422288151998,-156.70984826314435,-134.24153940324658,-132.2072395718495,-140.99753625375382,-150.8815646559436,-156.4226289178252,-141.08734555323727,-104.19729201688716,-72.6118723900118,-60.953203336298124,-63.85359352428402,-79.0334544753417,-93.34710844868647,-83.00731183352207,-54.419102987716144,-34.14051030692434,-24.783791222359277,-20.291146698366312,-26.40182511072131,-33.00752347119065,-22.855894151716775,-7.710118659225568,-1.4472845371187333,4.5449909950943495,7.684127562580148,-2.8574896107119625,-12.219405436786818,-5.546392403272328,6.785889595034739,21.25865135769961,42.348820009198676,52.33789276656912,40.08997542694675,26.46220824767942,22.732526112812486,21.13468948530642,27.219113277927644,42.33698017533587,48.46924118876739,46.621253194907204,53.18830268592539,59.624240748978174,55.627338276055866,54.77814246149272,59.765375369020205,59.90477285894555,62.210408039043514,70.66556206880792,71.45361813268124,68.15654978922568,74.0008820269503,76.15365807620785,65.0424414850427,57.55026346091538,57.334979712254075,54.102225098784764,56.64645331903385,67.27162860477566,67.5339266127649,60.95684839777723,64.62270960324652,68.1388159053759,61.41431721911631,58.46532605121677,60.4776722176742,56.9810909060377,58.49828130663045,69.377802325186,69.00210585608272,54.19133081812818,41.58712829445291,31.610556510796258,23.539561271064635,29.274582334113862,40.72421063029752,38.330421553341004,30.176428635414368,27.73928098764197,20.74081749778681,12.552841808067228,19.67916899544946,33.64012548503982,42.816215757072996,55.32585641835758,63.308061409036384,49.70515860778217,31.337896172663644,27.58811876593506,26.551846075415238,23.741499822326446,27.603116289851894,26.35876984094721,13.727504649335565,9.898104477626314,17.664868437223383,19.54290065350485,20.0176083856478,25.491212356227628,21.40103491684695,10.979136947530613,12.102909765862135,16.577950298680182,14.377414209642218,16.897565180457413,22.135416859072638,18.270327927658045,15.949504180167043,21.08957551066102,16.95015436690694,3.1183570341419156,-5.435488344581164,-12.264597023652708,-20.131986620089297,-15.732524114062844,-4.21988550482319,-3.048132421945198,-4.518259079375545,0.774700579027849,1.4864885403588883,-0.9416360294413599,4.716190546465094,6.127533852107063,-5.9027878573661665,-15.119111735541207,-17.278311045170007,-21.472230458727164,-18.70495208211784,-5.057203777525784,2.833786683329594,3.4847024315205255,5.741557199183075,-1.0083314911497552,-20.14865445863097,-32.350721460799015,-34.22439926366114,-36.09921709333286,-30.45427301797271,-16.4117826524224,-11.665244007755026,-13.492941744464051,-9.621631981444345,-11.518387939737638,-22.78142607421836,-24.231236724034744,-15.71218874578372,-12.09212736332427,-9.264397689949865,-5.182060617864364,-12.047752876546376,-22.106779421936707,-18.775636477993622,-12.974690150968607,-16.591088563260143,-19.36387561048048,-21.595920044032944,-33.00535069555729,-41.0597720253043,-35.63388036402224,-30.590509476858134,-28.17706679209083,-20.39614919101372,-21.816182328353722,-39.47224650688986,-48.999674483021735,-38.921036446034,-21.151361472605135,0.7359420681216102,17.288604290886223,6.254391692676636,-23.318068437040125,-37.9894269865733,-32.344747947761505,-18.922686826870418,-2.0770013735786055,2.875974633658265,-16.862537570824017,-37.59685203350541,-36.36270079293923,-25.37482762098169,-14.700057984172751,-3.481872965748751,-6.0756459154409574,-24.6937082874051,-35.890042329148784,-37.0171433519002,-42.575489945361404,-43.98424775401971,-33.84146791890853,-26.24993540582795,-20.97723703239365,-7.5027971949305865,2.4167538764687446,1.0106009004544745,1.833254263846491,2.9491413714890893,-6.392116547644706,-11.99287033576417,-4.299532556565771,1.442734326556443,3.5159450352201294,10.594592537313114,10.500025387229556,-0.8748597753660192,-3.9687254880863714,1.313940717302735,-0.5406793058653792,-3.8683858023200712,-6.078748752635299,-20.395488701661215,-35.7101046247577,-29.94394557859001,-13.183062513497461,-1.9713727354075283,5.656226137162745,3.565131652683897,-12.762847879710408,-20.831501111867567,-10.962350785726535,-5.21439320213298,-8.95811348070397,-8.73524473150779,-7.931459598765844,-8.014874631893454,2.0771265569352724,12.288567310751539,7.015570236190605,0.01861498142507223,1.4849608432993615,-1.3788812122761915,-6.569609740244728,-2.5042493542280235,1.850394829722102,1.6968094355962238,6.907800391467456,8.742028221281497,-5.567184278519531,-19.896376102221353,-21.2214115921282,-20.1691050697626,-14.800989565307935,3.4355650307943124,16.585266856118306,13.018802214932386,9.524252239286032,8.861816419972154,2.5545098009413643,4.155363248280212,17.463603915327067,21.800013814160803,17.017148474551583,17.419106255561267,15.226484900152016,5.164776981814346,0.5209572312960182,-0.6335735409895558,-7.464541946110835,-7.728492531262104,2.30823893183507,5.288004507403244,2.2129021271254956,4.561409819324182,3.2881394473085477,-3.906808139909214,-2.2902379817946232,1.8867373358431365,-3.9830884436089384,-4.88163335186947,6.205602853137467,10.870450570689348,7.7178337204210585,7.5480853395085035,2.4392709038874933,-6.546337396906116,