-8.487759525568956,-3.9722125338817116,0.8729345066930356,-7.429869041673568,-11.066521895978052,-2.994749420094406,-3.525779417329875,-8.910481302494713,-3.9921189962987054,-2.8012042395846195,-9.672104165670024,-6.418466943662707,-2.3266952687141464,-13.714531369660532,-21.423789029502387,-14.215555966398366,-9.152984044975316,-5.248758494640233,5.300629440198584,4.397107755533149,-10.094245456421259,-13.049505930273245,-7.099295927873843,-9.561123100556843,-9.172686153591426,-1.4027042814763062,-3.5066772384420055,-9.439427377248466,-6.744912471253553,-12.073563771806365,-27.933983282302208,-30.120459483877372,-21.65013970622753,-19.72029938907112,-14.22822188495111,-3.4032946539010958,-5.727536757481639,-12.058190550875397,-5.553266605087754,-1.897366455039131,-6.689727115202842,-1.1748169404636424,7.6667232502405716,2.8927621150269003,-2.805361190874271,-3.721284576627362,-13.900888047708655,-22.816045553452383,-15.247883515595827,-9.99315181108525,-17.015852039282944,-19.015283756696512,-18.874335069228522,-27.420448223070927,-28.42661749208226,-18.303948810512097,-17.798211061366274,-22.228978998492707,-16.674132328741926,-14.172139282868605,-18.42874775813266,-12.554278614805641,-5.091212137417599,-10.786848360997478,-14.129754767436335,-9.281872176707108,-11.475069801235424,-13.772652826214419,-5.770110441155242,-5.143267441542542,-16.717102363547085,-22.183645526815788,-25.842434769014943,-37.28195044792706,-39.13255521625725,-29.23755009085101,-27.96651332511492,-28.536953547465636,-17.583485479408047,-11.274566186958607,-14.752772906610714,-12.782293477696127,-12.900391921175974,-23.584710283694672,-24.40851776707951,-11.647277486790514,-6.422961438910492,-5.255111463515144,2.539182822151568,1.3779677375510546,-11.25294567934721,-16.8719198027582,-21.07867575573061,-33.389861290392965,-35.89256827723257,-26.401611322727188,-26.132275560586287,-29.750750179608218,-22.460876892806176,-17.731819699291552,-19.605012337356264,-10.051288927887661,3.979748201140143,6.309864388864252,9.147084710732942,14.82674951360045,5.1789476584407925,-8.501618752351513,-4.212619252947575,5.218512902401273,7.837280556116582,12.949594461644342,11.683021174500016,-6.379076722347743,-19.029529964022878,-15.569251354800844,-14.079380408090339,-12.474723836969217,-0.4278589139866744,4.415151519802217,-4.084965393090835,-6.368290855151086,-4.679677990978723,-9.317197623121102,-5.842272424052993,5.38362364870136,3.211963140727236,-4.080822557128036,1.055865464447432,5.861644539962167,4.339957629873966,9.182840513518258,9.962617716888449,-4.815691076436887,-13.026284002123164,-5.823292987729245,-2.815236427759911,-1.8810251168001972,6.319727123361368,4.93814914476688,-6.812004413598901,-6.036286433128536,0.9583710363260143,-3.1502382247770813,-5.3895755253053075,-0.4397463649662754,-3.6771801763442715,-6.106191546436639,4.970714607367692,9.80773471834458,1.4768302537740476,0.1002393865263993,2.4592996131944433,-3.385942635530441,-1.5748502759339593,10.536552387681558,11.77140050399468,8.93276001764305,17.15190874592888,18.776156805106716,7.128963434882382,2.3475573886359955,1.3302292252244836,-7.764074695451501,-9.216174951525714,-0.0751595221068202,-0.5599151422239064,-3.9526537805390163,5.303907321807614,11.755163622046602,8.045186534064193,10.196106655060957,13.495797572752135,7.717309339009558,9.474281897013915,21.842272798431825,25.215048060943275,25.726002251656794,36.52756336420664,40.87124144636415,32.861171850556104,30.196761891281376,27.79466644345309,14.009820346385323,5.78896616586665,8.919895528617383,5.204721507375272,-0.42265360972097876,4.943330064667727,5.312144278070899,-4.978614880155521,-6.99575266078979,-5.517999316991573,-14.529997117288842,-18.090366914428976,-9.254707835600225,-5.515558400438634,-1.5333716175007044,14.952898867497947,25.50747688731387,22.79183197425053,25.2186296135667,27.0466421320666,14.243257352994641,4.602161389647501,7.293965827690746,6.654720469049868,8.862565595555246,25.329993050602905,36.57898955565891,34.934570794439395,38.2835384171077,41.336683118419195,31.289441918604474,23.571187396062683,22.558448678893033,12.694889989896957,5.219886187844366,15.411028997276631,24.665678674688742,23.829774133600026,27.285507991380555,27.748886207492195,15.001531153808926,8.657846497465222,13.728937865533213,10.071705942881806,3.3535842664532143,8.51238865436488,11.246831384656364,6.39514079260255,10.016585470504666,12.613419034088993,-1.415727833029993,-14.349461743753634,-17.02780681760439,-24.475427371518627,-29.30402537607997,-19.928019890949265,-16.280206715251783,-24.707763475672696,-24.391349227600372,-18.774512958297407,-20.810938253650942,-16.433992649471882,-4.359078405263893,-5.045207777201917,-10.188215765510474,-3.235442318326146,-0.8480044103848525,-10.33838425960129,-13.159287329847318,-13.665458021268321,-23.30005800520066,-24.395226634991317,-13.915404086460777,-13.553317854446323,-16.2440462625648,-6.702762374052306,-2.25687399241222,-9.570027059446454,-10.848410006192298,-11.099292955757774,-20.550684287046654,-21.1359079792667,-8.842611568885555,-4.253763582437468,-3.5070990006954292,6.002211684959741,9.536201579313046,2.3099973584995572,0.5799503464521517,-2.033299750291312,-16.200024459620398,-23.439451304013673,-17.536441481868017,-16.76138029864802,-17.60820132566714,-9.888948470906364,-8.410537083592914,-14.17573491682853,-9.34520078343075,-4.554970141149251,-15.149092685577212,-23.795003054265415,-23.254805832415823,-28.22228938601833,-30.513137793848795,-19.366489697201246,-13.10776251811529,-15.910061613345848,-9.849402661358907,-2.692249445740452,-7.677574695402161,-7.815426521905103,1.549595751539691,1.220764063802241,-3.7361934255199887,-1.5388362747019992,-7.278238747588724,-22.023243974754553,-25.59019275273349,-25.214305391133834,-34.42720794214074,-35.96007107511377,-25.239212374205373,-21.025954121700373,-16.602842769315636,-1.6842982143322205,3.7839453919097648,-2.7277676721436332,1.237769815624488,9.931543984903513,9.221712174974389,12.794381290650264,21.79407992587254,18.132263415881503,12.258523674343103,21.343078278573177,29.774322633242797,28.22667230335551,28.890483700797382,23.47420685322632,1.8552063222397432,-13.533772137657273,-11.701332923301237,-9.64067314033128,-5.498583286356201,8.296297523093827,13.640207831372567,8.15482457603261,11.93691517401163,17.44691920528031,10.531151507699288,7.687202396492496,14.28284868281175,13.714318778744062,13.926880648780148,26.694327674793428,32.49330412549606,25.62622515580602,25.291766765893623,24.608726284622175,10.335138049069581,0.8556796032886513,2.641350880638303,-2.01246731626384,-6.110221198434886,3.075901581929172,7.30466292683427,0.6518941138009207,1.758894393820361,4.794841598117687,-2.30967825029637,-2.3141463374765983,8.992282779753465,12.296497137338719,12.605655431887444,20.908896225670702,20.28631101101325,8.000659198379346,4.5184033286396925,4.92285325624179,-2.6056287094424118,-3.532106294128451,2.617122546707329,-3.0450607193972674,-11.06027242670306,-5.762049213288234,-1.4144239836131391,-2.146570162443242,6.336739358751204,12.463367383973123,3.6786516006475054,0.7135753394265967,10.033292989905318,11.712310745567024,10.072138766420924,16.786245892566523,15.441092729212167,3.8873930738481985,3.013354491920768,5.0720248026712715,-5.364709007349754,-11.422536126380875,-7.088550244955377,-9.97935299001731,-13.029218600626159,-3.3414423083770015,1.800606600707619,-3.578443945681817,-2.6581711785919984,-2.2177218009831736,-13.238410465589222,-16.469654575620677,-7.310974122767144,-7.129614980837566,-11.934150436802877,-8.315644851800307,-9.199977540766614-15.957717409054252,-11.59148790545661,-6.329687537585097,-14.546211812114233,-18.904609470275233,-13.030955496385388,-13.190776777259417,-12.86480477502437,-1.622163374691965,2.5991161584121074,-4.0789205890757625,-3.5655546843837578,-2.6119984534469096,-11.173286299844241,-11.055916618169412,-1.274839477213256,-3.227126530622945,-9.408198406943354,-4.554012174191008,-1.2865705511792958,-1.2322249440710045,9.350847574209908,15.060383666135243,0.14837260607744618,-14.16797476929526,-16.89259191428738,-20.891965114488215,-17.77039874480571,0.6953275069885532,12.528458403928562,12.943237774552644,20.230350163356675,25.054131477864537,14.5386999566808,7.7137925538284104,9.796999099682893,3.6015917102282815,-2.101160679741623,5.842868150762696,11.028271300562597,9.668390755473656,17.07518438525526,20.516238729830185,5.307475483522218,-6.748702550695576,-4.83665937159285,-4.782345218721294,-1.7372881414799914,11.904700121739781,15.620057967796903,6.604093624893272,6.506214270015643,9.027556767777003,0.4251494742972408,-2.9776905045965507,2.6255100375964187,-0.9763744513216666,-3.8680511922160234,9.651638791838268,20.948833175215473,22.295766185875465,30.36138376811299,36.71872168927837,29.28143634865924,26.881236576484106,31.312394219101975,21.394679668637536,8.01016525882599,10.392486118867376,14.289199561225507,12.513967106042102,16.97400356371762,16.30466782745006,-0.5702619074672493,-11.50705013906564,-8.982888257673547,-11.705246426198054,-13.351575354356727,-1.575794354759422,4.621925307177397,-0.8739130590178887,0.3483658082810086,1.487825302603969,-9.162188419911812,-12.9935445227818,-6.6865519263898285,-10.061683145972005,-13.819650837138585,-2.563262919935127,5.393123414751445,1.7470374913894418,1.9074678796531506,-1.0611685403119258,-16.734373889553105,-23.057931547678745,-13.52116250474409,-10.262737007638725,-10.14729364987434,-0.5555703689852036,1.815633197565397,-7.3470042035679075,-8.396904686771103,-6.43933742997695,-12.376966426271295,-8.664527762796798,6.675645689062356,10.453950806719313,6.232514347143208,8.833858606861028,7.890282428613987,3.7550919523650186,12.671787509675593,22.259844447518358,16.96987224703244,12.8311361513443,14.044657667487318,4.578151774165073,-5.657721751664739,-2.659620184107053,-2.003076996589042,-7.176351216955483,-2.0212968510435734,2.9733573937291595,-6.801766935156849,-14.273114102811721,-13.979635122366137,-22.36064806527833,-29.73928625874984,-20.936139994921817,-11.875279350232056,-8.597451977583315,3.0928089094666347,11.74886748699558,1.643494890852172,-10.297804922176796,-15.669923443665366,-26.68882688425934,-33.27000300567308,-24.733684420650153,-21.634619162071125,-29.9442545329377,-30.522718976314497,-27.888447013316814,-33.47293070015273,-32.98599065021662,-25.591749422868915,-28.53679245242749,-30.20086022825871,-16.408302808530784,-7.182256853298258,-9.155267060376499,-4.917410577615416,-1.7139021836167827,-9.180626263452254,-8.626847032127511,1.2104396246160567,1.3848782018104828,1.2751218710509082,12.229991784183921,14.273870049176008,2.977195995256263,-1.7612698053304605,-4.006875671675131,-12.377588998205445,-9.447869510561265,4.454481094067593,7.020233360796178,5.116317418811795,11.390899021952604,8.50295856939817,-4.936679566374895,-6.8120856467097735,-2.6481993072193712,-4.9672981794135245,0.22698200881754804,11.781642663627926,10.340710944758765,6.772912754610815,15.660337994428165,18.799780433554123,10.185580952606603,6.7833713128327,3.9042340674667493,-5.057493530324772,-1.8385968230926304,12.079401378629782,13.37666715818957,8.41191077444871,11.781814378133868,10.724991717951113,4.60251720071142,9.88523626687708,15.097727010188825,7.313877331431568,4.96508230339138,11.216309668257894,7.7189452625277415,2.923240665953299,8.635450195224909,7.820367465096069,-1.188530506780682,0.21979258746132446,2.409830050266796,-7.6390214123778435,-10.934870609824015,-3.0287309779290568,-3.505308721466566,-5.702737086764793,3.018451115547706,6.801425900052479,3.858029875259361,12.789589180148873,22.639003157624188,15.700984259083963,7.617337183315906,6.160984959627119,-2.180571787422958,-7.82666651175594,1.6349626263434054,7.769257370156614,5.28635074182567,11.390737489867343,16.756303467454195,7.515861680486242,1.0873084665643626,2.455486622096236,-3.2826104508606906,-4.9829252195115785,9.202690139130137,19.79569168790404,22.23657470432918,34.29265832100537,48.720379941956,55.19384559799094,72.23628754436074,103.48754057972813,129.90889639357917,155.16932111466687,184.54492416372022,194.585758640093,180.77103644262945,168.42544021147586,158.41764764133305,140.0281624499967,124.90892099363616,108.60430173722163,71.9892323623014,33.22538026133812,15.318793478234467,2.1322751295927613,-16.9282477002275,-32.23950669740025,-53.90479546195851,-88.44728971365282,-112.67988221396796,-123.11716966926708,-140.74368912478573,-157.5090941457158,-157.49694178667158,-155.8486584363386,-158.40079755627121,-152.12362507602703,-149.48170550375008,-162.7261735783496,-170.49260169659325,-165.64636542942412,-165.09828547001308,-162.30711872742322,-147.2595058273266,-138.50252854343418,-140.7623134331301,-136.2383299428084,-130.33544357928136,-132.36074552656356,-125.60086693728633,-109.86711042423843,-104.78138200466498,-101.30991549306108,-85.91312368312072,-74.7418396153985,-71.39774752991627,-60.76268101459328,-53.12411666874678,-57.93493304866534,-53.88621251034341,-38.30756389697946,-32.376397300335015,-30.433076215747604,-21.433297686888316,-19.44601371028841,-21.981674599766833,-9.014942246323866,8.170747652671992,12.160976126209153,16.706343781191993,25.124721988470696,22.478356359458004,22.23423784144517,39.657946074141016,54.27031227182082,57.68365437705165,65.2174444088302,68.2905067694053,57.51079185635078,54.068259797573724,61.0641068217118,56.69431482783991,47.54270093864392,48.42517315523675,45.9491941457987,38.94518325594893,43.44095832866027,47.3692018456601,38.00728952848622,34.415478681023366,41.11086094338624,41.607042296526664,43.94371508173458,57.65267646834697,63.952437052746824,59.32929398577073,62.04029322032852,65.49537177716319,58.469766845371765,57.65943579344581,65.14652160631896,61.20658688500913,53.9235406515548,58.27962872210158,58.9986619111835,52.18688337424195,55.01217836194308,58.78624271242118,50.87016778028611,48.564943572845124,54.914784610341165,51.56733107445725,47.43312170152246,56.2240211712359,61.26776664740907,58.17521934824822,63.499709453100124,68.00432826796626,58.33720519717134,51.85697209690442,53.882947189645755,48.175963159308765,43.380595163961864,51.28212756701455,52.92239439693321,42.74001782723471,38.504457077077824,35.121329175125595,23.38625456977718,19.738605609287365,25.083362655136977,21.13978952785583,17.518236591654492,27.918734409474403,35.393729464307995,34.22219796495917,38.06663587038513,36.66575178457617,19.78700651226135,8.162119722894985,7.971391763101584,3.524667563686557,3.509170256698956,17.39509436108219,23.875738013473157,16.373842314898194,11.297164712871302,2.995712716411728,-14.342253895360576,-18.694203030703388,-7.312335713805757,-1.7409973442390578,2.20736533632465,13.588583050320155,15.275282363164767,6.959369633487527,8.273377659139285,9.51219556870625,-2.8088300555402226,-9.699108973924076,-5.00047493812224,-4.656815055665941,-1.3455687193880899,11.61637158861716,12.1205134041606,-1.5284785513540449,-5.900947004046216,-4.3022332521238,-9.122193701670492,-10.170238964201282,-9.48766661195571,-22.145345189453767,-33.833389330460975,-28.434844823394684,-23.624014360106273-27.167345017359395,-24.243180075177104,-21.47954140264386,-28.709441551746277,-30.063762616684034,-26.87058239628298,-38.45351399772369,-50.41396230998178,-43.74896991802568,-35.705476652047786,-34.25119332048796,-26.825792181488612,-23.82885564252537,-33.574478861243186,-35.17952174508296,-28.487862290422928,-35.24849214513329,-44.7395732301935,-40.03055556278567,-36.93571900796448,-40.10805782816058,-34.5689332973853,-30.601848587202987,-38.28346988888596,-37.832865108570424,-27.672608714789945,-28.27265806969857,-30.784634726478465,-20.586629829737504,-13.535423768598324,-13.62897042373974,-5.379786399293272,0.358986253338925,-8.502952583891345,-12.218411720558693,-6.486323596291065,-8.90007422489178,-9.632048697500487,2.847821773384686,7.978244519027628,0.5224109834883848,-2.484221496478926,-9.401333804252431,-28.098770912769655,-35.075952032259806,-26.44146934098643,-23.604372847282754,-21.239574446228215,-10.52225509402706,-9.659768381563374,-18.11631765309985,-15.49944694975214,-11.354820225677122,-18.85319268253844,-20.841667751233825,-14.719602800226092,-17.24456501153539,-17.50600311710278,-4.518260812760105,0.377231403971114,-7.330549198979238,-8.410409819387041,-9.41951319774559,-19.88851548542743,-22.13475969122363,-15.950617591119908,-18.51515100066238,-16.860374693051188,1.8372633263557123,15.72752745976826,14.960566268989183,13.8680574381634,8.422991910560025,-5.802759723084071,-7.807704743656552,4.029513019122278,7.100279154501527,5.972824680235051,12.972118015463277,13.043683741076368,4.918477018646478,8.09524490437933,13.286172515197926,3.302341787778778,-8.065982673732897,-15.294794761082082,-30.114845150880765,-37.74575183986402,-25.920329744638373,-18.910528948843208,-24.19604710258117,-21.556232818355255,-15.657589195514685,-17.70956709001394,-13.704471958456786,-4.693244538430502,-7.8465054808948445,-10.86443875506296,0.3441455661202095,8.321651259284113,8.04584649746977,14.326008985885766,17.422514262626972,6.043688728813794,-2.069882107725885,-3.415610278818418,-13.107736560093572,-19.682252227453297,-11.620417172445777,-9.052536872942273,-16.842840921671552,-17.272462408444863,-17.723577526022783,-28.029316679070675,-28.9325620697074,-18.413735184385366,-17.926217502323134,-19.989878118234074,-8.475829654896417,2.431263063347518,7.863559432384763,22.05899182754243,32.9323198341575,26.84342584407144,24.268690345923105,31.62852990790836,29.490746720159173,23.395836144110998,25.47554822749857,21.138335360474446,11.25868329661381,14.538859824608426,17.178269524058194,2.5005408121723294,-8.950605979317903,-7.582252323728497,-7.557124586833493,-1.420557993128841,15.78793616140809,18.884141497614998,5.399440251991056,2.275362541425806,9.558645809930537,15.179893856976072,28.28948474282545,42.1400787803569,35.10658905457311,21.290586180147482,22.345374663541534,26.072866016759086,26.684648477338833,34.414545406596844,35.2436781630138,18.319676426567423,5.947703935966415,4.141508506069565,-4.207817088965275,-9.868388650322748,-1.1714945660534122,3.1299901713424196,0.4126610822968182,9.886885458843704,22.612851001447197,26.44337296675352,39.87290106229724,64.78863958313867,82.39178105829104,103.84925310843228,141.51486521947984,173.7332738788982,193.64086217478962,216.20095035343167,230.63949092299111,224.5562318880277,212.93861157996702,194.51576082061158,154.22112134731958,111.26403854378037,86.06527186959478,61.352484844628236,27.733200061875408,-2.872947280589253,-36.021629293277265,-73.47156838099643,-92.41911828386982,-95.21233665195874,-110.35372944748997,-135.32519558357453,-152.6303955867581,-167.84303261418017,-177.50231003857326,-166.90706441158392,-153.69399498036893,-157.8153066716272,-163.55198729267138,-164.65159349927694,-175.43693902072158,-186.1790085043567,-184.96433364792557,-187.79926582604298,-193.76728191050046,-182.31950169567088,-165.3563704285294,-161.47444054984172,-156.52762901238657,-145.80302341122234,-142.27458267127903,-133.7347589276911,-109.96539589537352,-93.62216398405349,-91.19359991380215,-83.24078766293572,-73.04788134098209,-68.66591205363764,-53.28616046878638,-28.468800377681234,-16.869819306059775,-12.24304929826469,-2.3939873429822924,-1.5457622411951286,-9.253999136806947,-7.676235944139487,-5.067295481430987,-10.458798948389779,-5.956655534560772,8.329140710307374,11.964718071029125,12.212261748625425,20.66958717703624,21.97885752242806,16.799604699114038,24.774707874674775,36.01561378713054,36.486850414527716,42.06076750395364,53.32896310293627,51.637835078878965,49.32651158688142,61.974879642041934,70.07799069291023,65.31090543098394,63.20342041587867,58.64372913827927,45.98260233451889,45.91890761175267,57.94934196529321,57.774824078622345,51.101414816274726,52.285342602584606,50.35521841537779,47.55397302761764,59.35200010106866,71.51874957694494,70.23231056735284,72.08853331384566,77.98879113605176,71.38332168164158,65.28163356687881,73.76433023226426,79.08801958458352,77.90695990685842,86.3436952071595,92.67517310554236,83.59497449498873,77.51353116206043,78.28174520172352,68.89189562131791,59.59682591499522,62.94118797061058,60.73450088679469,50.080776496531385,49.53490959441318,51.389893180659044,43.84531548207775,41.13976945741672,42.90157373250395,33.93372412511504,27.281964137742264,34.68938186308723,37.20232395765552,30.96365169703094,31.778220766946568,32.32885150771273,25.355546754705863,28.030462341447144,38.36992806309832,36.14929361792585,30.046525375189987,32.22914138112015,27.78372278236472,18.27610139920283,23.106668728149838,30.406559766744834,23.55124140045367,17.81570666481422,17.483315411296108,8.163394651922353,1.7022326565177874,10.229482456060992,13.258846375161465,5.68189803543476,6.6820839505502105,9.682379501860549,2.1665411127310703,-0.3984134476896301,3.455033314011863,-4.430651223630635,-12.749397715194757,-5.515946386217265,0.7193524001905373,0.5330473590330262,7.463360538026768,9.645164077355643,-3.7842861142545576,-11.77871168960902,-9.227541652117857,-14.532067603291399,-20.24607445027612,-13.216689174045154,-8.402463805809036,-9.032197519194472,-1.182370319955449,2.3715356185341556,-11.450983571254586,-21.859971626540883,-20.36738896740497,-22.305262454498575,-20.63134997502082,-6.518433191718105,-0.3698223385507668,-6.261276678042619,-6.042927066804932,-8.058933364134909,-22.509107492790335,-28.12953958110098,-19.455639914996652,-15.814090416878438,-13.447139784099626,-5.491403341664997,-10.839747896250017,-28.005431336871943,-31.828419882049634,-27.878612679699753,-31.236181744935905,-29.606221142262598,-23.39399451213291,-28.783955404667825,-32.50839017162196,-21.452242054734164,-15.33192560398054,-19.15240383336225,-16.362330259620357,-15.129648932387902,-25.23533434864825,-27.72267110594895,-19.937123063894468,-20.832358123994272,-22.29638482786935,-13.12416616840635,-11.534628997068623,-19.017470938020978,-16.616243873937574,-14.236770952459658,-24.24028644957122,-28.483979364560952,-24.02798849344495,-28.022025974037973,-30.88117924676002,-21.278496108765985,-16.655627949127382,-18.23581849704577,-9.149372367794744,-1.581394922920237,-7.855622281319651,-9.368978895138609,-4.1562475488026855,-8.867095906406934,-12.32134096346697,-4.268125746256765,-3.0437197343277016,-8.348010855963507,-3.083969923147018,-0.10009648880062838,-11.947280893641016,-21.373968992287026,-26.10788755795528,-38.84213996720472,-44.16345515850199,-30.268434717131107,-19.591045631957474,-20.253059229799753,-17.825427219045796,-19.064028193408532,-30.640707980838293,-33.611615044640885,-26.728096686816293,-27.159089035840953,-23.92396076749224,-5.439589612158661,6.2160874246320342.9245012886235884,1.763315666087067,-1.4717088301011823,-12.680160810022642,-13.00748149678488,-5.375803703795581,-13.540469883674835,-27.289375501851175,-28.387897698440074,-29.422110783333704,-32.70829685493271,-24.178034614850958,-16.819837712834307,-24.109544441137363,-27.5502263627351,-21.318353696276187,-19.77085324562533,-13.857781522403547,4.494419544355925,14.814535254744058,14.263828172238316,20.480111720798753,25.15173328459833,18.232491303983387,16.397510737900237,19.80495295082698,12.085060737721061,5.852628379874849,12.727449496910554,12.925345549068526,3.966475056480883,3.6558921132713693,1.5108361337681269,-14.335760897881885,-24.995294584001737,-26.270741375984095,-32.818385743556206,-33.18155210570626,-18.334296682275667,-11.244926555853784,-15.3335627383592,-9.011806346357714,1.6330786647961424,5.025268809805243,15.8254691518572,30.695894757364798,29.54687743978791,25.218219345916534,31.887086707790196,31.2942241811993,22.18631142866211,24.45318672864932,28.823544701624005,22.56130446777192,21.678986085874385,24.904346925450554,13.061522040008356,0.31153070981999864,3.4447041903341917,4.54412721840378,-0.7752578502090439,3.3652259499007133,6.613649920100864,-0.6218435881704725,0.37820941007611886,7.809023329145366,0.6728599263749224,-8.798974791937411,-3.341335571284493,2.7083684372885632,5.350060671922421,15.716572036915215,19.741264127369796,8.286290609016783,4.1259876018871395,11.091977564250058,10.13622247868891,9.241587041166786,19.64410738503955,23.71507873231107,17.919144976602354,17.095304282764697,11.26998590138573,-7.297729516504493,-15.92112322534583,-10.007661184117135,-8.437608869811228,-5.540824318605283,6.730836961823007,10.526290549458801,6.233392558916286,12.61418863818008,19.954556345841816,16.260737932405892,16.42730958262132,19.8048849059067,9.370387465734645,-3.9305910817308716,-6.927515974349113,-12.839257530301156,-18.879808135014216,-7.946992421791294,4.680185719560841,1.4858449742953383,-3.0683174619402727,-5.645956231475298,-17.469435685447053,-23.240632352674808,-12.315647926454467,-6.693224844792999,-12.029274687605778,-12.552724600371805,-14.831170696745811,-23.933027458144235,-19.084300461422743,-1.3309383929051428,4.919440560777438,2.961310271200715,4.167710251986341,-1.513387407090915,-8.180542011326681,2.5862977036025008,16.165347020758976,15.279502195755017,14.640900235775062,16.78961020750156,6.401141245037319,-4.76984613181002,-2.65497635138759,-1.6222777331097458,-2.32083860144315,9.656096472216436,19.083381629579304,11.44802338226128,5.546721600312859,6.740287526015821,2.1547656241581037,3.9425280968798035,21.15509690544485,34.72560768623604,45.00327220138959,70.278817687358,100.74170415531685,124.63006834858359,154.52109925100865,185.2524821139731,197.3817504658103,203.6162109874315,218.0803288768251,221.3607479308297,206.45609304427063,186.94949431934805,153.94512397010405,102.68742842214778,60.12694603628317,33.28499917316828,2.5964131774279506,-26.56979401831034,-44.17535103884312,-67.15564507691289,-96.13654758305634,-111.90665235529565,-123.90395615608256,-146.43924437983205,-165.21410226415327,-177.4810969692846,-195.88323435504202,-206.53334981279477,-196.05349115610937,-183.1939843738491,-176.18453793687155,-165.08176042681237,-161.55764852571903,-172.6930772431832,-175.33798193974906,-165.26685683469688,-159.46842670792978,-150.09904966207034,-131.13722034706444,-122.01314955780205,-119.8283116078876,-105.25900642757884,-92.12186956373777,-93.9480126563847,-92.72072935391378,-87.4976756283315,-92.91086897483481,-91.89435692169197,-71.10138793916133,-53.7493679307686,-47.50082959871529,-37.74085867784399,-33.817264573075256,-42.398053342510906,-39.98744250925318,-23.83971731469048,-15.720125684647392,-10.775787451263938,0.4736463573962162,2.9659374941745362,-0.69820148000562,8.304535947535273,19.19973457694389,19.36298935385011,23.443634214158944,30.454018846480587,24.046871881010446,17.735381577031525,26.313329750939005,32.88912799477161,33.13815432057267,41.08999247906962,45.18319211354476,35.24944486678017,33.259705881724216,45.143763187608585,52.85157789530216,60.90382475252592,75.50185200120706,78.25956136631964,70.08050820729633,70.40931292216062,70.47691060754482,60.03132916226056,56.78095681093883,62.96881481831602,64.05649227350847,69.84740189647226,84.79105742111274,85.37042464342314,71.40840208376491,65.65491499594893,64.0661255684161,59.20207162370921,65.6304264760063,75.89897557819984,67.01628589789568,52.93032174713556,54.04030455847595,58.66470595775018,63.741513736732685,78.67928157725827,85.78137060288216,73.36099375829762,64.32970372291602,64.88530400039262,58.815825248716095,54.97498515008993,63.40972383622009,64.94916210892421,56.219749830065645,53.82056602447766,48.683842816129726,33.82694921672449,31.256277353088212,40.2823986598516,38.38316409067329,33.64664716450111,37.08195729406384,32.88948804758218,23.872065093899224,28.414269665215915,33.95536802081308,28.925407437187637,31.1662953381008,39.03300333770035,32.89997432535007,23.77746718852719,24.627113188607634,21.65020192393782,17.35099173618056,27.2679987447013,35.9782703964113,28.170724098590668,19.769659631097593,14.020299020395832,-1.3486363329152429,-11.054872793940785,-1.8680378501064299,6.827719436144388,9.414930391766548,17.88288019425106,18.909089101584662,3.8188123126146736,-3.315479159072154,3.019110671187655,4.5991952511106575,7.9445521668149635,20.245148546685204,21.981289878507898,13.401185454966473,13.6547106906717,12.506813087313475,-1.3370514738514716,-10.160268394415871,-12.996954906785364,-25.8081792960003,-35.623791924904864,-30.923335953441654,-31.015324559056218,-38.09955151041998,-34.57150771858666,-28.884654008963363,-30.969414405435966,-25.76298850263921,-16.510560851784938,-21.73201030349077,-27.774288705321887,-19.073715871769625,-11.548614170000945,-8.147326615193004,4.924803353980015,14.945520625873783,10.49791653458895,8.448080462871008,8.353062206924193,-5.255908363509598,-17.293934514618662,-14.168035377485706,-14.459078259099,-21.542165325758706,-20.325066188312913,-21.708166848599326,-35.03704669763191,-41.40822343639494,-40.169415995584494,-47.02934472348393,-48.572016270177876,-34.99374002933007,-28.317476362833833,-31.36047906626978,-26.524879083602634,-23.713494459177333,-31.98800251804759,-32.495842739951144,-27.04437030190634,-34.48603229888972,-40.73092630175388,-32.9227907538447,-31.50478046041845,-38.92250875436789,-37.625786363457294,-37.75472293489472,-48.792357036157995,-51.29694245941802,-43.13153346406393,-40.9822888818623,-36.074708174219474,-20.684873645342684,-14.826624483505551,-20.404118044817814,-19.109877176608546,-17.744066743165366,-23.681704258574197,-19.430256963368482,-7.032414733776732,-5.693193088527633,-6.936780495027372,-2.523706478809027,-8.798057807417004,-21.353182845072745,-19.281828673193424,-12.896191163901701,-15.940187764668536,-15.517951592055438,-13.966189383376836,-26.93811602102733,-38.64341531058411,-34.58044359605018,-32.74752951467323,-35.32300843332256,-27.04557593321873,-20.219516165096234,-25.048758697687212,-22.70107218467587,-12.45994814108262,-12.186015150958015,-13.124429168951693,-7.0768663728887224,-11.751227531427885,-23.504880689216815,-20.3907071626088,-12.213365921090732,-13.369197136307868,-11.612860531051913,-8.38835407836124,-17.123918369310744,-22.532015173956562,-13.400320187813872,-8.738123732707145,-9.552625392512466,0.6829561137164326,11.031730001415841,9.971985783244875,11.985522507229833,16.03999004737068,8.293024819612109,3.1368909315403055,10.666294830017089,10.6640185300279862.297699177257621,5.232483757175216,11.875074927059382,11.585521325230442,17.595025597354415,24.396346830253144,12.349515296863371,-3.879271417608391,-6.912402091221915,-10.914612849637518,-16.486807295941915,-8.504078604467859,-0.814905356741634,-6.049223397539448,-6.897641997722236,-2.989791696879377,-9.494515837722197,-12.230258063194926,-1.4776180532267094,0.6346984583742203,-6.888009683390011,-4.3079430359415705,-0.6472991062322244,-4.22829045957882,2.1629720845249008,12.811948275314048,7.658018377141087,1.3820318896576358,7.498394766397835,7.954535962736028,2.713612455305467,9.323691717061031,15.426193578446126,10.18577244670248,13.243163079661809,23.950442716406176,22.277871134229734,18.30788933002431,22.3827725929697,18.40491277509837,10.49964619660057,17.430076072569967,25.109414994274655,18.006837680597222,11.575232062535376,9.13763274116649,-1.1862283927171031,-5.536073297053917,6.115068328556846,13.683179566309951,14.817893529518248,24.54044169773445,29.28566745490093,17.32977048231352,8.34372470839568,6.564248197523376,-1.2837387209386724,-3.753750203776999,5.746621819716528,5.841718622504002,-2.8864672533869733,-0.4738543890572342,3.897894973184414,-0.8724224938455762,-0.11973474967761755,4.021395868134544,-3.8889779237481417,-9.052511631620545,0.5762305931134417,5.416528276757601,2.9288792219449,9.722123894282973,16.24387129494647,12.984607910621358,16.12937049722254,23.113034680132408,16.447915438216327,10.002159461687857,16.827310627218402,18.882695415596256,13.839137600875427,16.373913397340576,15.303403954481299,2.823682518889824,-0.6237724520332271,6.12872639026658,6.1591349472282015,8.935996383019777,20.89903847816771,21.830774641746277,12.951996128392894,13.46144343825848,14.51701469678618,7.472808324040332,9.187577468670264,18.015366430217323,16.83805683526223,15.744995456318364,22.025143018917703,16.58652235499892,1.8355123998313738,-1.6777380838818101,-2.758590250948151,-11.549477439743066,-13.24020929380942,-11.371175523272992,-21.452857989303332,-27.269606152926954,-16.151176102061342,-7.266809442072679,-4.639191207342682,2.643225282307141,1.6418205970665083,-11.607714742143088,-12.777579116458561,-1.5849333371589274,1.7281482138678927,3.4264595403665132,10.252159451141225,8.317029655177443,5.465636002784798,19.82934539885871,34.01939463355073,31.19410500412497,26.983286688987643,25.03152233217115,16.04834695865432,16.79776295269836,37.3454048708295,57.49743737147245,77.18655909945998,114.49610227759516,156.14986293899435,184.0144740728412,205.40615912003207,214.70888018565984,199.21532675210761,179.64398363276837,171.49772844080616,155.3851899604095,127.7213786659284,103.09128594336302,72.4042523876029,31.880127710239762,1.5352814099215113,-23.33045569716305,-61.60522854738859,-97.78216717244649,-117.56507760616248,-137.42102428180124,-156.89372113894436,-162.05382798392873,-169.13246491582606,-188.07360483286095,-196.58562516372027,-192.423072660041,-192.16397206302508,-185.81121524165465,-167.13316216081188,-157.1702561334968,-155.33363921960208,-143.21358707008403,-132.2692693841649,-133.92709514697196,-130.70766615081138,-120.72296539724628,-116.86081391030456,-107.29102712129252,-87.91348413537992,-81.81280315505765,-87.84574658799735,-85.63765469639588,-81.5112545824296,-80.10365107360434,-64.52173318123982,-42.45444262608994,-36.31232017941497,-36.23332443746614,-30.679384068137484,-31.001073817871948,-29.967521545314703,-12.369194701240497,1.7252350057669577,-4.4956790632301935,-13.363125456466904,-18.7446628231952,-27.847256609026452,-24.410340301499488,-2.470215560059474,12.230648102779597,14.35543195392631,18.34925882767435,14.830450764721594,-0.323260204959233,-5.115026375307988,0.8985968565575786,1.7494792648078608,8.487295135672461,27.581975363610187,38.27571700248953,39.97355209846358,47.049232645331365,46.95718595475973,34.422771237521395,32.29975656733741,40.59688882427819,42.10602447764511,46.522732405185096,58.58105002516748,58.91360514383482,52.79662318906498,59.361000162001524,65.03045161533097,59.14468351938479,59.568225121353926,64.93840478202799,59.94088068146179,59.06342498985399,72.14119314646291,78.98497857360533,78.08219094733799,82.33652816539825,76.0394546454402,51.82742721459546,37.19762703829665,40.51509766545008,46.26448940155246,58.01212688427182,73.81634963295947,69.72679644550617,50.10653168500404,40.817280716604955,36.97895356434274,28.70143726626739,29.702973043434994,35.11901118477681,25.304598542610147,12.36750046118898,11.606526346284776,12.561842888158612,18.314218538828676,39.2538172387739,53.44227514342533,44.58562284351351,32.166176332590645,24.246102199522145,12.532458815739588,9.3153276055178,18.79756787144041,18.960876109207337,12.101025952631954,18.61566741937767,27.452293861292382,26.795317437808286,31.04901050272292,35.640178635604535,25.29122545221417,18.522073670591848,28.773951775918306,36.30755982203082,38.116462406568104,46.297676656005,46.25969365665134,30.278448661496093,20.13440883915741,17.40892129814102,7.366017844664446,2.3230854088677173,10.294914006638152,12.367337719432427,9.081718547378948,14.95896690584473,15.78063840022288,2.3739111806196593,-4.872794171051562,-4.824913268057951,-12.182991969931575,-14.39966756816246,-5.422291575722916,-7.027459329052709,-16.527208310602067,-14.213038940307685,-12.163554439560823,-20.410113084997207,-20.97442756780675,-16.32236499419654,-23.193464972550046,-27.3988904058157,-18.829485972469143,-15.945399241228412,-17.473846401141177,-8.840569313850864,-4.923182354172157,-15.557371962164725,-22.388841151820433,-25.316721817707204,-35.77039016251613,-36.865039902684735,-21.246135449957386,-13.063524165156991,-16.441994930848182,-18.48827166931171,-28.044871340951204,-42.74604832056418,-36.68850008291771,-15.250513727771697,-4.155555099518915,0.9214420160692542,5.973359700894333,-1.15409032967491,-9.637228685771696,-1.7615009044975793,5.818539154910986,1.5702399973159544,2.3847849091005147,6.340829168782999,-1.6739158650287727,-9.185568228960207,-8.634578871603425,-17.24712285901982,-29.87064364491079,-28.228570782657123,-24.946084366247646,-29.473391932671767,-25.12496673225641,-16.04298274442037,-20.352498820758772,-25.69653681173712,-21.222375547278585,-21.640372508023205,-22.466254399974424,-8.731476380389728,1.940808167098102,-3.2290761405774737,-6.838560679126029,-8.912529673064869,-20.59131970937017,-24.96647440852813,-14.788886964939515,-11.60826229263259,-14.938793532071086,-10.62584814161007,-12.815256317897486,-27.46115528271506,-31.57282337736857,-24.32096030991437,-22.084937176137377,-16.31683427310545,-5.436149725379011,-10.404555213841183,-23.86118044255563,-23.72755739236991,-20.82162135414207,-23.15089902690416,-14.655005951870848,-1.4921450410536,-0.9799793498606091,-1.2997106190883796,4.400349071127327,0.9130744216885267,-4.633513747019675,3.9528822074035443,10.323813726927423,2.4205850688515747,-2.932563632723497,-5.410109159990607,-16.54324024574815,-21.14156488066377,-11.98164473070021,-10.003671528208613,-15.382948686902406,-13.981413085041307,-18.20802925994358,-31.590913336259682,-31.13719611587956,-19.980284777393827,-17.758838244861344,-15.597242407874262,-8.980157771284237,-14.051026045252122,-21.288632940699635,-11.752298527461717,-1.9337211046155907,-5.631271401363834,-7.816651598379142,-9.276024999194547,-21.110582473079003,-26.819648884381866,-18.285982748812863,-16.776146933338655,-23.0147689708543,-20.215121310956484,-16.915360973029077,-19.525813805141908,-13.236598810022025,-5.380519389309585,-12.991188885060499,-19.734683347475876,-13.89051389099842,-11.212795435441107-8.389290931828093,5.748775608183162,11.689922730757525,1.866768244695327,0.08777118578397047,6.445287024730559,5.517532794784964,10.50102323828731,25.122455241470234,25.549182769762943,15.737188054626863,16.569217091267515,17.2743077636837,9.801042110573302,10.90123973053138,15.814165017830058,8.095338026621569,1.0401586155269154,3.2518980085800724,-0.7689080420224648,-5.681853821925898,3.6433545224670354,12.881740273820162,13.517341347292794,20.54495982345128,27.833207583822464,20.263328095503525,12.55934450520752,13.942767805375318,10.762568029635268,9.98394493990297,24.38829151278596,33.82340665815866,26.65650088392239,21.86430318113372,20.07095180041394,9.923793393113456,6.20012276206921,14.63927310534354,16.14495610035756,15.018942097190472,25.743301297022118,31.254274083665692,22.695462310084118,19.95547487357731,21.01581643252012,11.063523028339882,3.51387205458274,4.110503302842398,-4.106628483416144,-11.564062338952263,0.08930675715730274,11.434905262008343,7.0254390704301155,2.304917790571853,-2.4652358540827013,-15.124957527816193,-16.800297408786264,-2.6820360538306875,1.3366144852285182,-5.393841968193433,-3.789646182644615,-1.4216567901455242,-3.7935754752063424,4.245107137010428,13.863847808122992,7.355326729421976,1.0410455559958072,4.709938429312381,1.243898038359885,-4.459832143370173,2.473879994115294,7.336082918612632,3.4939677354534524,8.174274726789859,15.127696547054878,8.725012150812109,3.520211286127349,6.45831204512009,0.21657426859828588,-8.606526959148443,-2.1319978845492713,5.818056201447289,5.316796006700024,10.595228583827229,15.084927684138934,4.2090665357368096,-5.224400909301532,-3.407388379761101,-6.117032734960702,-8.829724860144815,1.2822671080747634,7.271023303470168,-0.1307260375880115,-3.7310611863176555,-5.086481228673877,-15.02100932541193,-17.87108847542005,-7.984688234189573,-5.035188384538962,-5.657692028997966,4.827663890179416,11.524566377447574,6.131833345881023,5.787508986055088,7.400597795028275,-1.501947383510318,-5.50564733225905,1.8616524158490408,2.3590822860778955,0.8438633923772194,12.472377158597755,20.991408501357796,16.283567983805085,15.445447353314254,16.077693117451258,6.511216006509776,3.636523643965973,12.657520884005406,11.316091389023864,3.695068848582284,7.976248574132654,11.012576419089875,4.956132407219315,7.131044135354813,12.236230331885913,5.328314009297436,2.272396146096135,9.381884902692832,6.493899730983037,-1.273032623731063,4.645490344249365,12.651686039597635,14.474569596018693,23.525841978574263,30.858611490531995,18.96189535663246,4.2154075844304035,-0.33753190220292795,-8.533446866294383,-16.23604061304517,-9.801219198288338,-4.734314195020463,-9.488844659348702,-5.9363365709923634,2.710186153007788,-0.41429004111880374,-3.819656724540996,1.4286810229405558,1.8754265906354017,4.0003194783663245,23.847222807526585,47.40689799267424,65.88334319743794,96.21996362860952,133.67080924139293,159.6306704328159,182.3957804000463,203.52801042136628,203.201444115931,189.11043734584962,181.9044242605105,172.10368818710535,153.10046298015948,136.9077153187461,114.39203222544234,73.23139975541012,33.918331253822984,8.072950476481846,-21.342422640753444,-52.31343876847358,-70.927377838762,-89.12738898119312,-111.97384299116668,-122.90128616120839,-129.53879108571658,-148.71673474158032,-164.8045519329113,-168.25853815357448,-175.41156719196806,-182.09757168895104,-175.62192110185575,-173.17638157694523,-183.1424658759629,-187.15556181372875,-186.9901516572401,-192.6307991656501,-187.3196790162241,-167.94703695601834,-157.07033793367205,-151.91621392940127,-138.61190315879716,-131.46030308408433,-135.5075694535596,-131.61049035177092,-123.36730534319562,-123.14861242766821,-114.79450745928936,-93.67973340613521,-81.48879050463148,-76.33406079640983,-65.23221690726533,-61.39966275850624,-66.75776980498628,-60.432166314823284,-48.0145374424168,-46.236295863043665,-42.690307692171885,-30.952682866511314,-25.446880782827847,-19.418760675367146,-1.7186679075092668,8.395135924605897,3.8345112950158398,6.466706717834682,16.28495088768322,19.644904752571648,27.593450810515844,41.709221378737475,41.91578512085003,35.766488860348545,41.955319524617565,46.948186903813095,43.83044275881877,51.3616747299215,64.505898537909,65.14995104405803,65.37102534789139,72.29064385449699,68.71903721317243,60.96207241586981,66.42093238477169,70.58038280999604,65.03003899818835,67.39647944150963,72.43775279593027,64.39554912276512,58.810177923165924,64.33094241724064,64.58477844209833,64.02346203038884,73.8629821096778,76.26828562808123,65.18556220173052,61.45519176983062,62.90027982525081,55.344387664418846,51.53934544043939,56.418285576990684,53.16503923679989,49.09817103588284,59.3678750305418,66.27728963968589,59.61835638732332,56.60473063088412,55.041168202774756,45.09286075225323,43.66302006526285,53.97428174364628,53.91070706383219,47.0852581644997,49.46677691041333,48.90176238273646,40.38610665370024,42.21446075317242,50.19838785416361,49.519893161143116,52.20627452570209,61.13024278178624,56.72130315480484,45.43751148777786,45.212407453380656,44.154994225545764,35.90233479780752,35.49751753931199,35.8025072228338,23.030292679774846,13.870867571474623,16.715794232801223,14.921384148838943,12.691712060778364,22.037525059199133,25.637382074671926,17.216319670134254,17.036120373252064,20.547185307265966,11.855410741216343,5.077707984951207,6.966907410404004,1.619489276071048,-3.4975998340898737,6.028959192297664,13.516268782914336,11.57068631301231,17.017867102836963,22.139692948994522,11.179346423088234,1.2688073566252047,1.5518094169631744,-4.182315576174106,-10.231424429401367,-3.7539410603033065,-0.544819319352814,-4.932049859071625,0.9319491924427794,8.236515114721318,0.7356200950466496,-4.246261966579552,3.257273288047916,6.173297394977446,5.430164686632953,9.501352821596718,2.879357921928094,-14.525598027781719,-18.993922855933235,-15.834744952920655,-23.50193711141005,-30.22823291985638,-28.739429410224055,-32.26344405578884,-32.97194851672532,-19.69569069417028,-12.465893392982508,-19.01889170381088,-19.222607804816263,-15.635108217204731,-21.604784310394226,-22.94557327417227,-15.710104923693729,-19.033531834432274,-26.149947758871015,-20.86841259956391,-17.239518951535963,-20.384786464237095,-12.745468514215567,-2.8870805462920273,-7.953321725026537,-12.25723461815167,-8.495091656556347,-13.82278093136168,-20.952954000435547,-15.79615603886746,-15.729266138350658,-25.104779239398262,-22.342683722967063,-13.938803088265974,-17.13003337774864,-17.889695242884496,-11.614014462004327,-15.963481399340925,-22.228044709628985,-15.456931848033397,-13.345489080399613,-23.147602845076385,-26.1004917235841,-25.61354686559498,-33.532188610609914,-34.588598963211346,-24.737120218248812,-22.659924426542176,-22.99547874992345,-13.515537199338631,-11.458230605290854,-22.271674735923913,-26.461280256172373,-27.819631242979412,-37.78254089851853,-40.17882410524051,-30.64758910262087,-26.826639332026144,-22.483629414621443,-7.812165934427117,-4.045918336139973,-17.734412563353036,-26.65147701226868,-29.206270056730403,-32.29970418464345,-21.594453728392416,-1.0357712628744036,3.618986996120813,-1.938695178235644,0.8607212962168775,1.6585453067830893,-2.685724395161974,2.8222358035414516,7.445302197823269,-1.7613426981516822,-5.129062378678385,2.377167167447005,-0.16124307070803212,-7.495364471152375,-5.272418099837133,-7.556113145953773,-17.188605367330037,-16.575370997614975,-15.626197179784459,-29.40196062086953,-39.30220922827372,-37.62883753504199,-41.98887649033303-45.56945257245747,-34.39646182490744,-25.37762775249168,-24.878852182356894,-16.396616706396454,-8.860965305554807,-16.903531561906668,-22.20760191872121,-16.312085099129426,-14.619243615941098,-9.949622892484118,7.481221795572979,15.68186472185554,6.799275033285084,1.1404977921465083,-1.6366635519511878,-9.541441371597768,-6.490817449183689,7.359284235293595,8.877756705782595,3.971318182767887,8.426554300907418,8.266655070774437,-0.1528019929213884,2.3150443593322727,10.522660480439404,11.150654693732601,16.935085336879197,27.281093628591357,21.57322876504616,10.118477215755734,12.92022148685245,17.201171175763598,15.71960636581725,21.17886657358948,23.84095907305908,12.030832308073672,5.922573238569029,10.635017886312,3.8612577978542517,-9.3328058945551,-12.662322233669638,-18.59643819988467,-27.357091406529587,-18.660015682316182,-4.161228622645259,-3.985402700461199,-4.588303615818855,-1.5504242115434685,-10.551386085623623,-18.705923021624066,-8.526076564779807,2.165818441221492,4.515138858054764,12.876395835266194,18.79396578004358,11.134769351959635,9.54634494697795,18.340264191759278,16.77215083748956,11.087094485544206,15.68028330178919,15.968610425815823,9.578356453380763,14.627849059216807,21.05908932978758,13.355833636436927,8.896560298922742,14.427416285625881,13.349086827662589,12.727322999375662,23.690704425048423,27.856765296032414,21.928214700436897,25.729755865105666,30.922302707011195,22.274620409256674,15.977152089072803,17.62236724000101,12.126747862740174,9.638902300224808,21.229807255705218,24.73192135613363,13.700945930208167,8.23303379458083,3.3699183519140594,-11.433431221757099,-17.430750014147407,-11.562585971167618,-15.02359839489851,-21.158248531519785,-15.055054304331165,-11.823174510115932,-15.827520718249485,-10.307362438134664,-4.390145919158796,-11.046945683840658,-11.069665154688948,0.5134983507044781,3.094857719327945,1.7112526060486968,8.84208072340336,9.24622920805933,1.408900475856155,4.057447868440067,7.394187188438152,-2.6502185549535273,-7.162294864870646,0.016137334031876005,0.28642312220433874,-0.9527591263172788,7.756059436086861,10.26683035416784,4.55292490627169,10.644228560205871,20.973151961665998,21.108377053342842,28.27720134679111,49.90569487411178,70.78415953100684,95.0994614089284,128.083542796855,150.48777529177832,161.207336906759,181.0957559813673,201.55057881027886,202.44381027577225,194.24760166121257,184.30565867016088,163.34759591858636,143.01704403695567,131.3374828922882,104.70641122167177,61.72446332563632,32.242920234518685,16.2230385394828,-4.976702796382331,-27.930855390594335,-54.98791777322811,-94.58816129703672,-123.14131766979864,-122.5861209559231,-118.30047571989137,-127.40978062561027,-138.99173509431716,-156.77054415511182,-183.3377603266546,-193.87840019355912,-184.4854531778041,-179.32830162521546,-176.8068655552812,-168.61432053974306,-172.0262965029996,-184.50062483079543,-180.5905591616906,-166.8183610633635,-161.0258804477436,-152.11974422968106,-137.6522054485185,-134.26473643848902,-132.94541470200608,-119.0508986851097,-107.4460261155391,-101.76350165843016,-85.50191163218047,-69.30258061268748,-69.7116670273857,-71.41316831710714,-67.30787510152334,-70.82865572339846,-72.7701546909911,-60.240959551398646,-48.601861955210296,-41.53456550044774,-25.0052389514179,-12.55549760135486,-19.794942137520703,-27.901356480581352,-27.263804582580157,-29.23377105278487,-24.38014110351877,-5.058603239231815,6.392679380222153,5.09116567432121,9.935769989941177,13.935652663133869,7.317010086706709,9.773982099021904,23.70032129594253,29.401096859312283,34.76207238083525,50.8549894061446,58.96164052642041,55.00682679853613,56.1096838723674,55.79034516168726,47.0615790415132,50.60382122245545,67.78932667108512,74.70010008764221,73.8474758208229,77.3920331079545,73.90116060815781,65.77387819656319,71.33057951165249,78.2041525290165,70.76410749274979,65.77878668074061,67.11979728979134,58.57839998958601,51.39791529264097,60.24189400902323,68.29165170996765,69.1423996984685,75.7045258748271,77.92900492457382,66.70352044200925,63.086711941096894,70.52396513352144,69.4662951351746,68.03040980794536,78.60721222425724,84.04734730752217,81.44929440792588,86.82132278841787,89.19117915978022,77.31199136437303,70.2044918040622,70.04919937056249,58.477080016630865,46.43023901261456,49.33576553246083,50.86889325596443,46.15293806196041,50.90273247615052,54.9363133117216,45.0002122882625,39.72016710283348,44.117768662169446,40.49388678060028,37.481247776260474,46.135087456304305,46.42462517720801,35.88752022305931,36.08086970771484,39.95842662184511,34.204410665844215,34.42468760862412,41.077061809526505,34.4815470924962,25.909141847725984,31.61938630697062,33.57368452050796,25.175774396454397,22.636886696212013,17.83657047448692,1.3394923725411285,-5.1289559280963015,2.9835709389864786,3.9852809493410595,1.753298453697939,8.463484934236384,10.488062405456144,6.98321409858799,14.529545079603613,21.98678308027184,16.133112563240648,15.030469690940109,22.23030078467699,18.373734038473696,10.295394644752918,12.435494612879525,12.282844951893928,7.11488921455665,9.432030909801098,5.3293299314857725,-16.944720819100805,-32.73321286866668,-31.229352351020516,-29.992829184245085,-27.343533296167845,-18.377237305670363,-21.661144556389125,-35.29689622337427,-35.72635843430334,-29.190510291342697,-29.682551663452845,-25.415171458218317,-18.37947288543647,-25.51990638835879,-33.55904013367433,-27.082675016791573,-22.207852468620256,-23.6356744757013,-17.634971871995198,-14.193842946138957,-23.037290668089334,-25.51824348439341,-19.993369008828335,-25.150999003590176,-30.430484500485917,-21.397245554633116,-15.599737830696878,-17.65016004251097,-12.968803588213145,-13.669675021570153,-30.22169569491097,-41.18659068698928,-41.93154325520011,-48.552842014380374,-50.91188160607028,-37.747974591045875,-28.088701711118826,-28.433152243029845,-25.318230957728787,-27.636641386515326,-43.779743762074645,-51.72502318480356,-45.5404468265217,-44.748083303006936,-44.326819599960686,-33.35063164184997,-28.850001704787218,-33.33693024878961,-29.28412186717317,-27.18953851802896,-40.05253410740841,-48.934443437052145,-47.91560875761591,-51.53019728730692,-49.95384046777703,-34.00678532615224,-25.448617417292766,-29.702096696382448,-28.753440875601637,-28.089093422925014,-35.36662919549075,-31.966344201156296,-17.4238432672996,-12.450923308192797,-9.737919891436947,1.779614983632129,3.3371999750766967,-6.648767937448676,-6.263127383351867,-2.1913366770092715,-7.432217363899886,-7.857012963001601,-4.632510248293205,-14.571040951252082,-23.24599482325021,-16.3037483019017,-14.141628650394438,-23.043240025391576,-25.710262322927257,-28.09748401463058,-38.32022239135267,-38.43050205360178,-28.501561356505185,-27.29476117781381,-24.812897888253477,-10.496393779417339,-4.446055857963871,-9.397893676310368,-5.896654809292572,-0.22577420974576912,-1.3741548650425912,6.180638966167962,18.729413080050616,16.110581542963473,9.115747983269742,10.603398997196514,5.471600055216772,-4.933481423805652,-2.952249893885659,-0.5560869588670776,-10.215536876140007,-14.106030274699455,-10.946023981179202,-18.49742071788843,-25.577001770510147,-18.73658437609227,-13.166781285963104,-8.901587340643726,8.104254596485486,20.045592787364644,11.454387391689965,3.9968036571295755,6.155208067535275,3.7364526177072035,4.658992790539388,15.76695655638824,17.391388269971365,9.831963791245098,12.633020419580427,15.46159792621982,5.615808069528514,0.8616500562366265,3.6227808586959163,-4.357148176854372-14.059547502470418,-12.922259278193895,-16.742813185071917,-26.731578489822144,-26.326768100840233,-25.556255237430634,-33.46058734759907,-29.03721223070339,-10.57207615726606,-0.7910150619311336,4.1592197615674635,14.19240478587145,15.420910866112976,10.831285855960477,18.399202126342153,26.77520890556645,24.43884312708701,27.951451496787,36.431890986938164,29.91928062587524,18.0308789956675,16.77153784333963,14.908789029170148,12.521390524963087,22.261379397595267,27.239415988530123,14.261806640607354,6.244921858894143,10.540298162543724,9.836352500593986,9.874824334007766,18.37568002097068,18.16550216810407,10.744839153229957,14.181596157355907,16.452123131308355,5.722874510687425,1.5741398183449653,8.558154972314412,10.660637806447518,13.964094024737769,23.57759595404131,20.803168393224617,8.759005689895606,10.007296373067298,15.778096837183705,11.56968295673136,11.259162347584896,15.343117238374482,8.150916394078083,2.6102031589769683,10.949817980986285,13.838918494030047,9.162195198718905,15.451956135225412,22.73155877357642,18.035982517537374,17.04827637120926,20.86560583691449,13.64536253409338,7.900952046477637,16.570047053690775,21.156658854490708,18.46861945230823,24.88416789652737,28.694522073550655,17.591949404461257,10.386554078179216,9.981596057919244,0.4186919776044382,-6.262315571862042,1.7916761126790384,6.458313673098881,5.777414966086697,14.451359833695518,18.633985933217158,5.859763529551186,-4.20657144639555,-5.503968638284953,-11.244367642715858,-11.347046373906402,2.1485747365856414,8.556833001586536,5.367905976225277,9.754888001234654,12.019182252805606,2.7009292625272563,0.6885518508884807,6.478250246138754,2.1389881722501687,-1.891993335594144,4.568992629294716,4.286199017150019,-1.3034128074955418,4.37983427014491,7.511351603198642,-4.147037369835352,-12.741589717926786,-16.604197082697517,-29.34250782756521,-35.50896936633994,-23.104890181216355,-13.276976276801111,-10.479079260784811,0.791376543682385,9.53513431796671,5.532435143323557,6.696497216366858,12.513171133844125,5.671264237052066,0.10162086918846325,10.908736004749422,20.651456518359037,23.834642331738525,31.80320951154078,30.562902529836826,10.268983080526324,-5.734310513568157,-10.233477984145042,-17.755978403628184,-19.384453663763722,-8.661140337287152,-7.465011868311038,-16.27403771140189,-13.811235716266296,-7.448443820570458,-7.44465924131995,1.221860856988778,15.019085256616245,15.893229749455713,16.363977764413228,27.46912314562,30.77481539651319,24.85911944587466,25.840888084073683,25.733084189058648,19.709585558271918,26.833401907857276,45.35733111919215,57.78477861252018,73.46401908806261,100.94837079392423,123.94202795428396,141.93260561914076,166.9014303275966,183.96823467514383,182.52762977166714,180.7900989015313,180.40323076143642,168.12855884003721,156.78905212475286,154.35856561827202,140.1959473381343,113.37971499381223,90.99267090420825,62.66918191392111,20.688028491316363,-14.325757771243165,-42.869396476624196,-82.86295829851143,-119.42429717695077,-137.85160396955456,-155.33433215821998,-173.48717648552034,-180.98021607684726,-196.79517011687207,-230.82703105412008,-255.30171059500844,-260.45609053415535,-259.89626099222727,-246.75373248471084,-220.199943518518,-205.60288964326097,-203.45249162449318,-192.56554114854578,-179.83501992139855,-172.80906401285253,-154.48646757882813,-129.87145332705862,-119.82883873751742,-113.47458769689405,-99.75005581708876,-94.88602445594654,-96.87020372786564,-88.02180594457619,-79.07646553381615,-79.70229053311738,-72.65022670428564,-60.43398846680167,-62.827830826267544,-67.88390635562958,-60.322906465364724,-53.23658283041704,-46.40336290689075,-28.239664195417685,-17.260220391380678,-25.874992588714314,-30.31118868877226,-23.0074881404026,-17.585032153212158,-3.903097457163434,21.40977003604229,31.600111276154003,26.333901558389485,29.95777420198567,36.72192340118486,36.644862370455584,43.64323374632066,51.70144170706088,42.21800400272665,33.004188604523534,43.01873796087392,55.682204904759324,63.370221492599796,73.57771641944726,72.75709258872261,57.260297233370665,53.12797929072947,62.981109726678184,66.77952132218411,69.94547930533182,78.67404608677472,76.39081125559744,66.6753087491534,69.04562971219089,74.75028996762947,73.6385157455479,80.17071917023199,89.5714161359471,81.02633289661992,67.06168607905825,65.35470304186674,64.69038006089649,65.12076340768442,78.43122053564922,87.84943437650402,81.14334369434823,78.26373705779771,81.80123005584925,75.44376606784387,68.90559725960821,70.38466845603416,62.75280475536146,49.52330421169233,50.21132085549596,53.0876016924149,44.61059622772509,39.30601931108927,36.54956615754824,23.537171149434162,18.83230696468291,34.69280990399316,46.37649157688589,46.66035786510417,50.812006261777434,50.16150269664899,38.85559823965235,37.06091064235189,42.48905755410738,35.31505757658043,28.053633827988854,33.987153132264574,35.04488951608848,28.7823580530049,30.924277430073335,31.808709140304153,23.12279632549915,21.758679231819574,25.736620624000793,17.803701237661343,9.564436760479103,12.761718150226129,12.13529594109513,7.445936900201745,12.833170133567416,16.864906306151287,9.393181059059991,6.026960998227671,7.253367541528611,-0.9871428422931352,-7.349974281503032,-2.001028804721418,-2.035478808829564,-8.171347469744044,-3.9273736438697413,0.9044159547722637,-4.952746610388927,-7.550723459411988,-8.580279176139541,-22.6545476069277,-34.32215947890694,-29.16745160656467,-23.431184724252248,-20.59403527586982,-10.662053081032381,-8.917106354503273,-24.094862784769973,-34.31736699333492,-35.408543876580474,-40.44468377567374,-36.76177582729996,-16.819707463278597,-2.855681220497385,1.2978308496473532,8.200166397068163,5.482242057184596,-11.446939140402485,-18.052209248700898,-12.289115353897214,-12.78954721112938,-12.140935781499623,-4.320553702245846,-7.794724759562847,-17.687265100382653,-12.525673491930657,-4.326572352296437,-7.330017541055905,-8.669153051720144,-11.143211455251066,-26.506847299041052,-34.47304697331547,-22.216152535794958,-12.562312153915821,-12.73448206210185,-10.411940940436537,-13.970849565729253,-25.756929761626164,-24.53745448941664,-14.514516801809975,-17.70933544676104,-24.301777083966176,-22.357065482629782,-25.654143190191036,-31.47065838682728,-25.67460848262936,-23.022322131696633,-32.86721007316787,-34.76062682015036,-28.35853873158908,-31.833483462145107,-34.76642670640915,-27.701195275092083,-27.37760159244017,-29.203356742425832,-15.07946503049542,-1.1854750069032178,-2.0676088524284886,-1.3495187398854442,0.9843121190523885,-8.498553610452731,-14.055207036290135,-4.804401645902347,0.057351239831424795,-0.6630128434332465,6.35220720521475,6.752355903245851,-7.932565642744981,-16.59403185930117,-16.796494373458216,-22.322943725359416,-21.328487390359356,-7.420682764185598,-2.0727294450824716,-6.337645924056593,-4.253947516406794,-6.897595851852281,-21.25191544106957,-26.25183865118042,-21.201173053832044,-23.173230523240196,-21.950044829004668,-9.677358853074555,-6.078661395321339,-11.863892415702015,-10.640622991747815,-11.685699705034477,-20.273319835192957,-16.49066107736106,-4.587317528435999,-7.725197004861678,-18.089001071787045,-23.283800930919607,-32.45180261297901,-36.895263264415334,-21.413003171558856,-6.89110527604471,-9.908952514648998,-13.44182985173807,-15.367207063718544,-26.28023814971162,-29.29970579616464,-15.5373205691088,-6.30392689080651,-3.3839718791071713,6.395552715981529,9.635394375723433,0.19511878134899252,-0.9665117617417314,3.5987284725116746,-4.920362412051599-14.861011319211505,-14.135104194838089,-14.516878175577235,-11.15112657724959,7.81027306711289,21.545288168985167,15.594179333285364,9.441210046105345,7.627946672855732,-0.8282858421390018,-2.4703142837141425,8.513291623807799,9.93209029513661,1.7174769100906362,0.6746908555831941,-3.285117924852905,-14.73030754324012,-11.740085876981494,2.953036807359674,6.89413780627504,5.893129538285761,6.799280888887263,-3.499019503943147,-15.158614511662536,-8.724123335648983,-0.3873255363023542,-4.225548983341907,-3.0489109805002834,4.166433961624675,2.598153555244577,2.934382970421808,10.498550998136302,6.0769090600610305,-3.4156323785547773,4.734599006402265,16.97785464130339,16.85076747319404,17.48901291803174,18.147162098465863,7.185422300801128,2.579533953941645,13.365256410090428,15.949972813979636,9.706114941980363,13.515700379878712,17.346534114343328,11.811917194701863,12.487324165108095,15.943064966350125,7.282160449467187,2.3821380434031485,11.218525246523534,13.566948578573463,9.90525927001299,16.79025226437065,21.32535316474741,13.656525404784905,11.388072617537032,12.717622781460829,2.9323078237802984,-2.3265932392512325,6.62016391127969,9.285075687165989,5.829790475292045,12.138868745837224,14.916932890412594,5.112562189130924,1.459261830444105,2.4089983142400837,-7.909365920086161,-15.652158350761107,-9.928508447872279,-7.401154231882455,-7.08560733929004,4.139819786626692,9.919278858341816,-0.5702148182711584,-7.444110662977283,-7.733648482448771,-13.269403529014232,-11.843502855314796,0.8216353544842354,3.9981081346058955,1.3436040255396131,11.433120892794504,21.99405416842591,22.75372331811914,28.348879144362922,34.24390797431658,26.756887894113852,23.223312036994226,33.67088737236177,38.20873114794381,36.74081692394743,43.74816146393846,46.05111756244091,35.680465070447696,31.398594532941036,31.59294742660355,20.15418600591842,10.094249440572586,11.955773601697002,9.218679964912432,3.2683674170009582,7.627483589992669,7.3132191019541715,-5.42667968011247,-9.657291134194192,-5.908736276033224,-10.572825293253088,-12.7664185105702,-5.481393410453354,-4.972974855750426,-5.52995767487649,8.081479836229258,17.115249810533214,8.270453885418245,0.2513812360041868,-4.445145777543967,-15.69909066168753,-17.383623161894064,-4.074711717394733,0.2320225463491703,-3.990889688185045,2.1657992592571884,7.956035977667687,3.708117393380784,5.300425935677747,8.955225039764498,-0.5270936705997276,-7.125511559131284,-0.5416502011675584,0.5433202188336996,-2.015647377484983,7.879259505258891,16.547001856924542,13.113824955832035,12.60403890627837,11.555509914474584,-2.8844956056557436,-12.32040196057266,-5.415337641936829,-1.1269795121630295,0.533347029524083,12.845561014604126,22.103186025443662,23.049550016691533,36.98266479837572,61.11211241191737,78.21086387879042,100.66544675200801,135.50303809258844,161.98139303061635,177.88260616868502,192.63221797393143,189.2718930823726,163.49148418323824,142.79888475348727,130.08882916723374,108.31550137083318,85.85336538580435,66.26294514875474,33.327807379178985,-3.217966484049173,-23.937414417704215,-42.60189674279593,-69.5064475867071,-89.05633922786436,-105.23402244300526,-133.25467087005444,-156.8629124031623,-163.6215591175406,-169.29802671434535,-171.5314168378112,-158.32311990865534,-149.98413069091134,-159.30104604442812,-166.12645469325653,-168.45324757524304,-177.9496055301779,-178.04647725928788,-161.0302063811023,-149.9987766947278,-147.24078377430789,-139.1596670069823,-137.8990751684631,-147.2495968491093,-144.2138704385883,-130.60919700132507,-125.18844060751908,-117.79889782685443,-102.77638725153128,-99.94513782779299,-104.19952776940039,-94.37418632071476,-81.87010188253987,-77.57167222506457,-65.84947636032213,-51.30942687944303,-51.32648123729638,-51.251156105082046,-40.503022526887946,-36.65777861502034,-36.32864520970011,-22.112704262037738,-7.162635479598402,-3.534050272550352,1.2794713922474727,4.244613585456408,-3.6379422998609168,-2.966441241993973,14.998130127842641,29.635661754515347,38.80093508227608,52.148506740508154,55.15517085924958,43.9307037320545,40.803536749182655,45.30060582540925,42.89847503094054,46.04073548814245,58.72344590363152,58.46304576020657,49.25338740792203,52.33348071753902,57.2831084241007,54.87612832461495,60.398907618141166,67.55470228376088,59.268566447968944,51.247088290771615,54.891794311043,53.70268696931946,50.35852233108108,59.553534187696684,67.09447866574376,64.19004707256991,67.63532576171502,73.81821982657138,68.03287290599701,63.224960391848214,65.07794322122686,57.33415463005782,49.1892483149758,59.3648115867064,72.32482699035197,75.6599644690707,81.02961259048192,80.60232982034714,62.48843585976882,49.40833851234627,54.61503258060398,59.601665779633265,63.470525025128694,74.96913715517009,75.25688604305836,58.733587860197474,51.78042364257791,56.39672776779672,54.56599026036041,54.31594220246462,59.94977400727398,53.62702904947287,41.81629796198297,42.45738963405963,40.95493487340137,28.121205836535196,23.633505189614414,27.034702416037902,23.10886564765653,22.639605801841093,30.082172215437648,26.18828365412572,16.34794039109762,20.33835085983656,26.47209791106969,24.250463478080288,27.849709726815085,31.554490944544664,19.71583997830328,9.680655466563843,13.955190347732854,15.808147525011703,16.19417886838276,26.081811195657288,29.484115034673867,20.506948115186297,18.627781748965447,20.147264133410754,9.888850275223207,1.416167170373708,2.1214491534466267,-2.692265851700112,-5.812658353910567,5.3146433792021845,11.739903136545996,4.763109752301267,2.706315388834839,2.382640687499371,-8.96400200204522,-15.239439948449249,-10.277030858812672,-13.689236518326211,-19.736152982330857,-11.504729044337491,-5.24263918739328,-10.230853613889545,-8.478946862436262,-5.199841074309472,-15.468006344245023,-21.540007845425293,-14.371974375181363,-14.238432865216229,-19.29865232566683,-14.873489913823782,-14.644611261420701,-23.37137423751955,-20.113055736741426,-10.209613258082001,-13.760621487169244,-19.464563777630445,-17.70047343898878,-22.064328933034925,-26.41964655504414,-16.21424018537463,-8.62926686196107,-14.349451678352928,-14.672850793470971,-10.76036879484407,-17.95930644579519,-23.735620318659212,-19.430331438084767,-19.644563514731892,-19.716304799469675,-7.423802260263345,-0.9823861992067056,-11.18861884520662,-19.53631909104898,-24.74423335223284,-36.488191226481575,-38.164603559304865,-24.088939012077674,-16.910174385286386,-17.203944896901483,-12.600001245406393,-16.91184041613683,-32.86035174304553,-36.303089073754435,-29.180944890177926,-29.74806881586858,-27.503671746327633,-17.430486009678766,-18.284084035821397,-24.198377971913864,-18.360975214632944,-15.478017154056658,-23.100718965847676,-23.010667669833456,-19.22030177044404,-25.339012290740484,-25.895336564203674,-15.279850316196779,-13.401059040847105,-16.595623655073204,-10.522589864366434,-9.594180888830191,-19.0427840552028,-19.306131940707004,-14.750335163184907,-19.598390561573783,-17.990132156768215,-4.631328922515115,-2.0808031858748555,-8.945946339268719,-9.721296782101438,-14.62282804789147,-24.815279281781667,-20.680233111690534,-11.754306755334827,-19.108186268839596,-28.869800925420858,-29.530112036459812,-33.98479575076385,-35.87038629881955,-22.57110464569072,-12.311302857284723,-13.661745624205821,-8.558689793468687,-2.145091653939786,-10.223226828877047,-17.650002448182466,-15.679444140594573,-19.695076701142277,-23.05971263306256,-12.31946719076318,-5.6155621406685,-11.14574514907777,-10.547147440406608,-8.537451489250316,-18.659526940157605-23.217865488562683,-14.649901060603058,-13.10540470016549,-15.065745557218204,-5.629473660438426,-0.1533944663282254,-5.047644359703773,-0.4957980213578672,7.5292486000362215,0.5954176051794162,-6.896489309877167,-5.245521137920288,-9.637984344323531,-14.09963761363608,-4.80491328411096,1.0500625284050893,-5.162524536090205,-4.6823736100093,-0.39812567119863584,-7.187610175973905,-10.990859217331272,-4.010423599646151,-2.9131819597298136,-3.0265156551655035,9.024206786431769,16.315207186969385,10.551078043662498,10.112921368773822,11.524413206405688,1.4699848841247265,-3.4907111018124977,4.046444230482624,5.4293667457019446,4.2694789962871145,11.647696666300723,9.454525271685888,-6.261116103990484,-12.224860916207565,-10.657630181823261,-15.787475061684797,-14.561014835157355,-3.708695982842943,-3.299201812111982,-8.004131674793678,-1.5366397764091544,1.6995752720803419,-4.978844678180529,-1.3808904894284422,9.321066510950704,9.710479337298974,10.596714263267096,17.273139217218024,13.011295585900957,5.445773255155334,11.552519548903872,16.63640171903302,12.297724981974618,14.984047850495315,20.663712872920705,16.440026792481987,16.277795443271664,24.625342325031454,24.103933450462975,21.419608214269267,30.90635484834958,36.07643387751886,28.522830861663195,25.313352871483545,23.292370721972535,11.133571919183,5.422252033424324,11.938952505001694,10.426659648037454,4.015791301594001,8.006803980857802,9.383925812967792,1.5169407588435408,1.0219669555360238,2.521492983020777,-8.287600768801983,-15.446563965627943,-10.008544325222434,-8.659199415002625,-7.978851748569591,4.7188700543684305,13.949019999054793,13.054015233589023,19.768429625841122,28.119228742499626,21.899997132380946,15.086438223347479,14.900974849009177,5.81106884565983,-4.611030760122555,-0.020941565889066815,6.213551751933673,7.164918862331413,17.154625711551997,26.039102686750866,15.44698574187752,2.0523943617530285,-0.29128749525310016,-3.9364336549836714,-4.5185448384646625,8.380397099296871,16.36411837730281,12.429200791408817,15.845629084247209,20.417424499569545,8.571830301637906,-3.4198162542637274,-3.4859318902281977,-4.914013590480167,-2.5994949510681,11.382898001431878,15.256547013796503,3.1733994671369032,-2.725825408592879,-4.052171399473682,-12.471471533882253,-12.388302750198253,1.2304831087276815,8.281567499708496,10.876221589939345,20.937483940951626,23.91452698530174,17.78509767627463,24.610283211947326,39.49031252149446,47.9130636249794,66.24493230381714,100.51349934843384,130.94503820948972,158.8553700165834,191.16502611917096,206.63976012119727,198.26181250399645,187.1398731976029,173.89584111145527,150.30749836321255,133.4653125164108,126.5982267001994,106.7723864952392,76.06278179695173,50.12146217041461,19.52563924600687,-16.047579913412573,-37.633821890192166,-53.883545551654265,-82.35800498214923,-108.98614412287088,-125.9003196454114,-147.65773654987152,-166.7590503222669,-168.95216735947253,-171.49525242742104,-182.91766178290422,-184.37930042914272,-179.1296096825718,-182.11452110312558,-179.187283292225,-165.1906544451116,-160.87572194983616,-161.6682446521174,-151.12401518902743,-142.87472736356995,-142.19453846657964,-130.93568029070173,-116.92387535607602,-118.03487172886675,-119.08893813681686,-110.33698086764174,-107.14469068449098,-103.27272518848048,-85.21166247480292,-72.48724593848874,-74.39657864349311,-70.0595118557743,-61.11273214959172,-61.59861682097496,-56.52841310273542,-39.243491889527135,-28.70901070269219,-21.977565647200162,-6.949718363395716,-0.5615271367950164,-9.90394346302913,-14.510189048467629,-13.12199936889325,-15.035134717605384,-6.791421723124045,11.775093479812346,17.6284864197789,14.752027343294305,20.265887854390296,24.246657747179263,23.412416931062673,32.53026173617843,41.28001593023372,35.52400022303673,33.94559090451764,44.21471756236919,48.597400406466555,52.103788857760314,65.71515744708408,70.82331840288735,62.15247292793933,60.320529260809806,61.69432160451889,53.92770225803179,52.756809142581716,61.534553547855516,59.623111128438026,53.019039472166305,57.97754247391095,59.66527603446447,51.06888806730828,50.68801847093303,55.41664812912828,52.60281287645381,56.16222960148903,67.37618684434996,63.76772755552988,52.204215229824044,53.61544316550531,58.04738663310323,58.45193910985912,66.71793961726632,71.66961359578968,58.54276080737008,46.93919290506537,47.29954398815532,42.941495821983594,38.41900236670375,46.01300661626307,48.50532879471152,39.49784445969794,37.778366084063904,38.481090210988405,28.93159102865647,26.894250894578022,37.77132923579502,39.70184019976178,35.97616406052119,41.143078170537486,41.451835770214856,34.05558108053339,39.59825750281807,51.18411893617196,49.756386557536544,45.93403283932844,44.34207771845122,31.03371517761398,18.55141834174258,25.388642307321877,36.843252154269145,43.15730728211397,53.83189640057819,57.449943709202685,40.52993026956423,22.74334436098284,17.441822348823493,13.801537015593603,16.883039237318354,32.67761821572995,38.08505725680383,26.017193260485506,19.662428076389727,19.036416883945797,9.876879017965736,2.9622461953511374,2.1013182128878025,-7.262990092314698,-14.929228484016596,-6.638469320232924,-1.6589537610058165,-9.25378264978519,-11.757195710685519,-11.93951112977885,-20.879647395337297,-23.230416031161187,-14.477748750455223,-12.771108800625807,-12.953391431394415,-3.3287126717216706,-0.4923715829069081,-8.618099928707336,-8.752017370171437,-6.750997166066283,-15.820706105927528,-19.335008915509537,-10.624613313263039,-7.834222404390412,-8.634471750209425,-3.616926689725327,-8.128665938648277,-22.322295535989017,-22.23665523707046,-12.66061922631423,-13.020682262610064,-14.348604828290172,-13.143527532171285,-24.509743521677336,-36.07500572440103,-29.18363295520829,-20.71739373743708,-20.12530113481601,-12.850297510505698,-7.401048304940167,-17.186892836538032,-24.523222754606618,-23.963704108506512,-33.70461889565528,-45.01528726202278,-40.97359168805995,-36.28195499085279,-37.01438244487831,-27.930696816403497,-19.296263223570882,-27.00507285517195,-34.178218463730474,-33.83537942445322,-42.930842170045985,-51.79787043148747,-42.47488180356433,-30.84965337368854,-25.34476448261697,-12.662812233224814,-5.209090350345303,-18.18689228923067,-29.737947092323704,-27.950628058408412,-28.574174331545727,-26.388234690012666,-10.907823923921903,-1.0780521072497842,-2.833535206990689,1.504626538708954,4.033743152912012,-8.973830140420283,-17.68027897892693,-11.47134208367666,-6.282502808351505,0.42477175184873484,14.540899950177312,15.753054012815785,1.7639914698787056,-4.632779629699495,-7.693758186837801,-20.344530255880024,-26.11535429715206,-19.89300040290663,-20.571396852623025,-23.669590171320472,-17.480420971746923,-17.29108190885153,-25.364546478224533,-21.97925782821781,-15.68108730082129,-24.499899751797912,-32.83817450110631,-30.37524234751868,-31.509337987871284,-32.067231907380695,-23.11327778180911,-22.80198980311233,-33.74291165828925,-32.830869600419284,-24.37432586833995,-24.936884236608066,-22.96538962038583,-15.30459428074738,-18.30112929300658,-22.636224526322643,-15.147218871901147,-14.774665672060177,-26.008497731241384,-25.77009847380532,-16.658101163190597,-13.348718676011282,-5.477181720546393,5.225756049297281,-1.4814802959835918,-13.82568124238141,-10.347930108105423,-3.921502894484054,-2.4289181956232033,6.75629279199522,12.635513946140016,0.8557967255952343,-9.465458101967583,-9.345407611193837,-15.219480533211964,-20.8915898947431,-13.47992342326193,-10.270021105272084,-16.379654146103547,-12.042786368610379,-3.1825706563742147,-4.42717787886476-1.9369292573212942,6.323854304197464,1.3073250216265988,-7.995443088309441,-3.813710112163356,1.043697456544559,1.2400472667931821,10.8156588030856,18.230196570364335,7.603993302109419,-2.636644206693232,-2.59591717073186,-6.366122889592056,-6.691909570515412,6.400660615797967,13.207078472005431,9.075896106424963,12.984140194238151,17.630471478001322,8.739233875472944,1.932553599560564,4.800225421734941,6.16330687161736,15.992338336694047,41.33405336636813,55.20209418619591,47.24209144833836,38.62010903155566,30.29075811447183,15.485557364140288,12.49664063801703,22.692429051203845,22.54245694909365,16.523497342334657,19.008044489895816,16.0192027143001,5.830612937571303,8.268310425554024,14.676334643112929,7.817511233761752,2.58942256598577,5.9500206045043615,2.8063062012738884,1.5092870594507037,14.113398727736252,21.697696579052867,19.166053995003555,25.467686656892838,32.62818911744411,25.471181025862798,19.772016925809325,20.537167557713943,11.80840694298265,4.046876731147021,11.651059284838029,16.154512373651144,10.754997058876555,12.910100862506333,15.612037633752449,5.274106882576734,-1.474745023839022,1.022356129754085,-4.556950771208248,-10.55640913311159,-2.8473671149149578,1.6987589647054826,-2.661653025284949,2.3360782835213363,10.096539608823232,6.296168453372086,5.506753141495697,11.865059454274947,8.763500905108039,4.193831865691687,11.109728912874921,13.320679661230818,7.136979473682229,10.70127539162658,16.016825050255804,8.481299434055321,3.1914471286552377,5.438705154098944,0.8934096170032215,-1.1623575269599091,10.580535271933588,17.14123926369565,12.924825680259136,15.76894111631251,18.60246997662744,7.810599637057939,0.1706067878180264,2.7547385387134393,0.7787482717884511,1.6417088840016212,14.83746718162107,20.803725297438945,16.094227272742245,22.296420648378398,35.90350998094138,45.74625930173386,68.24396758519036,106.25872562177997,139.27709719204665,170.80161171595546,208.12195510308717,229.34563194848133,227.91581337495373,222.76902329965233,210.7606557355055,183.96629732627335,161.9277972699226,149.04829570213536,124.33672990244125,91.00155090551206,63.10007152096998,31.422250090069745,-3.078239117143445,-24.031890653703226,-44.454960107292244,-81.72055916901004,-115.88859141151374,-134.20876074819077,-150.48735493943406,-160.56576159853918,-158.2808390943964,-164.70010445196596,-182.66137539460374,-188.9788931264465,-188.20557939077474,-195.81979579939866,-198.1910637189847,-191.81967970349103,-194.91133196609337,-199.1278222304179,-189.33141422412032,-181.34043615790594,-181.43500650236035,-173.82559749330233,-165.01335321318678,-166.69512352134123,-162.18948834337294,-146.59237533797963,-138.4189842659407,-131.82818080224774,-113.61380690206234,-100.5319317733264,-98.81330000306244,-91.4027801131761,-84.0363133213071,-87.37742504175498,-83.6322499924832,-68.27344937762822,-59.53668145934162,-51.109879991997836,-32.01244954869328,-21.941357229918438,-27.450966113149526,-27.874453857909483,-23.574489962714765,-23.899099163631142,-15.532641548229433,0.07179113758285993,2.0431665165798525,-0.2299203349740231,11.353989952298626,22.5519493097662,25.04334945878157,32.388025053063274,39.250619880438265,36.83459492587524,42.145037429335424,56.26492234878992,57.16896348763123,52.0458901538373,58.65402438509365,63.879330768220974,63.000483265899064,71.4553715164732,77.94844586174918,68.40989029263515,63.01674083769866,67.35874225961092,61.07856958271899,52.3268561376467,58.81483040334305,66.18409984737902,68.02386205961326,78.62386657236166,86.22263106812628,74.97940667465593,64.35450541103899,64.67311263611046,61.3515373475086,61.36979786004855,74.93075554864308,82.05540140560547,76.0615127544744,73.92590187484865,69.6251099134621,53.36627908585548,44.439497482765034,47.4480332983001,43.193129547168965,38.90274012635767,48.4679099172423,55.24932719457854,54.13368783706145,61.670937165400396,68.4139963388458,60.67626253878715,56.79733200818309,63.03457047523557,62.41241333756936,61.77561733754812,71.46711871729381,73.12903066420655,63.821153152671684,63.201080202543714,64.84188988996841,56.191262782826044,51.99710167200748,54.05235919747946,45.31303999312012,35.94806278215446,40.29791446150625,41.61003391530305,34.719608878195324,36.51466816978543,38.39976563184317,26.456837006387836,17.589732549940805,16.813994575555775,8.175093538600496,3.055894799271134,15.819316773431272,26.402119714991834,27.04668438721314,33.35514264643397,35.068163494619164,19.82797310620711,8.956821565209117,9.41325379788671,3.393617398493875,-1.4251798034185428,7.1987127533886515,10.903166042902368,4.833863032564586,6.78397057255785,8.018216076179048,-5.519982736755207,-15.634989052096145,-13.964465088297885,-14.254210906924754,-8.141278018163367,12.336216876249775,22.642471924522397,14.93041435131492,8.621655415847243,0.7324304113041622,-14.528417661704745,-16.754643649425542,-6.03452988631916,-6.503004047846357,-13.520693151165926,-13.577476131330577,-19.15291833825299,-29.329105743999147,-25.245631026608386,-18.148430657806525,-25.023381066386044,-30.159244478629265,-27.227684317977925,-31.641608645845082,-36.3219342098819,-29.96633039050277,-28.272918735540067,-33.747477981188425,-28.51725822755904,-20.63483109941953,-24.87882916696831,-27.780083793912752,-25.461028013537295,-31.97300841354378,-36.955468238689114,-29.472512629770925,-28.822865707909873,-37.87506146683804,-36.265510909338104,-29.948512195825433,-30.46854451141454,-24.2930779488917,-15.066845625950133,-22.574947519564333,-32.48784027966151,-25.794646238061414,-18.669740674195317,-19.137897184899263,-14.421141755949753,-13.156744817166649,-23.976226846141117,-25.96759870257169,-16.076246587233435,-16.601815491366025,-21.652566828511123,-16.070205133999735,-13.607032661535278,-17.97644745038197,-14.576250234727576,-14.024316465158307,-27.818071740876185,-35.35688657949244,-29.78001632253558,-29.404409438215357,-29.596628250223276,-19.796410802160132,-17.50919605834035,-26.919193485945545,-28.861235203310066,-28.449030593328565,-36.58780963725374,-36.14097722231247,-24.385047727052218,-22.28060663323135,-24.696595030356733,-18.318225502993442,-18.29261984064404,-27.75573532144274,-27.514007287890163,-24.486764368371897,-32.34378975294641,-34.447764633491985,-26.295004999600838,-26.62592885198525,-28.18709005061494,-17.753528128959093,-13.447622728079894,-20.799989065149354,-20.455478552047353,-17.076038002017114,-21.59520103492893,-17.94944452941742,-5.176519458343453,-3.52019512038102,-5.188855591770815,3.3144351582178007,4.319694761357418,-7.933495876773947,-15.029806324471165,-20.77260712022741,-32.57872275128197,-30.058803572216085,-11.636770521999384,-2.3077227496465995,1.1968096465635771,12.125440207218064,15.366142904327617,8.027502535303636,8.078428665074487,6.425429815658818,-9.477044773832352,-18.482481641959208,-12.549987477185471,-9.8044646056623,-5.643674367220788,7.93025522954499,9.739445187220877,-3.4880085139751555,-8.389191829942762,-8.31912722662704,-15.662995376919072,-15.779502901545747,-7.676623930912253,-10.39260108625178,-13.991923312380257,-3.682710889340611,2.555098773700751,-1.3027672854815462,2.0415763714709843,5.551076258684624,-2.3062962686381536,-4.100200577723866,4.109927991241568,5.318297491521873,7.586249613747606,20.32516156092229,21.750113486349683,7.130990719954838,-0.3747573399151303,-1.6364978009285918,-6.497634973431331,-1.544824420712907,9.679853138373803,4.711085533950991,-5.931714139221184,-3.33296410628037,-0.659387477077931,-2.454393622138504,5.830870009881799,13.481722684318779,7.4091234879204656.134490912657662,15.494168022380286,18.168995172794187,19.94817306117922,30.46991490491509,31.725395953040824,21.145510043896284,18.757964581393917,17.992256326469064,6.738952233541332,2.435215126966672,8.602429053024581,6.78680224851065,4.41992134402569,12.37904644567398,12.15852774453225,1.5384035872323754,1.3740822303931934,4.397737976237965,-3.5294541317517627,-6.3530844069720604,1.023165115870552,3.444524130514484,9.552829394063952,27.72121787830182,34.090496050268506,21.61428482742756,12.233740865857351,6.711793071670291,-1.7514989198387019,1.1343395508860503,11.304333539534449,6.898367275069868,-1.050372070872788,5.464641952882518,12.064074327128555,12.783364859353885,19.773179029592967,21.423113660817126,7.963905401066117,2.0162392240806852,9.528533994456335,11.065276336480041,11.765179342192633,21.185076268464577,21.18284046257213,10.145015483737865,8.45752388385564,8.850001978786521,-0.5863424974664566,-2.3904541066104574,5.408936687441557,3.6261634803558254,1.0483266294786178,10.278757809899467,14.234734896686877,10.041983679243032,14.600043832847055,18.120020754615982,8.796359950062763,6.053307222618981,14.030138830149095,12.742527297602068,8.554584574148516,14.296928348980662,15.15212634589373,9.725989965427651,14.297964467984048,16.72875163589252,3.003261589359198,-7.119866577641084,-4.956338694542108,-5.814842275251086,-4.311161692010485,8.145687512466662,13.029861922582947,6.956373147152652,8.365074068547038,9.870748202316541,-0.17007416588857005,-4.145746897161842,1.742201037448167,-0.5954853720129587,-3.9555969986152872,4.34707095870842,9.039651336849639,5.844367342959235,8.609723785916614,7.607445343982877,-6.900820351376846,-14.651555426521135,-10.696701471937903,-14.083096820906182,-19.86343965739634,-15.589622349609137,-13.015945198373567,-12.299424254995364,0.40500018163903384,9.93941111916725,0.90080031604412,-5.949886027172444,-1.2843381709970134,-0.5536557426962119,3.2173342315582447,18.504002781395943,24.188053620847462,16.811419933452953,16.044793222710243,14.138578532633435,0.1423617029053963,-5.100988346682159,3.754444858538274,5.688213146208064,4.440405885192506,11.879694318049427,14.380550473251985,12.349122836128352,24.389211469897567,39.88460848282601,43.108269245292206,49.547199804960194,66.10375572299422,81.20276686203067,103.69621125554164,141.4973546186633,174.4181204879613,194.9051210496504,213.85624962491244,218.99016336340492,199.86663059986836,179.3452766760227,167.11065427555417,149.51084606319267,133.00381838936025,122.2575053268243,96.04469988754036,56.760324629671004,30.820363232006024,12.462711432087502,-14.081127304278024,-37.489367966189725,-57.62072802320816,-87.9453892478966,-113.35040081324857,-119.96966653854004,-127.67004871011848,-143.59518725833038,-152.37255794222438,-161.25402220117414,-180.19554270568963,-192.13962043335064,-194.95439365854082,-205.03704247015725,-211.36115640072254,-201.67182652139317,-195.79285639090344,-199.04618469749056,-193.61293086718138,-186.7636760724156,-189.270772426539,-183.4266288154829,-168.49445251734605,-165.34669504953598,-164.16556605149626,-148.61567653943172,-135.07376985280501,-128.76617384221458,-113.91843793080841,-101.77570778023996,-105.85958158447318,-105.47467746762878,-93.33657097794303,-86.70568862681118,-78.52941883308544,-59.49114640775949,-50.28304486776606,-54.03974106218428,-50.38050664509837,-45.86211952003876,-49.98842427770243,-43.32104759894139,-24.536649541720607,-15.601272498684079,-11.495045951461726,-0.7242450054202569,3.2701615090692897,3.7062976533280168,21.559692773100014,43.605691146565945,48.29789947310989,48.624882615238974,52.110386388700356,48.41289621192214,50.19821100909947,67.72438943472764,78.30944711905977,75.30469314386644,76.37750118949542,74.85561364035806,61.60533279739063,55.87911013799998,60.45335553274903,57.821777335736684,57.12877231506052,67.94371808685555,70.95488635021823,65.49128452923958,70.8974817960968,76.22958415871821,67.1400988566702,61.04505312784056,62.3701339348418,56.10356080054284,54.24931328367613,68.78998578232792,78.23531547236092,75.92418393273542,77.68445547996008,74.68912563598221,58.11821630906205,48.653866040981256,50.0693513674658,45.354491534083124,42.93899177422399,53.04807288860762,58.310928350047796,56.51871444620946,63.818443971911414,69.46021458013578,61.543817350766204,57.851527857327824,60.76999652959756,53.42023673041818,46.7965097257819,54.24934066103635,58.250579001245356,54.811363649670085,59.34492732942222,60.09518479524845,45.778294212156794,38.68559753506684,44.21469085280131,43.50187697941912,43.057855516274195,50.88435781691889,47.54821331440415,33.73053023006316,31.384708969906423,32.903443215346705,25.941367723962365,25.565911383547725,30.83109962137365,23.204561686935097,14.54599030174468,19.616883370354145,21.918170529710583,18.435172455309907,24.229240883254363,26.65170942523791,14.035549877626742,6.729649915133989,8.4268177902276,2.2604821781444793,-1.795123769941641,6.742310312676917,9.36084827879903,4.685959197954244,10.301575939296919,14.947806644039083,6.2502891387846935,2.859716149249213,7.163194637187704,0.6760689460238902,-6.373314396377079,0.7766594272683283,6.297663596027472,6.5854693193239395,16.838452836735364,23.645821868963775,10.882184200042781,-2.7071505940850025,-8.317722331616029,-18.63517826210194,-23.309219500046044,-10.884245716026449,-0.7177537845955344,0.058235175726815136,4.580818282824843,2.8174480181739767,-13.760418140049726,-22.60635806849027,-18.633431775751223,-20.11661464711897,-20.677314200826515,-12.660395857890103,-13.91569396927433,-22.144220252923965,-16.98178747165818,-9.048928030050252,-12.077892076187549,-11.049744762822355,-6.304319332113147,-15.31796156102368,-26.313816034940388,-25.87490669276415,-29.95076346907107,-38.285180224911244,-32.10917830184678,-21.65956763665678,-20.32915171492301,-14.27357844097703,-6.400464180089243,-15.533879234136387,-28.054844327761696,-27.683911769602034,-28.679296563868036,-31.626063551204215,-22.43695053583441,-15.858385931486064,-24.1090975981905,-27.686319716607684,-23.290820264952554,-26.731041466458272,-28.14706813130505,-18.762665851969494,-17.59486746659067,-24.802584313125088,-20.747499327991598,-14.281677156092854,-17.80711700937205,-16.82837476010558,-12.47766995812309,-20.92214414002864,-27.82966502985552,-19.32958398619474,-14.619198249674874,-18.990009634879588,-17.47072322114265,-19.01390354239065,-31.46668657094694,-35.17273984801696,-29.611514877613622,-33.04486592407332,-34.942368390244866,-23.822827373385536,-18.012688256233726,-21.433179428681324,-18.81744178768669,-18.004735617817474,-27.03853798904452,-28.75760297432029,-22.93214406673492,-26.318976854872677,-28.017949637966936,-16.20592021039144,-9.098037504226705,-11.960592539427244,-11.33930772812927,-15.193314986775766,-28.97285420370032,-33.04019777987076,-27.856767993623023,-31.968633503759698,-34.09798893700822,-21.092776272907713,-11.292184839106412,-10.396205520749307,-4.905995286162589,-4.62881992100047,-17.02873117435765,-19.488518873988124,-7.8451317850395625,-2.2003622786898727,2.5700388225987156,15.161625923279,16.057488475140655,2.0514135311395245,-7.012928951164753,-14.701165991386771,-28.080146459016017,-30.08512109593412,-20.578380747865797,-17.79784090867135,-13.658077813611895,1.063135397122097,6.829732958793614,0.11091394141813238,-1.1946907051725169,-3.293430355968078,-13.88010921502177,-14.398769813814825,-4.195457338777917,-2.05981647534969,0.13802546606664867,11.86528110347696,14.424306504981708,6.719199130009968,8.95653073766952,13.217306525425402,6.18754544736360852.6659230311048576,4.313780434922514,-3.697878362443499,-8.681508928930239,0.9675691116598761,5.697037906032033,2.0430151590935157,6.810209692431641,10.538899650098967,1.7166583859572206,-2.7275647036837296,0.2578934858375148,-3.570215861896985,-2.843875393783387,11.260457070617,16.585883602886703,9.388715177812939,9.09221547375235,9.947895595341446,3.565734666693333,6.3891708588620615,14.988091408066452,8.445603283725749,-1.0838179717322776,1.8006852996359743,1.6820790462814244,-2.0114756081119025,6.410674260091227,12.936210962831968,5.162568665150055,2.6802235155229543,7.55665293708843,2.466128963883575,-1.3796725692607432,6.600308243538704,6.7862997423212015,-1.881662933394864,0.07355830241913619,4.000931498567243,-1.0547532476271813,1.0744569042132122,8.55594138291994,2.692545167545963,-3.614237991470216,4.149078258295274,9.206000029450252,8.1142664391726,14.32736481852611,16.42255305899299,5.7309802063854365,2.9146018053525165,11.139570083342177,12.952872501495463,15.95712717920981,27.946571317491028,29.33637928200543,19.291639883361746,17.726865293692317,17.45885484320598,8.8126653914098,8.299554481101083,13.674348971400162,5.577598790489845,-3.8700503387061365,-0.9586556878974495,-1.6938562106515174,-6.327402434928899,0.8438665422497356,6.539528477708466,-1.4729910486125806,-5.60231297028783,-4.907163580286408,-15.13737776204051,-22.497420928149218,-12.620506214184147,-2.05424476793519,5.334711219824402,20.981266364505565,28.68415569626598,15.051438287059309,1.6488167095134705,-2.179997155810827,-7.44036557642612,-3.6805855475631315,15.694430717025517,27.10946472964942,24.04899306561707,22.187936322771712,15.192196546227763,-1.3086001968824252,-4.929961260495434,5.200909977723702,7.6487089998275035,8.172178907405174,15.879424034095095,14.77962873539322,6.826808476325977,10.87506926038194,15.787321064818926,8.895283355603874,7.212499842597492,11.129367162859241,2.467250404864571,-6.822919395098739,-1.193613434516498,5.049069676467396,8.926430096740571,22.052618592097602,29.705646406210633,20.162894603292237,14.023104746669844,17.100447823933905,14.787473830157337,16.584126433892305,32.3764982233597,46.03691718144048,58.68380552965594,86.95514056751378,117.71999394285633,137.19858699851034,160.44323889701025,185.87477008629799,194.75884664721679,196.90388799192624,202.03408676909248,193.49199698020124,175.76118473273124,169.99765758084732,163.8977566018597,142.2352152433038,120.50177659208752,101.46415831228282,72.16449796122554,45.936849259502495,32.29647645301041,9.235607826237349,-25.98222453594577,-52.92462413541642,-77.22597280233708,-108.3176199915352,-130.94173106112441,-146.0378374504975,-170.1987771810933,-190.83341371965702,-194.7356956907926,-200.63736362596015,-212.90810635695232,-215.21965580074206,-216.43707149733078,-226.11392902718302,-226.1001597747333,-216.23626527819115,-215.31190893826562,-212.33500023173036,-194.2599414775745,-180.29857983235252,-176.89622274047784,-170.26280354197348,-167.1159922509852,-169.83666653681,-155.90177685915464,-127.85767361398764,-112.48671093657873,-108.72505445942707,-105.52710844518631,-108.94317075101924,-109.65856689517878,-92.30994499330102,-75.63050247785291,-75.5968222891291,-74.01103571648846,-65.5143350504915,-62.38385400330861,-53.63105599950548,-33.27062819737891,-22.70005252984594,-20.668069404621555,-8.268546095478005,1.570097898095061,-1.3333515818685657,4.615668150778302,19.73607094367306,24.476209129175576,28.72036894732665,41.49936394294387,45.11334102441037,41.95134516663363,49.355665757208754,53.95055627742019,44.34746180829356,40.67588130289798,47.67729219786905,50.828981191055554,57.26426205461786,70.38483174025276,69.96922154137832,59.17352084446124,59.80777769467904,63.76735094990941,59.68536348206596,61.443124266202915,66.8636551857783,61.24965692555779,59.46105750362254,71.84097489275145,77.40600037183792,74.13788478679241,78.59007732230427,79.2449992519947,66.72801640849217,61.513283031763365,65.75939091553298,63.14153569316829,64.23259116198851,77.70852106014382,83.83778606642244,81.27802062717672,86.37646232365819,87.32392972577908,73.66951692263204,66.58436608956393,72.34052882824179,76.22263760122374,83.22616992420852,94.04813219675171,86.10509042379518,63.921920873236175,55.84689071068137,58.83471660960363,59.96748593093419,67.68199938118767,74.23358770524074,62.32890460801958,49.07826429593932,49.36338268615838,46.22173163568915,39.83677757116073,46.04946677679778,51.37009137685948,43.236137163716684,37.127448849253675,33.87803998265353,21.43118354872159,14.464876536671534,23.31452426679764,28.477486469176462,27.216394969852818,34.677813049848865,39.51898539445855,30.31199788181345,24.30318720818045,24.929912842577245,19.57150134356787,20.117859236735576,34.026114830439695,38.77003989571378,30.50866967717229,26.51549423218086,19.81910761191925,3.78038808232818,-2.8660552091499243,-0.00020123336922939217,-4.548543470133687,-5.907682953343812,5.706303621057089,11.055691786471728,6.507931927026124,6.667314058594107,3.2483806865123412,-8.98032754149603,-9.564481381365749,0.7555321913850568,1.3580568734193679,-0.2021094450531582,6.4746026095132,6.194356381687939,0.437664512020163,6.061320346278064,11.571163978295372,5.4074442996083825,2.628848252537324,1.4656869215766433,-13.102323191463219,-25.925746969327065,-23.007166126119085,-19.32788769939132,-16.905596370049604,-6.580521828027816,-5.372142521071703,-22.487105860566082,-35.01385235404904,-37.638865612521805,-43.41166969318393,-41.52632748476395,-27.383653635423272,-23.604512406455623,-28.587907656748346,-22.243359460054453,-16.563561047402416,-23.496468441660824,-25.788161297239146,-24.40246800988199,-35.012770332148605,-42.45804255709619,-34.73505462287649,-31.842974053736857,-36.8366351908258,-33.767406376849195,-32.29884965037297,-41.08070505085877,-41.98880281248822,-35.346110100080466,-38.64045352317776,-41.17113489448568,-31.8555447302014,-27.452280161750338,-29.06573580399587,-21.145611413545687,-14.53863451596234,-19.30690655315381,-18.10130369118199,-11.739154482698599,-17.697401167161352,-23.257607577978966,-15.491198464686969,-12.014003302767016,-15.441346569091055,-10.905513935826148,-9.919802112299948,-23.320684351781114,-32.96308624704848,-35.71241440058673,-44.93369232339188,-48.01941318455208,-35.864319506407284,-29.72460661515592,-32.92244126099763,-28.764214934095488,-25.188674663207127,-29.047307215781334,-23.746473587749332,-14.683175212636112,-21.32255328158449,-30.045545666122024,-27.43619649583051,-28.682438650548953,-33.54975063826268,-28.99269769618295,-27.637437068048364,-36.63107955056949,-36.915762199697724,-29.658049317354017,-32.673564517955604,-35.31237860906546,-25.69746325731328,-18.675022377032164,-15.19122461081858,-3.9802535579305176,-0.14650624271139345,-11.473790527318869,-14.410615758820413,-6.423713760706393,-6.99600540875139,-8.697587719619792,-2.05345028202776,-2.9639922106814898,-9.954418422821094,-6.775025281657157,-6.085867011497797,-18.20911559074871,-23.198750984328207,-18.630756266780303,-21.177864544060682,-21.380777080909922,-10.191728118842853,-4.952155590577671,-6.099049409603582,0.13058294646419943,1.444127767114892,-8.853318317692034,-9.621246464213412,-0.5613274497803276,0.02320840252131129,0.1920349572130307,6.264537224490011,-0.21573838930948064,-15.486835225019835,-18.9311692321524,-19.79117215690649,-26.260799925235236,-20.597131692443647,-7.3937723399218696,-7.926811872108795,-11.661779595116146,-7.07371678930263,-8.553957271280002,-11.523611599152035,1.427086864273332,15.443059368681748,16.96190467249210721.25090667045788,26.12198245015994,16.29668687172502,8.0217983145149,15.400741908446006,21.654109946597533,24.004447687591988,32.65025030141445,31.55303036773035,12.542353086658784,0.25135738340225644,0.9131630525464074,-0.3724967487410602,3.649892450631583,16.256884618860745,16.4436644539633,6.404220645474416,6.509300068866413,8.854129954437939,5.44194404441025,12.457494350684108,25.230268088425884,24.274645090232887,21.441518608690824,27.178138896013717,24.681722736216436,17.964014884756963,24.394385202009754,28.21834783581958,17.34331331061127,11.543449866511509,12.892576012745868,6.367399540614193,2.941801011090159,9.05878254480257,4.3526176399483445,-7.9967188839358005,-5.1191357266713755,4.661636165628106,7.452427146164302,13.693848249061107,19.7469144163052,11.04416161723289,2.8296439385603414,8.61405909031581,12.30974327273518,12.537319552678913,21.979556648762944,26.369617182157818,15.347182621084475,6.827871864081202,1.614324842766262,-12.866769374812565,-20.95510917547817,-11.341876142788418,-2.113812899501363,4.875829965436688,20.43312695960074,26.51603964588754,12.491430179599844,3.3269766862410775,6.1733482395749935,6.258502984529333,12.059533947306829,26.205689322613825,25.18106201306349,12.947951001438005,12.940819184575808,15.114930645124996,8.209192739391751,8.038067098069982,11.708461368486814,4.136286921581382,0.036214019620631865,7.700423171646234,6.823037540897568,-0.9952503612747239,2.7106808917422676,7.36636305815124,3.306971621541062,5.978976227502094,10.575774891957996,-0.9272947685776689,-12.115547891492671,-5.960291052633864,1.4514117928332024,6.196926813248614,19.585634896661123,26.359128558174394,17.02719476725563,14.179877659100903,19.316580883507427,12.4917264086891,2.595631035512101,1.113458513082331,-4.994426899590053,-12.11731546842357,-5.437243125418464,0.7519456710412329,-4.508881022744902,-5.597452554925559,-4.169354756000304,-13.220689771050335,-16.88267432903837,-3.9045164355021704,7.359687605935929,13.592910422021546,24.908359596233684,27.23540848391805,14.935473518104883,10.84540190607926,16.089184231806513,15.199920174126971,21.247785389478025,44.05138687123684,66.56164255743693,90.35213288787924,129.96901402839944,169.9667804215286,194.6617248490368,214.164312204256,224.79462500497277,214.4087920304467,201.18749554648616,197.66187801442464,184.70868247199542,161.37834593884958,144.20389758382237,122.02225305565099,85.92103568605907,54.86854487363772,29.47638673335737,-4.15245230910285,-32.66363441745259,-48.675497454829994,-72.06793752008,-100.37639179011288,-112.73906537283281,-118.14032274150622,-131.61680150765002,-145.5029528860205,-163.32655133310791,-194.20081105408082,-217.89320121681527,-221.32860887080847,-221.9125549612745,-220.9691022237254,-207.6559269314069,-198.06228506000974,-202.2898815889841,-202.26123885343594,-195.70567924238728,-192.49873591734928,-179.84226509304216,-155.7703093165353,-145.51452741984454,-148.7581389668677,-144.44732817698127,-139.1975582921942,-139.04412038003878,-127.21765676768787,-110.88911778668113,-109.71541601308284,-108.8580031076117,-96.92737243343774,-90.79854742787322,-87.0799172316481,-72.46682835493101,-65.36148536648005,-73.42639749340366,-71.44495009539766,-57.77622426669989,-50.44040609712405,-39.94125419692671,-21.090287178227634,-14.807294741912678,-16.549983900083614,-5.186968096201871,5.993850619570736,5.104489520298614,10.807870772382206,22.620073489642596,23.89599825884449,26.216213901557914,38.01686179567126,41.96463113955251,40.549140754035,49.997871839758815,58.215255650067625,55.58991971869759,57.46444183248849,61.23533917784731,53.986495775646766,51.95037075955549,64.99708583720505,74.1566442326558,77.75637538102112,86.35012584038955,86.11216307194611,73.79377299919838,72.2405127314278,78.13208436449133,72.18802109770544,67.44077616445034,75.08633427849631,78.2122169107032,77.6152330977846,85.86856016701599,86.43643046603107,70.9070008096767,62.866987238708624,64.67516062550864,59.22463064657545,57.643074085596766,68.89705872971783,73.25692098208442,70.30278912935279,76.65070386577595,81.27741771522797,75.87800572085123,78.51628877871383,86.20807929961119,80.80121140353887,75.10884421158829,79.9224448122839,78.55666892773097,74.01231654721502,82.33432784290909,88.60599913970373,81.46113291760216,77.18560670400957,73.16032494982264,55.726904174462135,43.29068260179974,48.765855361672735,52.538699434436055,52.09718513052475,60.44626782400246,62.98490197054406,50.71786491570221,44.23777429952562,43.94288735247197,34.90837863866587,30.47694491639814,37.63198796189243,35.73367257390325,25.83967944754699,23.55054755422774,17.433165566204476,1.8784589906496212,-4.303309483224979,-3.981245914350402,-12.146480984404896,-14.83547465626484,-3.8979602516566763,1.581781161140945,2.0327624351728844,10.742324267237745,13.276418380092732,2.617201676431558,0.2829551212886332,5.899892179666546,2.7514899608469365,2.234069445557026,11.223852448423925,9.981835521325939,0.5639071390659876,-0.00019422955494574623,-3.4003799652254805,-16.901074164734144,-21.59585047195343,-19.56248668239221,-27.273264761476327,-33.012138826043646,-27.780197541812004,-26.5875804538828,-26.310273335882844,-14.717428658108059,-8.187880413993701,-16.11615690536144,-20.1973956284669,-20.369658699309454,-28.16204640401429,-28.541384706880923,-16.243400870198062,-13.237569450816471,-16.14585423422048,-7.250942122579072,-1.346140110671745,-8.629919332600096,-12.223678800589173,-16.264767658707598,-33.77864444270915,-43.836361486902476,-33.851724137527356,-25.924803584039566,-24.622583662807152,-17.92199645929422,-17.772647188854535,-28.599709872996492,-30.265112970876082,-26.279206544337693,-32.524092458110935,-34.423020499264894,-23.177595866044975,-17.247572907692042,-17.066925201767308,-12.23277425630923,-16.06623223583583,-30.813566093117434,-34.894282020493854,-32.026041517797765,-39.15075539780071,-43.09298646354394,-35.18764130835574,-32.98696897768966,-34.4753575218582,-26.85265238729898,-25.735041087072837,-36.982965824235094,-37.838126595045395,-28.84789257735867,-26.923165698551973,-22.669962276950624,-12.577719523765783,-16.159265647642396,-26.857306752323105,-23.59335084953515,-17.037606724625807,-16.25811153320668,-8.194502388589541,-2.0863924411717467,-15.184826460880245,-29.797574700466235,-31.777139279492488,-34.78972836462979,-35.26814209937999,-21.430659760029414,-11.526879734651555,-14.964148975738924,-12.822104871485633,-7.5185120666521685,-14.218751977029227,-19.069335751490527,-12.811204311643774,-11.640115653678835,-13.049144325056256,-4.187098080476575,-0.780241577013177,-11.519564990756392,-16.999287024369654,-16.968921189622225,-24.11831090357291,-24.608925987221404,-12.008405542499265,-6.69820669370372,-8.969120762138926,-5.976832890508151,-9.956533488636751,-23.677936153758107,-24.253535032793682,-13.71072418908155,-10.068380781803523,-3.658139223035176,9.954676402747102,10.765036772931946,2.10391798741663,1.8275711218167312,0.07171400910016301,-7.924473479861033,-3.6018691022815092,7.099381125241797,3.6736667268624004,-3.0405697850687785,-2.19076060069872,-7.041163784715083,-12.88880611650915,-5.687790546247087,-0.5730960367111066,-5.143508092298048,-0.45294877898755637,9.455777333375117,6.08195281381948,0.3784425301638392,1.4948288871899058,-3.7822239608792456,-9.647764201174535,-3.158009499740091,-0.4907213581596066,-8.902956253293258,-9.36838072215499,-4.448669319075429,-9.688582105126475,-13.07810963188293,-6.471202092661683,-4.221721679794714,-2.2146366806562376,9.408293480181584,12.169411718099692,0.6714973133527646-1.3795989353831262,6.228526063952957,6.950862547006178,8.462528909167606,13.694701483682248,7.106844464679757,-1.8835855794478795,4.157149767979847,7.8819504850055075,-2.8144626898479563,-9.271287377948159,-9.500841910800187,-14.382391767958207,-10.485008287668627,4.969875328823895,8.993202579038691,4.5605959952260875,9.596684100346721,12.609190702152835,6.603054722496585,7.9286447283840555,11.461736346008728,3.2586808153558753,-0.20525872319280497,9.681309944886982,13.643878248619243,11.684649878431204,15.563943800119215,11.817591314828437,-3.113058935470047,-7.114522568939593,-1.9201006228995554,-4.5050562042521785,-4.522589777361722,4.047427652362947,3.1182715965517955,-3.702851973554803,0.8145576809973054,4.876544237586438,0.343765385938438,3.5059654044464557,8.474879463993881,-1.5625463663074894,-10.279925562023452,-5.540592170710273,-2.9487688594815173,-0.49193147782953295,11.920360671574835,15.782300856701925,4.15320132101222,-1.09900755191052,-1.2291673295792174,-10.297431859799609,-13.418561564607115,-3.976031374890777,-1.001265662064074,-0.7215338041936972,10.287503623406405,15.588126824192182,8.235828078087003,8.137841410306603,12.060209963086727,4.176755411904793,-1.213496515010102,5.160690200612885,6.643514355270657,6.441528869475764,17.232989604343373,22.23124575452177,13.333523301693187,9.678217402748142,10.360066733544704,3.2196384440141155,1.6011787577903196,11.018510920662303,13.639290542778731,12.803043289374525,21.749959209460236,25.66690533597247,18.23743974567929,18.02964300292261,21.190779980967775,14.1502392617923,11.686868139386828,19.237313315556843,18.80793376315536,17.28494963223683,30.05726899464231,38.62891795583137,31.355595997217044,25.618272955220156,20.404696074722807,5.267990283067482,-1.7185519354494923,6.919617530072086,9.039154228717837,4.601814244907178,8.73667236707382,9.363136811246832,0.12679410934930058,-0.5761976279907826,4.7113950002355445,1.806822383624842,2.993448172952786,12.935190007400204,12.186980168671674,3.212729739878992,2.7610681181818486,2.8491431458072745,-0.2950186159875945,8.538831647252552,18.227403816069774,6.759700158955373,-9.934741716194118,-13.980740881453958,-15.38524068253363,-10.768057499505176,8.403195294998294,18.927636107038783,9.3932567062135,2.937635233877522,1.986292443295021,-6.545478453953039,-7.833678160664828,4.45106603049092,9.138277697054608,7.884114248103412,14.184344365311313,14.596092635590843,7.987063711536983,16.933003828885216,34.17890629328995,41.010019100022205,53.38167000949963,81.04492741713777,107.07585007972531,134.21902850632006,169.4629574454095,188.80710030354152,184.22159099752992,179.5747368964883,173.53177166769314,151.0682365836898,128.8375368949161,115.67776248076296,93.76010495470827,68.97699181388309,53.979929986436716,29.501966126793192,-7.611587367441876,-31.67369752810435,-45.390330458664515,-64.23819329207943,-77.16342091184205,-85.56016780996192,-109.74116288392415,-137.38020197009283,-146.20889140077352,-149.18304771451062,-155.52246810621847,-153.67267354827453,-155.29782817022914,-174.1756748048578,-186.32632461203454,-177.8164787186683,-167.67031220785077,-158.5316178052936,-144.97592053352264,-144.8344962136278,-157.38005370103144,-154.77275653970457,-139.09985590208674,-129.8620635705313,-119.26511044772676,-104.60985136306329,-103.26184179424027,-107.25776930912289,-99.04291372870597,-91.48759547159719,-89.5327577875529,-74.51997484924937,-54.93697964899437,-53.691037458255906,-59.892496697525985,-60.57409901889806,-63.89296500727292,-59.65644344163046,-36.14690620430885,-18.083000842583182,-20.03177902017101,-22.68220154344151,-23.40096820327151,-30.089511281729163,-25.325984897784735,-5.120499003720708,6.9582917056920905,11.996496285561184,23.965243483687996,29.45711052460713,25.787257611759998,34.58429696250555,49.12826633258091,49.344455391837954,47.323758604279696,51.33640611700017,46.69335192457375,40.82621417111908,49.015911600970696,53.92170860304948,46.545421604171885,46.849217090428624,52.43796983230352,47.56897582128611,45.33185892315191,52.20205963628663,50.285299188797225,45.38525654580141,54.78058677482047,63.84764097800711,62.3743971979681,65.74467768083137,67.74644858202687,53.394158052889566,42.31395377048233,47.72799980362693,52.44848681883951,55.835365719892756,64.93119073835632,61.57428164576465,44.09827890061375,39.44503979773154,47.67176893195008,50.63832279009609,54.03770155888974,58.022278086577096,47.147522805842755,35.08628346643617,42.05684830219357,51.066575654538184,49.759999620395185,51.71087669654566,51.97218725847899,40.926702734641964,38.23792652903717,49.27980393525312,50.23029716359312,41.44166663169423,38.66152993339759,33.44077512527594,26.182731054330244,36.24478630370274,52.11611881136403,50.438648248776296,42.77305456419868,39.29073726533833,28.0646343843189,17.12646480828373,20.930131446991055,24.187709031444157,20.676710522494645,28.656497865310342,40.64003440160888,35.373308322989025,23.83716857395656,18.48497374409847,10.730351538432206,8.260488886996908,22.579102499501246,32.92860040610948,25.19084256109162,15.228873199648303,5.190574023099661,-10.92009012330532,-15.047623025873627,-2.0750609577010497,5.066299023130097,4.1802333175256905,7.105947180489592,3.714357142146834,-6.753059109926267,-5.66085677429642,-0.8077211631539067,-9.218920274407155,-16.088663379187224,-11.312630647576945,-9.105319140885214,-5.980217279543037,7.682667672251743,12.688696962464801,0.7474802346199327,-7.121975992840794,-9.766345773219236,-17.994609865664753,-17.377043769985548,-4.880540790922745,-2.7010764682577424,-7.687745292674909,-3.4405095115070194,-1.786968982703152,-7.747662144473313,-2.6518876212724716,8.394721257998109,7.547531924103227,5.687188589438646,8.921235078223342,2.090412581785211,-5.381733001216417,4.662888312308725,15.552309783031092,14.080067062356605,12.07158561775162,3.839761727446666,-18.531505185854257,-31.289683480510654,-25.004900812835633,-21.13749682480896,-20.77181522014273,-15.519108663116636,-21.47854437644794,-39.52591081142732,-45.88991605109226,-43.71773031151035,-48.11248952163046,-46.44979412069348,-35.29483698618326,-34.21617392671298,-37.77189204588359,-29.83608462256104,-24.57032046747774,-29.829318829765683,-29.18963073884494,-27.009801969863872,-34.98321853856062,-35.50991924062446,-22.66128560507644,-18.178138494488795,-21.292026862845788,-18.547540552547055,-21.08240268601673,-30.756391573132642,-28.113287627957718,-19.06947365152684,-20.66650177945055,-21.25968908390921,-16.038889579318717,-21.938664699781278,-30.685401915542123,-23.866182233304,-15.49469684192594,-16.05704504295992,-12.836490941830283,-12.53480638020678,-27.105219642489747,-36.385491210989436,-29.694364390954824,-26.051095416726394,-24.931790996346475,-14.160239067205856,-8.28784935600478,-14.116935735109829,-14.482132157642631,-12.412123868471564,-18.753617781445538,-17.599240589505637,-4.527493884802875,-0.33052654342961596,-3.209524363403621,0.12858538762052385,-1.8131259868941996,-11.644567759228543,-12.18215931948431,-10.830689017887318,-20.24328664282184,-21.730115443210103,-10.191958369910822,-8.32785164082526,-13.455982844459534,-10.683696810287909,-11.961420563295837,-19.417482674971783,-14.063490100159182,-4.249296043565943,-8.53830977162817,-12.719266244911607,-7.057149230552026,-6.847591559556618,-7.703219537997111,3.2040511958938227,9.49195442527853,4.263353616011132,6.6026189959578705,12.30041781155058,5.951598867700188,0.8515280389582258,3.45009934960033,-1.5099887080871968,-6.231039622916483,3.009185845692814,7.441558647994725,-1.5304173032415735-4.555163843797496,-4.6395012674696465,-13.780518778067037,-14.217728092554285,-0.3603819201238325,6.579984032163308,9.428223267718636,19.748729045833592,20.42894088330827,7.921334700534613,5.17638539410392,8.983159912257646,4.127218792620459,4.349052008355727,14.505076598858354,15.075526422743359,9.945790335827798,13.441328400274017,12.291995162644804,2.1196764373316768,2.380157523285435,9.606682029189061,8.316157591574033,9.364299200165691,16.71524450568465,12.566451084394537,2.7214644041478087,3.997017314870468,5.084794047385046,0.16302788069848217,4.357843518211908,11.11578885861097,6.51743468115729,5.6861293090950396,14.522954931685316,14.426694940880434,9.850847393909648,15.005483572890073,16.127337606075315,8.42025059160344,9.097776778240709,12.901545297528514,8.36113210130953,11.462871945430743,25.313284767712787,28.17442039912992,22.89860282197796,23.98165147283561,19.532699249550326,6.781465700916074,4.597503843013339,6.981280309020273,-1.0491830637845863,-4.601376911146476,1.9775180305273694,-0.44227179744735023,-6.535475773612678,-0.5165407251619323,2.5404715238066737,-5.6488037565679745,-8.477275437701948,-9.712380221080455,-20.48198067722023,-23.26841225551133,-12.125529332802778,-7.499680770115443,-6.265997332977077,4.829104538031676,9.89825727641303,2.439194514477268,1.2513459757169292,3.4133699476700983,-3.195994558090716,-4.293352630732724,3.1815910223194486,0.0026024880233421754,-6.679090355606754,-0.7263519678940065,2.7764587557095077,-2.7518141864826386,0.4191968509454109,7.0995574153595244,3.1217536374613277,1.5639661940987675,5.8034001414379155,-0.08679517908977408,-5.154640525583353,6.303768175693316,14.855034725784233,10.68194840390355,12.409822577206096,17.940927478022722,17.129002941558284,27.878442426211798,53.65775947769563,72.32235914932804,91.48022321269237,129.74728845765344,170.37762979669452,201.49614868658028,233.03995576835524,250.11851762795467,234.52320367417786,206.94701183464855,183.6254252092585,155.9217429723812,134.0011955787065,130.27739154196212,122.95967378879055,99.05697738357537,73.71726478789756,44.97513173913284,5.550323787485693,-24.472256485298253,-38.37962606597401,-56.373489647255454,-76.34019374908117,-85.97881578515081,-99.91055322444079,-122.76102699063476,-136.42358882678047,-146.72064389315275,-166.53534798131125,-179.23470141894796,-179.65701949728594,-186.83249039117712,-195.67130516311437,-193.28306422925806,-195.74245949491842,-206.76303309353995,-205.77343682649635,-200.08043442553964,-207.02460522773058,-210.79597630455834,-203.2250377716115,-200.5641817835271,-195.45368750124894,-174.6863819070611,-158.53500929762436,-155.89185061406167,-147.64551877336112,-138.18238875800367,-139.80928837550385,-134.10144707093156,-114.69866933500953,-102.43593410659396,-95.43791291568793,-81.80881901708065,-75.31701663064557,-77.24201474300943,-65.8734134195771,-47.028475530278634,-38.92798065128506,-30.326824434839445,-15.307742139430374,-9.13920198650441,-4.79340834019757,11.919376524686964,24.74659130433306,25.30922886950788,29.644754253233298,33.34058382031782,26.530714580188466,27.889010058584624,42.18697897350071,48.56513573744468,49.749600869838304,56.24083937371611,53.11780686829593,41.84505309847199,46.69225955807719,60.082489099311665,62.19329215119147,65.2836722519467,73.99072397556604,71.19151320542765,66.45742441583515,75.22881041131048,79.01432538141833,71.24060093903327,72.09242056609685,75.13713629211365,64.15857411122786,56.49334109233402,62.365751620226625,66.11464081084955,71.891905715945,88.22355892283042,94.00541253835283,84.35416269577665,83.64279745053234,89.3337599315455,84.99898587333007,83.26579002339588,89.74518256605579,88.2680380480806,85.38011859615293,93.0078035399268,94.36269023135984,86.36704287794296,90.18519861481417,99.32980105266276,94.72483072849867,86.1592227826807,80.05415887135642,67.55647285957205,62.59022737507985,76.61061575560771,84.25938479977887,72.30516292612405,58.39273806831528,44.4076865825304,27.7022672298111,28.91241010497032,48.19383607307167,57.455833091547305,55.50766357307782,54.26040814057866,42.585497614883224,25.577163421888123,28.396490772076046,42.308126478220345,46.39610426747458,49.006942363402196,50.47754986400457,36.18838439036516,22.398494130066766,29.511740747083188,40.43980228734493,43.61691471842628,49.99596021312027,49.42227830223361,29.874957368235705,12.628270386483596,8.071664016594465,0.9058289362260128,-2.563643811249525,8.974412800132793,15.941848721669576,9.963418387166344,8.836704573799413,9.627517167694311,2.0040834493777573,1.0333555981077531,8.248917160841419,3.533488073230527,-5.583474828410594,-3.069733468447223,-2.862291342398031,-9.082586871980928,-5.067301338623128,0.8641418230753601,-4.501959596900077,-5.261067084592211,1.6708418762979287,-2.339006918023102,-9.939648339970127,-6.9721962454674316,-8.630235961616716,-19.16011791988764,-19.95218414032977,-16.828130620135937,-23.63913162244061,-26.17850084531291,-21.074755514244483,-25.402378030609466,-29.36731450503785,-17.747301958373342,-8.644071138169245,-11.225446108526691,-11.225563353616383,-15.100808638086255,-30.367619132693143,-34.252681774429035,-21.241889854186176,-13.829437882232124,-11.093594592978206,-4.480504750850194,-9.907717470853173,-26.33794941244082,-30.323348580793223,-26.606302247598805,-29.644089339878036,-27.60886263255139,-19.49316304508561,-22.93158326515062,-29.614247492209785,-25.238056221630416,-24.089044922988133,-29.46849725273581,-24.819068746106844,-20.198141207883168,-30.866355967541715,-40.38538868292742,-42.653237399466875,-52.389315396973444,-58.771453285241805,-48.588301089928585,-42.04186365052976,-46.34595159566232,-43.82271087521919,-40.88117221639578,-48.25100829828746,-47.0982601341665,-34.33332900222098,-32.15103833335091,-36.20772694893201,-31.73399996014694,-30.10326181994409,-32.25814200992326,-22.161636181777844,-13.4832439385222,-24.51535897252178,-36.49510604106658,-37.56125808453514,-40.637043816761576,-38.913512140053626,-24.244499849583683,-18.87490978037866,-27.734227275650113,-28.482854030830808,-25.683931640399585,-33.10930624065354,-35.917515918761794,-31.8933590062921,-39.77350481149762,-49.72204750737601,-44.11959077851438,-35.82356864271298,-29.84591305739811,-13.296988947443813,0.4982282816810515,-6.385090426544425,-17.42735329326352,-21.171436325255748,-27.837284492400038,-28.08035293503616,-11.483674651551594,-0.011989405339866366,-3.382485982225611,-4.940879253112542,-9.508917714427046,-25.865181008347022,-33.33511731467843,-26.531828888544226,-24.284952023418768,