-11.972760843961472,-7.911529262162733,0.6820283319278562,10.174340932217767,25.541190472487266,38.52914145984232,39.47929827572366,37.33420699006723,36.24970993959993,26.989421277586622,12.103175881989902,-1.5569676666454813,-20.621386115937995,-44.54887092143501,-60.69890981311067,-70.7224894908881,-83.20090482971554,-92.87768979367203,-98.9254275839367,-110.87289304611542,-123.0536717816777,-125.13473691904252,-125.17620537307371,-127.71152223292398,-124.7865797517102,-121.33310689091789,-124.54847086529138,-122.15324899532513,-107.16438583459029,-88.63921759198134,-66.07763875776737,-40.460262223326275,-32.29338403570807,-47.55649434608041,-66.54467399140009,-80.21928112929766,-89.39314393583737,-86.55291680286409,-77.49388780090602,-80.43206854297516,-88.76925074532394,-84.70233486057938,-75.46490552843238,-70.59095994346218,-62.61109981134524,-55.62490066545203,-58.67738981922889,-57.88977638086241,-46.31522100836858,-40.75805769099393,-41.19240657840505,-33.77291525175162,-26.900261123078483,-26.736656629275416,-18.729149837263012,-7.480841019597799,-11.231251238657082,-19.785413461824287,-20.032239554682445,-21.649571128285242,-21.931845668177104,-10.239617751166897,-2.540064461591787,-8.795362609748965,-8.569903601095525,4.452450554528799,17.938500956540004,37.78304316986413,65.98196449938803,82.45405870543416,87.19091967575797,96.70831216146999,102.87805932258506,98.63939003880506,99.48402473042518,102.5613152103578,91.84399583058558,79.36237609051696,77.07817916796236,71.75992737331599,64.63666581424629,68.67620297330589,70.69528953290603,60.617366204748535,55.25750595262887,56.76996256516119,52.88015673999088,53.387816292707996,63.7638050825716,65.78388993103478,60.04756823954154,63.308422835488884,68.67966154031451,68.32793320754837,72.5657880302048,75.67270089734066,65.26118766008159,55.90772654084138,58.38640860703683,60.06222336755383,61.252416745507766,70.63934638800247,76.77135813882988,74.44211073095452,77.26168108774897,83.42662514151658,83.59824980501547,88.35741222549836,101.2710437752883,107.39823409812574,107.70308933188493,111.10453350415526,109.23766641469221,101.1993832460343,100.28530026750838,102.12399171042468,96.12132623130937,91.31355506007438,91.56846172669327,85.90915775392526,78.23812694756498,77.52688637445057,74.31073940744241,65.98264288070888,64.91540216101436,67.21044788088444,62.95055379816433,60.99814485258493,64.46529129128466,62.712343857808115,60.301840309536,64.9405052927781,64.92438575786119,55.91212705859125,49.61966083469851,44.30217992515642,34.30886122035481,30.768834629163045,35.29834407972385,33.82492206588438,28.89456939391686,30.238794677581566,30.178014034317428,26.39011368004552,29.75226460860591,34.47904176602753,29.257996901005463,24.0655838360979,24.76209311272401,20.781696503576217,16.464378325632417,22.622380929614025,27.879381097911313,24.12678213248955,21.748158002409944,17.670784101367538,3.677554046492702,-5.055510282674066,0.310929598062645,5.429422962035724,8.591433989405783,16.637682593730133,17.043790559890045,5.4246125829778915,-0.9410480129986845,-1.1841078676115864,-4.945576851220878,-2.7446622282706556,6.985370443711815,6.921824736304843,-0.4201322711055191,-1.0121484611606861,-1.907652917865378,-6.320558005649099,-1.742052818757086,4.245882709205781,-4.996587231630098,-20.46187035740482,-32.03276212389863,-44.161448444733,-46.78286613978541,-29.412977580632116,-12.0922893556598,-12.003705854381275,-19.093525333571165,-27.938760946984576,-38.40708597469041,-35.17859463134691,-16.920045253451505,-5.594348712142008,-3.5596735542244144,1.5017040451530694,2.565128889638929,-3.8852758987903435,-4.912504983108143,-4.35115246046978,-12.442069101153745,-17.323842338315753,-14.397794990916157,-18.550847130969284,-26.418929902541134,-24.772723624284865,-22.59588296048392,-25.732958005010556,-23.699878982147272,-22.458003141019844,-32.470745843756475,-39.72903322320225,-36.569795877732744,-35.66477850050687,-34.552822807705994,-24.067933943136957,-16.08185986526286,-16.196574257198318,-12.865471408298546,-10.837938711236745,-19.408721052399944,-24.625638046439484,-18.781785185664813,-14.158993425270609,-10.308918264138072,-1.1808738288865532,1.267076249030279,-5.71490985986245,-6.996073851935369,-4.645944884756691,-9.559287295889373,-13.938402101907089,-13.98232104409432,-19.1263622700424,-22.86969371754091,-15.265191044688544,-8.738175635965566,-10.39183616599275,-10.04874440062043,-10.056491968821119,-15.990321610482631,-15.428679647865897,-6.2613190220760195,-3.985013893329088,-6.561746833158863,-3.7508286026533977,-4.076278989443384,-10.495528146209464,-11.99413239831824,-13.02079974052482,-20.548632736060014,-21.946492947822854,-14.162225891535192,-11.94267251196167,-14.27273044879751,-12.254473555475613,-13.362236971520897,-18.305245559433512,-14.889244547656995,-8.743779007326044,-10.34192482789454,-10.1133699277018,-5.692032442048446,-9.50024753239082,-15.634408126696616,-12.041645600775443,-7.559607382006834,-6.644375465769253,-0.9076932038421492,2.116402994694482,-6.0697987674833,-11.186813249371944,-7.113935657332834,-6.445947188136458,-7.9852801800303705,-5.1240518243423185,-7.109829651376283,-13.155376551009539,-8.891260548260593,-0.30136774385159937,-0.29943123553617146,-0.5687902042401825,3.4406997647951574,2.363822888368711,1.8415405138657146,9.824549615169104,12.749225055205198,5.616778566835768,2.56408337198752,2.1383720919562714,-4.607118518135462,-7.355820608422061,-2.8119623724036495,-4.593997196535497,-8.222432495980676,-2.0759259303668878,2.932593461581883,0.6892472040651973,2.303511947425186,3.651165564108885,-3.949362160435799,-7.206727068093906,-0.4202769347258992,2.121446243759017,1.3971878799920514,6.588539365262318,8.119148788547129,2.635608490197869,2.4325404780092157,3.024869877280269,-5.278322709802742,-10.212494238468654,-5.651582604632646,-4.101043303223855,-3.9192493537307387,2.4420640496290975,3.071962100685665,-5.945504369892491,-9.975689481469358,-9.411656736149947,-11.150439430984648,-4.863313434929172,8.994052263583164,11.665811369636941,4.052175341171824,-0.2141337700893047,-4.162642495298598,-7.636115645187535,-0.7225404543038323,6.41259463243605,-0.18789597171395878,-9.01379544894782,-11.570279108549995,-15.42108004758625,-15.080380034409215,-3.581988069126871,5.336122860068843,5.891774025308086,8.806162080806034,10.301913207943233,2.994072630145461,-0.7717894650717464,3.929931399142746,5.877594953751652,8.651285102515484,18.81881292439316,22.966287980547154,17.0753135032104,14.66723417138203,13.807098692086226,7.424428401187106,5.838237238678959,9.8387372868271,5.769398237079154,-0.8817394594470676,0.9660053042705181,2.0339747818946936,-0.31480062910943185,5.228405762209191,12.02332956196689,8.502446796407085,4.540617514967258,4.6922312440408,-1.0611926527485673,-6.361568488429617,-1.882979218954707,-0.28849657380729277,-5.970265502560058,-5.380535275387208,-1.3124219076369936,-2.93793206399944,-1.4103438803602317,3.683912159020081,-0.6494146990960519,-7.706078751149279,-5.648915299151399,-3.597063810459561,-5.015796318304297,-0.04273532605155772,4.728038390360414,-0.3512594069523747,-3.4635717406218385,0.885728211675739,1.8907047470610006,3.5299913013587414,13.375726040734255,18.507430401252925,14.458455516807,14.195313407490447,14.598704735875874,7.669050605744683,5.313966521079818,10.93663317736336,11.105799035255732,8.634604226603003,11.403403183692616,8.988437716998972,0.9273204279963223,2.2500730269411564,8.402140298351398,7.976397482885799,9.09388649707492,13.023845087692628,8.126924338071456,1.4982828792913594,3.8071703860649815,4.194916439946438,-0.7053526606200928,1.159742625086411,4.845346384930813,1.2499365724277158,1.3053306498137878,6.9448355188479525,4.234016596171245,-2.687334226164287,-3.7783313786194492,-7.006115527729982,-12.073483335328143,-6.891774179931941,0.5987355466106408,-1.5424007136089348,-3.0947606501961493,1.0161027546594543,1.6603273504709835,4.079075982799461,13.878115241545348,16.397263120241547,8.434286327527444,4.979445793401877,5.289993537701419,2.7440938671872934,5.784509028419641,12.51867053886451,8.549489044017502,-0.05360294884957151,-0.6260240478337737,-0.7269475632623453,-3.5939820079231075,0.434635712225643,4.767199014711111,-0.5620195813903384,-4.621253500963533,-3.333782196917393,-7.4266362705720095,-10.64871653975542,-3.3322351629490443,2.0369260235244147,-0.5205118457888576,-0.9290104137808116,-3.420444502527381,-13.066410306105691,-14.631165591241627,-4.911453158925556,0.5015706182121212,2.2461070542524166,6.65669993688299,3.9926607099921143,-4.309970168351846,-3.118176940433224,1.9736784530895284,-0.26528175820121525,-0.829583905792899,1.8717354045216585,-3.5450643236625474,-9.65367701614443,-5.977351781350354,-3.1412039999242407,-4.167681161701137,0.7415415103568535,3.284641094726883,-5.373858306399944,-10.261018226974807,-5.420720830653983,-3.549872155451489,-2.3709990186686856,4.683601289914838,6.578924106906797,2.715885530064075,6.695663232597779,12.163487645018995,7.759194276593357,4.1725027797681715,5.982564083571157,2.140041240963331,-2.9583703483455546,-0.7633024102251131,-0.48193487900186815,-2.803689068605186,2.66208403331155,6.564663201591225,-1.6872302304799387,-8.797201053392044,-7.222884568705894,-5.000201108849861,0.5916861926995245,10.604431977606602,10.128292841571263,0.1515273147495293,-2.133587257239327,-0.24188062914783837,-4.363092012932092,-6.0494019375650945,-4.0453865703116065,-7.603086540331657,-7.6583807117781895,2.8103602314380476,7.266061240598064,1.043352031626008,-1.6303789366472943,-2.5095707368696893,-7.324455992745287,-4.690804940792839,4.236288687498871,3.3591356237219427,-2.215814658229111,-0.7301533246586149,-0.39824018548427054,-2.9366948049149646,1.8808393588848435,5.445067448840555,-2.668551422479729,-9.86565463378069,-10.642699519292783,-14.080965069680282,-13.58818642554424,-2.2745644213730727,5.549882178305139,5.078031445467882,7.595847389840251,8.955439783110378,2.128463751599714,-1.317734142109832,1.0977399771293468,-1.8032313199348664,-3.4903033107287627,4.887541864896114,10.440401648941346,7.932175369780776,7.585237538700813,4.914897729945162,-5.310123801040536,-9.29520704192388,-5.480527957106832,-8.25004522151212,-13.748194028905733,-13.611321786555898,-16.615512312514817,-20.68739231716362,-11.330170453110897,4.078701546297481,11.467578248421155,16.58004187398752,19.902249548382944,12.16091682542933,4.1677457869746455,7.965796144283346,11.316280540969455,8.717656349502626,9.92803145393216,9.62504792377777,1.8705404032123998,0.5091510111744617,7.18715306190191,6.550783451168124,1.9436319442145256,2.6596410683167555,-0.052617558974837,-5.836079498421856,-2.0139421604710317,3.9653383972263416,1.236948295189833,0.12728997896634286,2.927124923386117,-1.7824433002090898,-7.41457453359086,-4.405350628492621,-2.710232115509725,-3.837627518303078,2.4656465581149054,7.933518917154609,3.2696035355471262,0.3209660195177399,2.031529648075661,-2.0504531460855357,-4.276353492773235,5.937245920383825,19.18342856987804,33.76590245005585,59.49748265976495,85.82892317297676,102.30749671894807,124.49818418186874,156.4947354351688,181.34465846066684,196.432232959715,201.62844666408103,183.930967272617,150.76633637152983,125.69568669918229,106.62292546157997,82.11895327340729,60.26349364707294,42.496210645296074,18.559773359510743,-4.456821919297588,-19.521540850403266,-39.9820062399314,-67.44777660908764,-86.66069504330441,-99.4349356101022,-113.9450144733394,-122.73572232201657,-126.73479533993289,-137.61652121882773,-147.97687169774102,-147.71409074499923,-148.07287670030584,-153.92326520949555,-155.9809261634556,-159.10660089387375,-168.46133126321828,-170.2511612984652,-162.7981038799961,-160.2299074409406,-158.04903247487783,-147.9486096329355,-141.10971095246308,-139.1401386387215,-130.41698943452147,-121.65242670494985,-120.49341478941756,-113.84232177291968,-99.65645350128085,-91.20829002844636,-84.31635374868921,-72.26042470064269,-66.5772947309136,-67.67359715387607,-61.771783670507375,-53.077066640086784,-49.63331539162883,-42.311501806672325,-31.813694895535633,-30.589748864168296,-31.6284190738277,-24.462587170961676,-18.341906557316577,-14.929279037831634,-3.7873996660215425,7.386242817915025,8.718912006742894,10.967152171341962,16.952022216469743,17.140746866878523,19.892052411565487,33.43070180046005,43.11724869376261,43.574023535451886,45.98493327207361,46.708910635982136,40.0545676110751,37.97484412843436,41.862816828835825,40.044612444889985,39.20276428797827,47.694424606615364,52.50401607068702,49.604342129693215,50.361842765984605,50.92831180968939,46.369556183338304,49.21142829538045,58.93011803662767,60.3907094984861,58.52628169243627,63.25767771085059,65.235066423317,63.60331900477169,69.81180460826266,75.71549154820397,70.66328311113327,65.78978750371068,64.73308827020605,57.75349601979661,51.905744727879366,55.302063600419835,56.072082794848455,52.00282846013608,54.30781908645503,56.802085647253165,51.36514602332142,48.42670721950489,48.68902841280294,41.98101583205498,38.21688015460161,47.5528099966291,57.159527387188106,62.153102113740474,70.28434836881819,72.55479053569047,61.9949533082805,54.44301128121573,54.67960196765736,50.55103389928203,46.64566798982246,50.03027310764375,48.562091025218976,40.81496723502312,39.7115245152887,40.06214872473468,33.689226417996146,31.653092224731985,35.51283378612008,32.491391801346055,27.00453904794874,27.18544994835516,23.93649162504261,18.465972218665456,23.508210538055557,30.691970279763375,28.12816872646512,24.815372311050854,23.129308310185078,15.110834969848183,10.506963529243343,17.21792125412107,20.547233241713815,16.066070413016092,15.442238105855296,14.948282351764648,8.737176135125182,8.033398554988484,12.284671044250175,7.774583508021235,1.4240050612131931,4.587729730460391,8.045540462313733,8.909279557983657,15.181431332917889,17.69254624773567,8.67635532556347,2.7308066669938493,4.42935289445635,2.228685603297909,-0.1676068184412871,2.539781117033984,-1.4868282471625833,-11.386019733290695,-12.647454937402083,-10.650016050301746,-14.337865921993291,-13.866213301164446,-8.925325579295599,-11.100225027510358,-13.382825758981895,-7.740261712082287,-6.238230012771784,-10.467596644692035,-8.315286742156626,-5.76181264306765,-9.921875606464509,-8.874585848896839,-3.3028926782558203,-7.121335225697422,-13.419652898272993,-12.783439392568663,-15.268657951418092,-20.552490927588885,-17.60648291607896,-16.02781648378157,-25.272813420661798,-32.06740225259931,-32.24682097130546,-35.02221973210759,-33.30588609304188,-22.505437557816116,-18.783099823694954,-24.08712204793808,-24.01642427726137,-22.60746110762561,-26.44862609703572,-24.908818800321846,-19.94478413293268,-24.18323659103686,-28.096448254488706,-21.474109688854497,-16.516641600539707,-16.465342323961373,-12.436856713032268,-13.327842511468047,-26.364773839136152,-35.83334727742305,-35.30381683915442,-33.7164943048967,-26.25188101482045,-10.504142072220796,-3.7180453835150185,-9.20848432923134,-13.144861586391082,-17.039928604600938,-24.44138172786185,-23.663910185461017,-15.831185204628115,-14.662266575261214,-15.424507667013991,-11.128241170884056,-12.183962247375177,-17.842785110140287,-15.902706080367182,-14.283496360163433,-22.012588386477272,-27.189593060555076,-27.711074478414545,-33.55346420259636,-36.22510358777847,-28.262868550663537,-23.076213438801553,-22.766190283293145,-16.308388693258383,-11.038560559998249,-14.908825750754172,-15.851558285440333,-12.152812504506848,-15.530394190083241,-19.538594942939184,-15.737844195805526,-14.873808100250269,-17.205195119992727,-11.061722032539675,-5.4326228790776625,-10.736297517390879,-15.425820905877863,-16.457748311210622,-23.093357285901554,-27.37969957326787,-22.38203714041999,-21.27409230006664,-25.310687716117066,-22.04247853469932,-17.492530813386697,-18.949090217393724,-14.866724644586021,-5.107745855412,-2.421523105980185,-1.301781974911017,4.194740237305588,1.5676227453759264,-7.862518228799633,-9.490810340933574,-9.293315062641966,-14.115750163787752,-11.624766617795242,-3.314759683138006,-3.785193697384612,-6.60653153018894,-4.040739583843937,-8.144227423037291,-17.85890691868749,-17.94131736367459,-13.988996503801733,-14.5238990098551,-7.8907875834037275,4.987222725594763,7.106195536000844,3.249866991914719,5.609053504534342,7.209991385553546,7.821124815592718,16.560434676253312,22.33977190448944,14.606823696335919,7.062561675494068,5.717511067514777,1.5040172067272328,-0.6179641848321453,4.476500673715675,4.956957705532873,0.35612566077463903,1.280426793186334,-0.02173116619999471,-10.115198577840944,-15.0309633238698,-12.050155470518847,-11.535629697318395,-6.850743757004589,6.988107309136695,15.105576522679549,15.08442976436525,18.585077269376377,20.27577439360079,15.36307569560466,17.02478553451382,23.862093508990487,20.73108517018287,13.341412932684879,11.423023983756508,7.299981910348006,2.586161309086294,7.956243542169929,13.722101799167623,9.18716013989631,4.6031272113243675,1.8880294192783853,-7.595441552363656,-13.297257607306193,-6.3259672468622785,-0.4615587306104084,0.8002207900533882,6.922057859760167,10.243312040894496,5.737520795429542,8.426023665185689,18.51173245142061,21.245569798536497,21.138414405013915,24.226595527951936,19.461675773873612,10.275358763220693,12.051894685149982,17.106545243460204,13.874072406679717,10.729622351206935,8.691575323898823,0.03257016421609382,-4.677956379828083,1.6543198190512727,3.547459165849424,-2.6332068099156403,-4.317179086687294,-4.578783794484923,-8.814205443060322,-7.460636076725484,-2.74082463835723,-5.9132276898535725,-7.198331249470231,2.892920807184965,11.646360020537253,15.212920704269482,22.292482974198382,25.892050880705423,21.23375639930797,21.074671844197972,24.40559410298718,19.61586116303074,15.438044196665839,20.356653617943554,23.187894120151277,22.04493716181256,24.961651513459344,23.775048634551084,14.140819971580193,11.194575328528877,15.487164222318189,12.345880207891394,6.240586615733662,4.851211463510525,-0.5225055824300884,-6.282402775232909,-0.3303971404168977,5.818833883116185,0.963272893753,-2.7691166550592574,-2.3367605292706406,-6.830235057443079,-7.890953437417355,0.9512733804326863,5.806186460413177,5.366630234625119,11.341969013388255,15.849941751464396,10.937019787886982,9.510841380934014,13.611988472212408,12.016455273246486,11.0380302760716,16.982038026499502,17.433763395257174,12.257159081575267,13.766444823644019,14.553206218720756,5.97762830561957,-0.8797477762720233,-4.840131578320491,-15.202232015755005,-22.001307054310757,-16.651800661537713,-11.70872202262464,-9.629239302181631,-2.016082266339365,1.642176045246784,-5.091816142619435,-7.678859837222465,-4.414592109480489,-7.44633690104056,-10.898625192150961,-9.040632497918967,-13.218778381540737,-20.020781932101215,-15.136960995727183,-6.875608780565448,-5.435256960597044,-2.4922076516515217,-0.1411819204122533,-8.441418555737986,-16.450515339471103,-14.592875276097624,-13.912082436882894,-15.090301359153816,-8.087804824024776,-1.0663091520955503,-1.602521367251813,0.7511125341873441,5.2317572207747185,1.6462417202041992,-0.6491371126644283,6.027299894941828,8.793550734383992,5.885753132067347,7.915929781346717,9.162766103417516,5.3156395109974905,7.6547583251577365,12.596416145128897,6.7313585490117145,-1.1443121714066182,-0.48951358748329143,0.032563668123272216,-0.08384173994133781,6.897675279672517,10.393125507630806,2.3636346262972117,-4.229832049930912,-6.614785106997931,-13.624285715636832,-16.61265585766268,-9.233420790226162,-6.181991217760156,-9.914525037985909,-8.467788338974607,-6.665075783011524,-8.585022385211287,-2.0252829539608874,8.866864256417692,7.953169107385248,1.8470122317955233,0.48964751435016207,-3.4330613738028855,-6.652453947629701,1.6625885309900919,10.132410431201576,7.889496345069206,6.06266868666623,6.7953656501782245,0.6606386681022673,-4.242478048458217,-0.7313083810905674,-1.4698872006815018,-7.531557387262963,-6.778639614087194,-5.546417917259194,-11.220791107132925,-12.435130184253417,-8.84614877143125,-11.150430448835667,-11.53239024653484,-3.9335468218805207,-1.4536354311581594,-4.280763108841912,-0.5480586049564562,3.3447959825273403,1.4487841430962436,4.789468857128,11.046967121261707,8.247697015420298,5.756711129110253,11.7599460210158,13.47652336599043,10.159222413376577,13.3805844008874,15.190129406591776,8.207220787475906,4.6073110303707505,3.991569671237391,-4.514864796680349,-11.07466235898298,-7.557496366679157,-6.891706686816331,-10.6571575619996,-8.062052592631497,-5.769078644015031,-9.624367138460043,-7.632359107137514,-1.6370552934959617,-5.185076733117503,-10.10085035318009,-6.623497129138115,-5.048689504857032,-5.84072160168412,0.36378874762559965,3.635076993042542,-2.567406973050901,-2.7484499938800324,4.43849573426303,4.823870334918064,2.894471322813402,4.766950435420585,0.7510746297054705,-5.467767765840208,-2.8772593508144286,-3.3257785243098845,-15.532160311428356,-24.310772548687375,-24.438228914653344,-23.73471564960368,-16.132488849610176,-1.201407764674605,3.9603343823160606,0.17210633489616334,2.6157337605710564,6.646609690506932,5.2550861088332015,7.40659579016769,10.212382072614268,2.654600967431424,-4.165025827973566,0.1349727766243105,4.405626151998531,6.528503509266092,13.53102505883764,14.861366725339272,4.9012797620086435,-0.9453424496660408,-0.30658614565717834,-3.5902245625005333,-4.328246465203278,0.8637536841882834,-2.2736164236294165,-11.68083355151579,-12.607721892134904,-10.760249803613823,-12.806106430202147,-9.40434829035513,-4.640528530665173,-10.09596001530959,-14.408805590269367,-7.577800310746463,-1.2994389099695272,2.1474882091793592,10.208311858778634,13.49043456421752,7.241399391531607,5.9841194727659905,9.986974248447986,7.421125524948084,5.709851342582275,11.747519577526642,13.893899644159587,12.178300184933619,16.372411750531278,17.095293201681493,7.588159633519998,1.0469676247955457,-2.177431717113998,-12.993081198101553,-22.75435848167161,-23.770779867403046,-26.196783342785093,-27.73356763141152,-17.818510770000003,-6.537277264690328,-2.3449631380718476,4.575271071999771,11.693660729471766,8.059386241299912,3.483492622543774,5.897475377676531,4.869411035705015,3.0117086621384717,10.85465162834955,17.12132036816826,13.011874397406045,10.26514703727824,9.284598176640092,1.5118840004264675,-2.3844382817363505,3.759286931463924,4.9115012470673065,0.0006104836315796724,1.5066850210406857,3.206589440701557,-1.1272450220832093,-0.13036297095615912,4.256310022239621,-0.18442086396814705,-4.291208264626834,0.7819120853190444,3.2387047364744412,1.8540186350552874,5.94466140598489,6.4026123780956095,-2.441937393256464,-5.745948580849721,-1.978116924743663,-2.3173212436129815,-0.3557595422785409,8.28418947884025,9.725380346078804,3.8870557098420173,2.744355554239682,0.27011320940482975,-7.642002812752223,-7.172790205328501,0.8035829965591765,1.6907088243971333,-0.8921212836028282,-1.634516092807325,-9.677581521046093,-19.31394781826003,-15.25000512655484,-5.636600920871486,-1.9774541686150997,1.185307365865151,1.0145804376399092,-8.733168226828823,-13.116680158796665,-2.825130079632941,7.062091583612564,9.947407060106368,11.569323632726842,6.530472547455429,-3.278373851151796,-1.1847575471184486,8.787590943463385,9.46729466666132,5.544895543671416,4.001980610445645,-2.9051318572193603,-9.686749143633964,-4.962174062013374,0.10910297256326218,-2.435488777538782,-0.9226951635678289,2.446266561082844,-4.112114739149796,-10.038828393213398,-5.281066691606244,-0.7311480214540601,2.482208202916565,11.374087532670682,13.304408430053702,1.579744408275868,-6.447006713546272,-5.981725148514963,-6.727091314110902,-3.2334483304282293,6.469271889451442,7.6574097181966945,1.8262446344627894,2.6917373194826584,4.5498397601368,1.172922263137026,2.239681500470434,4.76218803254148,-2.1093071184145296,-8.28707571385379,-5.4770163996041745,-3.931048093088007,-2.2671478164128995,7.621745215118488,13.493708830633835,7.987597519813597,4.399136714567832,3.854194596430523,-1.682496153262536,-2.9647617801253867,3.510717938457278,3.5939651067152827,-0.4557024903482272,4.196243527280107,8.940985996045775,5.74578622904248,5.238552609229865,6.123790766675787,-0.8143758737393729,-4.260842431508419,2.7219210599688166,5.924098741068942,4.361658731472837,8.680417765968443,10.749499219460187,4.597143037876382,3.2866224877006855,6.398585184912799,2.2971769264734228,-1.1376568436298895,2.852099506820296,2.846241275370802,-0.5839456675514936,2.163238786834473,1.8421039440680416,-7.329609938749299,-10.727215412179607,-5.857547078476867,-3.401695165724811,0.7760289069390354,8.401095366106517,6.968102113519899,0.8179922797489543,3.724990505766952,7.050463349101324,2.8656752321009025,2.2697391505249302,4.461944928068911,-0.1275966943666318,-2.246743619945941,2.5918006484241936,0.7219390814505326,-5.351872190892616,-3.2097377451995586,-1.0511221069634424,-4.457303611581219,-1.8801356131204234,3.440365835689876,-0.9629907776331659,-6.9908000692839,-7.179838088505146,-10.764555753586839,-14.834146344474373,-9.451078603204673,-5.497314293352512,-10.003927811117826,-8.924496459213737,-2.047744111704661,-2.364146105250257,-3.984519200388742,-0.8604305398156566,-3.25275959534032,-7.349187096632096,-1.0238469137798205,4.663719838405273,0.11727993218604293,-2.216342366717564,-0.26845592715312483,-2.896646728283852,-2.24941529969796,5.814965522236104,7.253977257137398,2.0646044820077583,2.0977991655714963,1.2782193143009497,-5.414932606897796,-5.883420337696352,-1.5831014957122398,-5.026193844898691,-9.09506658452121,-6.814618211480475,-8.53344808259023,-11.89681889571764,-6.148979062423371,-1.5127647317155688,-5.632627403084578,-6.105834740183255,-2.5924332145987874,-4.8756014658727915,-4.668352389802676,2.745017042920482,3.6724550156226945,-0.6488601568795522,2.283115113795468,4.80097801384585,0.41159049452040053,0.7777405748058358,4.333703800525329,0.04905713709104598,-1.951552276516867,6.4040215772910365,11.543125104002234,11.491046939822882,15.393853633521319,13.648987208431242,1.3860040764888657,-4.844012163444745,-3.2843303982085033,-5.529802995993565,-5.357938526823797,1.0057827784871005,0.6356588975873823,-3.5428530430618768,1.5618879818811715,7.0108580924268225,4.2965200713500575,3.8435500047184648,4.6703028146491965,-1.8892077419356226,-4.910677371744214,1.2569796063761407,1.613451324575741,-4.227602917216934,-3.9599037284037952,-3.0563246035307765,-5.314766644890898,0.18545938888927527,7.923964524165123,4.207516392907158,-1.27503071467427,0.47316111181200093,-0.3439670318791269,-2.3277938297875327,3.1237092525539816,6.313016032768143,2.8883289929904548,5.4695614711766485,10.704406174443207,6.882095088545983,4.763751749712908,14.141317112219767,26.67864499353216,44.91803596301843,76.29923220403883,107.87038752511184,132.72333786805865,162.14917326245458,189.80737653325374,198.6205180643809,194.19616889664027,184.39371225154173,164.07661760782395,142.67444482479777,133.37730436109106,123.5001393203313,102.89872516118902,83.14943739134102,64.28692644956112,37.249111056965816,11.47129654446249,-7.563827152830715,-31.000713997203377,-55.00733934112427,-68.61257505026803,-83.05227391582466,-106.1420858760952,-125.15688600679515,-139.5097932971945,-157.58694808618537,-169.7546690958914,-172.05521384734934,-177.9997672010069,-184.4300468360351,-179.52759868388006,-174.22116413770902,-176.7173008026966,-174.90437416042278,-169.80609246593056,-171.450713110942,-169.40735385892407,-157.5136357173051,-149.0299205484642,-142.75138149150217,-128.28970476825833,-116.23072962553084,-113.91015368905306,-108.67768631010713,-101.03948060956264,-100.71006462436803,-97.44534787206601,-85.27758852915348,-77.16452907521173,-71.2521930381063,-57.21178527454213,-46.04128675655896,-44.56123799718,-40.02307023190542,-33.744221359763756,-35.20628044627657,-32.993866363674165,-20.579070960263063,-11.680732543235003,-6.547451888101113,3.5803276420147396,8.564846807067829,3.9874927076568847,5.22404505757251,12.487538066693823,14.62362930118279,18.825346615913492,28.566804636237897,30.391745647399393,27.001248436593258,31.17308117108554,35.41591616135466,34.48104142615844,40.442517731764916,50.24082824338733,50.8292791381831,50.44147416527354,55.980546099692596,55.9723727298925,52.67869653725822,57.79721567244518,62.610732716515656,61.27474229920089,66.09871155307687,74.12806031620997,72.3450676020212,68.5532238476091,69.3798192317165,65.15622403538245,59.76268166957516,63.83873505356966,67.57052535994818,65.00060999320584,67.65795382680446,72.16801891768944,66.46908762878459,59.727234328351926,59.85247806972661,57.675240109224404,55.779768045825215,62.179999668941434,65.02389951428684,58.91194953834653,58.306737265027444,62.259349201737805,58.32837677683411,53.60992535757173,54.63536143400298,52.27615877561553,50.20730275974953,57.24246926548477,60.78853135582297,54.136076823072955,51.42050028518324,52.85423071963657,47.92501182897857,44.20340465099841,46.59285492441046,43.720553849568574,37.96715324920864,39.54701641124309,38.77560012852131,30.30938218915289,28.601879027123047,33.607460972097314,32.77678356217427,31.518390421275292,33.99996077494558,29.152340876616346,21.179099219670853,22.769223128225956,24.85546562143171,20.069454457014412,19.586202772538616,21.962965720273125,17.42960234201,15.681375411630185,21.816700268016227,21.89577986180109,17.158735936045645,19.281580640160023,19.798231827762137,13.351311175637811,12.657042048002547,14.777975459232433,7.123136202964147,-0.8541466671925078,-1.6351024525421645,-6.596461090096849,-13.195607558003854,-10.026887910770625,-6.842987694332292,-10.69629084257719,-10.202116862716228,-7.5610452333991125,-12.96313740255014,-16.123737540545267,-11.155650476109923,-11.264453807780114,-15.27161133398211,-12.452895661990954,-11.107556710661122,-15.590347650495064,-13.179448221751844,-7.595740538880031,-12.574883899866887,-19.66696002367154,-20.612388557083136,-24.12747959922672,-25.832045625920387,-15.872571298079382,-8.006168901606422,-12.449023399029048,-17.545573248599247,-21.620371189971276,-30.660057608156123,-33.264515943001754,-25.17644507893163,-22.40501473949236,-25.475527031364457,-22.256240686200716,-19.153667973082666,-21.341249460865264,-18.27550274324477,-14.227078856441022,-20.88388964663606,-26.994006565127343,-23.577723026597983,-22.42589880680466,-24.248430263498864,-20.249948657526723,-18.65014756289773,-23.04572129716899,-20.44771419867683,-14.721401156764188,-19.510361506572448,-25.615008812489545,-24.366585455060473,-25.923073131577258,-28.02988690058563,-21.123550379519738,-17.2139313043619,-23.21249961513816,-24.690504446930703,-21.963853180540074,-26.019129811779578,-27.216310148915134,-19.385177045145234,-16.622739189282015,-19.587687400313893,-17.63821612809855,-17.33088378732483,-22.251498980112054,-19.814892615561813,-12.338284188888347,-12.784370862674859,-14.736529155101477,-11.524556117275843,-13.015999949527865,-17.320195532035644,-13.892853356324455,-11.533695340390986,-16.739387684149968,-17.631408051081817,-16.218507275116295,-23.798143961807472,-30.174884467845313,-28.10098644390915,-29.788026298404255,-32.914744320376336,-25.616042146948146,-17.397721173512764,-15.467457751097918,-8.839952470146274,-1.5485668454061265,-6.294749102560869,-12.907514208091301,-12.773169411323071,-15.43969860577091,-17.30709641476532,-8.44377187200581,-0.7325288086513453,-2.6289152470245316,-3.7558415301016184,-5.249506455442649,-14.056747546131653,-18.03665497268986,-11.804369237953969,-9.570762205344012,-11.24499054871525,-7.190490425953684,-6.223325383061068,-12.742068876606005,-13.242501929092375,-9.10939624070686,-11.312753782025284,-10.256948224548848,-0.3638007719416265,2.9296463984667693,-1.0221820005032416,-0.7186950640175881,-3.8394438218124813,-13.54236030886038,-13.497677519324629,-4.277760545686808,0.23052300818438054,4.097659110057759,8.84576326288544,1.7122079647889779,-10.964766447099063,-12.136623360943236,-7.926418660004055,-6.5168742933385095,-0.8076273183867646,3.8603687773185302,-3.2220308318801796,-10.262129926251308,-8.43585767304599,-8.739610061084216,-9.572495058485035,-1.1620584640875373,5.244503513216922,2.349006690729112,2.8299013917146145,5.159701951350088,-1.2793982520973848,-5.732122628889583,-0.6277233434497447,2.364464141368826,4.630954158888834,14.317588463637426,18.445274626603293,11.000148401374705,8.276285450946839,11.561767988059216,9.767000941348822,9.175504979062925,12.814538125700462,9.486569970607519,5.04497124468131,11.77641040333542,17.79294826746115,13.714191396270095,11.132627401575167,11.077108008447526,6.153014617953962,6.122943370158988,14.344998340961725,15.553040409594274,10.987572834819883,12.899903809373539,14.000033890448261,10.088949507661257,13.42906848009971,20.325098057242762,18.038262758327217,14.538031789145778,15.925501284506721,12.131683154980136,7.065117146024683,11.358405345197525,14.481759628540244,9.890841101054065,10.358122786720202,14.577648589926342,10.950172028087632,7.52423699878412,10.576500518963776,9.35002622559053,6.231696317231673,10.900199943077707,12.695517114732843,5.625265752673227,3.9130518226010516,7.610202189723652,4.797003925786376,1.987590925674277,4.163951015159153,0.17309311837415464,-5.768781905670913,-0.733604656701504,5.190815994359984,3.0430025732639128,3.699791374562186,6.083130192314769,0.1730977900778612,-3.553224317117089,2.676244002456299,6.1040795449581156,5.937704022350186,11.508765836202265,13.558509774795482,6.238863462122765,2.616728833318177,2.8114402385001602,-2.460182996725152,-3.924496842054028,3.0717709036707683,3.907096568566754,-1.2001248241695124,-0.16989233245890079,0.7933235239840151,-2.448149796027069,1.3087654759820821,6.768557875698541,0.557724318395302,-6.3841502119988816,-3.8849103805401333,-2.2751356054021006,-1.2710982067394654,7.192344678291822,11.519157643170795,5.4693691307843215,3.9476401007810082,7.3194726537533015,4.033954016265034,1.8431656517069617,6.491932456784451,6.524529979344411,4.693707202126783,11.816605858157477,16.92140745079161,11.59298176647635,7.817989403840553,6.380995193185926,-1.1083363158800101,-5.341817184623916,-1.0626442775134413,-0.34315257585114955,-1.2279367415975262,6.297801269435704,11.883674366835107,8.359489776025896,7.391906088348467,8.494096919039443,2.585797841373459,-1.4831177581811823,1.1927045273522876,-0.7835724588914914,-3.7003595227228714,3.689289797669954,10.136065983242508,6.931578604618913,6.157476641139308,8.556773851419775,5.611020311927309,6.176685091193722,12.588719561868654,8.942729570961072,-2.2701239254977246,-5.899815167910122,-7.114073514255997,-11.104595914642754,-8.04502200531472,-2.8848504975552993,-7.823978238812829,-12.147762367157492,-7.7116594966989815,-6.400710134096824,-7.095528782865641,-0.3041298448077061,2.922680523080377,-3.9930729750220157,-7.327885237553945,-6.400189199632916,-9.905134252983949,-7.729976849213101,4.443677643333526,9.995541881786691,7.225400137931054,7.0431874815252,3.1267463298973923,-6.429413799784282,-7.045794736491738,-2.002330301678633,-5.451498413538652,-10.178389153528446,-9.18290711390435,-11.71259673360045,-13.983604224372733,-5.938094903677888,0.34830181643446023,-3.5270458608593556,-4.663181123805671,-2.1579118706824225,-5.39767751248032,-5.388581714866168,3.2465648298407643,6.812708982912268,5.162952437834368,8.423649941702248,7.955340302592826,-1.33010989102663,-5.535277855052434,-4.297872596249389,-8.139560883763174,-9.594988004457477,-3.4011873310051146,-0.9180696109445181,-0.5300489462506973,6.752233299032612,10.103513229832483,2.7838975649846063,-2.1877919038561267,-3.246674916517393,-7.925786779038867,-7.371771836284017,1.4679088319231903,3.4325529133370916,-1.3814309371524391,-1.6704711446464047,-3.847879630220986,-10.694191607584923,-8.984571564791679,-2.0165841012979997,-3.1424207120266345,-5.568058925018567,-3.3823489461071112,-5.68604697195461,-7.665434723013727,1.3253697627382586,9.17014071296336,6.42949742017986,4.269479081967599,3.837353537309717,-1.2866362091176025,-0.20738038578868878,10.81096112578318,15.217514459601542,11.880402074346241,12.123459379265384,9.645698090000316,1.7454885213719642,1.9708075672469638,6.619856085654146,2.355457212888122,-2.263691805115275,-1.0459892030434643,-5.491045767382643,-11.733472309248269,-7.3923658259938065,-2.344461962750529,-4.117608475305849,-1.8115537130807124,1.9380340843834856,-2.3707175935800873,-3.2909570371522543,4.545543426345889,6.5672185716827585,3.218918560394897,5.1171153960965,5.519137324278526,1.9446495491265472,5.9709652867549625,11.98458358597389,6.751942665726988,-1.1778086690045824,-4.9375369519233665,-13.238210744072727,-20.418501705490556,-15.0000349228063,-7.862745517848895,-6.917046894543129,-2.314076281674735,2.5401920080454916,-2.368162053800969,-6.884159433081912,-4.677880915195368,-6.319684596406625,-9.108850516404907,-3.282813020496998,1.8281990172467655,-0.04776999300679141,1.1269457901956952,2.70074175236643,-5.275774134648813,-13.923093710668752,-16.636725261494853,-21.553313681331918,-23.265307201793856,-11.620411712237187,0.8537519396635465,4.130421174516477,6.786739670251175,7.272326005341581,-0.5555718642724226,-4.086807772412939,1.7652007625850215,1.837545509413382,-4.076616316698832,-4.060323468122076,-3.888522055086728,-7.101317039530714,-2.1588360270725264,5.773262201840591,2.7452047728868783,-2.3296532750154464,-1.4583875468102983,-4.844346571929317,-9.86835430659632,-6.047955319070757,-3.0528648539365584,-6.620989594027434,-4.129418685001031,2.6001786157278044,2.358761267025671,3.618496905097267,11.770933720545095,14.429758625199659,12.923688998289474,17.397431235959324,19.389757387867974,14.185960718203594,13.585279339021772,14.86451298480104,7.3435839189850824,0.5718005614122346,1.1586921157704517,-1.7798204927016446,-5.885524438008514,-1.1925304563840238,2.5643997479423675,-0.3822943681455482,1.2223239432621795,3.3673608944786606,-4.720570899216444,-10.752432093182136,-6.719022038727418,-5.9112251999232965,-8.579948434735932,-4.881366550902507,-3.073751732741129,-6.7241157600528485,-2.2302489306302498,6.76246480850648,6.505808464155924,5.77495081771871,11.833869638119255,12.535604975757519,8.695683548845828,11.014548560494747,12.00403061014742,7.824014701749668,10.124555959051328,13.797287563663701,5.806756329284875,-3.440796549229745,-4.388694786084459,-6.717330344766724,-9.477066907683696,-4.744627218064428,-3.51434166772948,-10.681046556442428,-11.654040461228224,-7.189026252222569,-8.497060599263294,-7.363750001385,1.1120585705340909,3.6111509338273295,0.7258440730001605,2.9202032893347587,2.864138916580563,-2.3312016398068014,0.7416478719400228,8.279142807163264,5.829541750732892,-0.17406380176023295,-2.3678464811881956,-7.42251304748959,-9.884621324839959,-1.099145227079036,4.906538752877029,-1.459340781227934,-7.615683048973375,-10.142963875034079,-15.048137328368389,-14.083262198346656,-5.547003494177218,-4.325367846197154,-8.443747819410929,-4.997173444693696,-0.5558479029551304,-0.9845709216585099,2.912132777010378,7.382729545829361,2.7085885279319766,-0.08345186668689636,6.194738044176185,9.744323553043952,10.687621221000747,16.45084396014557,16.79696392273288,8.022333838490656,4.229216317117955,4.186535830178483,-2.409552526679363,-6.790917871960569,-3.768679209062868,-4.332793043204728,-5.167850567208898,2.6145852423929066,6.384438016112261,-0.7430065253087283,-5.20410091852672,-6.117991497633339,-10.642486779349841,-8.829349466710175,1.0089279571499308,2.2277728968705177,-3.460844589714502,-2.372255108671634,-0.6085063166529778,-2.7123729549511664,1.6640320793819343,6.7322656082465455,0.40984925579175036,-5.051195501626497,-0.547617623795071,2.217458708490032,3.6121855044636377,11.459501858103312,13.888582438070582,5.406715119758144,1.1716347946365397,1.4431807212901702,-4.5311189701272205,-8.726286279270825,-6.4308605536021926,-9.441589466515264,-13.98717671642942,-8.018403648577168,-1.506075147141569,-2.9575433929392494,-1.9762753592076174,0.7883428148566711,-3.3533677217060576,-4.752736521001171,1.5201126598668102,1.8702959172757798,-2.009432641497643,2.1076227944801986,6.346434060862516,4.700252723761762,7.831672926771155,12.199979176502305,6.902690107399778,2.6526576618834325,6.848959000484345,7.007880443898115,3.728464620590584,7.455491225859189,9.300530417862786,3.565591667242156,2.4184552040293212,3.2242660544068924,-5.41666136824966,-12.761267367761452,-9.177296371223694,-4.503023602524181,0.8760138591563498,12.883584135002998,18.695682357627156,11.55948461115695,6.502170260778132,6.723493870645555,4.091285755299497,5.696958565110093,12.995121512050526,10.489581443048312,-0.0020534072043956186,-3.985154914420216,-5.273699723371074,-7.330826983835986,-0.695163076700029,7.847242057799404,4.088701662739001,-3.1257996241090735,-4.375321691249322,-6.603394781555492,-6.102951554649469,4.5006873660928175,11.35312083979033,6.324475582345826,2.2511339249539737,0.4217123076126355,-6.550448767532412,-9.13083848320436,-3.30417801742386,-2.013780132355939,-2.9009606168679527,3.977703083173133,7.529519446808869,1.5268331397575043,-0.255909954811423,1.7891281224727897,-3.2023258918688597,-7.670685617455497,-7.529141681890959,-14.601377652620636,-23.74372603070851,-20.776890911973798,-14.038705939618357,-10.484036813763257,1.5358706729486071,20.920055074820457,37.284801546449245,59.19974139214656,92.14740763544916,123.17739551476977,151.00119986369663,180.85846344161718,198.21928640764202,194.57495607004148,184.18571440543437,171.1073333683344,148.89745439332478,126.35645777068169,107.55563640035327,80.56368937194955,49.55951066365179,27.776107822881492,6.940147818040086,-19.719804738700326,-41.08433603546831,-58.048043877367505,-79.08559522756778,-94.73117855135138,-100.80272435624704,-110.58731418753621,-122.59827451368074,-126.5826741746207,-131.75754859446525,-143.30500203247334,-148.46350727847494,-148.6075412527508,-153.31155626189644,-153.3036623192063,-144.95047972049812,-141.75347232748624,-140.8407654627357,-130.9506000067968,-122.04678790788864,-121.09191392278512,-117.2206737970574,-112.11870203768254,-113.27756020988966,-108.72675679500479,-93.71906416700631,-83.42366676067526,-78.44065853048585,-69.59568390478876,-65.15667774190109,-67.49623931852581,-61.57858371364169,-49.13840200440292,-43.206796033864165,-38.1796604261575,-30.748206002801208,-31.768495918172935,-34.38666292693509,-24.58649082439675,-13.551605965110351,-11.263404679909515,-8.188179441816406,-5.825808440805673,-10.81052427399491,-10.387463710977407,-0.13467728896403175,5.009234083819632,6.462891544727949,14.128544550426001,17.749815649903848,12.906551555674785,13.772036353916773,19.380448842879233,20.2785818265272,25.444510262514356,37.13777788237653,40.31564762002289,37.56523992086454,41.572731539241445,45.00835157458897,42.95008792123645,46.52077468004303,52.40776120479525,49.76088045618289,48.285185823386584,53.62696128583742,53.11636666645112,48.96401054746287,52.118791131253204,53.23344197695915,46.94812665378963,45.65447847220242,46.45663164390863,38.68083008075893,33.99662624445064,40.08695845280411,44.264595538441746,46.99938629671157,56.45918296487017,60.87284087890115,55.08976937910432,54.02841399673817,57.21597992294818,53.6946313619379,51.442276251735976,55.20083913417825,52.990995674805234,47.62362659887184,49.934012488617654,49.75839038290643,41.3226071412502,38.995108885206996,42.32370908030744,39.53684803766574,37.792221544764395,40.96089814048708,36.3721733602603,27.903019202847922,28.324087034096117,29.081154996557935,24.852573920647362,27.674322185603796,33.94086967810192,30.8369586928927,25.716178612934964,24.201379651578144,17.366331680110495,10.887710419322254,15.664994062977957,20.658169282290675,18.88095585269727,21.30951190909017,25.001174931580007,19.632557999548403,15.030019981559114,17.261512454372433,15.178510554064323,11.499402777868852,15.359907549701939,15.73518647944401,8.059919711334082,6.448641985773295,8.986100595008295,4.526985946772603,1.467884604110862,4.536607656582849,2.4413391764935626,-0.9477021719294956,4.75041169985942,8.038648751479814,2.056850106345146,-0.4286773691241872,-0.17992169122485124,-5.290360921748505,-4.230279756712406,7.3990302056862705,13.696439321677266,13.57307476290082,16.00573358983631,12.644884020220985,1.9844335324289446,0.012947870614404278,4.014661650194166,-0.11439795157492316,-5.502572758970228,-6.669570942864474,-13.390057484677682,-19.756114150626697,-14.201899573645575,-9.220636963988323,-13.43121363360888,-14.79371515852164,-13.94694911591597,-19.539696997743818,-21.161789605676553,-14.220005929984131,-12.901773534119547,-16.30656891779592,-13.782593839402717,-13.401342279385235,-19.15371846263271,-17.898708666248663,-12.046566668645413,-14.131553613660426,-16.54904040753894,-12.865222773793068,-13.396723175644533,-15.272474039480338,-8.562976125010941,-4.365610670830262,-9.520793951123908,-11.250193313451721,-10.552524041707985,-17.506200080537404,-22.65478804649738,-20.18904389851199,-21.459412339359172,-23.79703874838672,-17.976316146936487,-15.310830673280725,-21.38275444399415,-22.09097051386758,-17.881788070278795,-19.239676403619292,-18.295711557190835,-11.033051526401314,-10.00225901678336,-12.464577415598688,-6.853289965468639,-2.547235930625625,-6.6656301442676185,-7.3903210003972575,-5.457748465006734,-10.617581671015468,-14.072170564493003,-11.085359507864322,-13.691328628943428,-19.108061640887623,-16.36215131840394,-13.754174350736399,-16.554353395772296,-14.317134298031336,-10.522543901195021,-15.53396981214716,-19.789606979887324,-17.077320657074743,-17.669555626077628,-18.400157631572483,-9.959626562709316,-3.8025399720381294,-7.430204094893754,-9.104835956426006,-9.024267611357779,-15.30370308668137,-17.292067744162765,-9.33641002746581,-5.267441373545582,-5.73736972744642,-2.152972829606333,-3.4654123698752164,-11.985954381367947,-12.025197171349333,-6.1571394154769585,-8.585134707567905,-12.855605325135816,-13.102786695138413,-17.4164566032956,-19.126919097909273,-8.384594423490235,0.08466372065531624,-3.0994069614045143,-5.4266502334667885,-5.822625148571399,-10.82161986710642,-10.45589863664097,-2.7204181514435195,-2.8762375503462976,-8.921802894985937,-8.482083089451521,-8.266689204634062,-12.275690134367174,-9.613344746971725,-5.180841084945344,-10.390168116829459,-15.23540951564323,-14.347349313405871,-19.49493690021084,-25.94787645032087,-20.380214686775663,-11.42529507815757,-7.099643779630901,-0.13899193648760555,3.5865231323747047,-5.150372898310693,-11.460868676783713,-5.835847731332827,-2.063080296732565,-2.0681562346565516,2.9575095945958565,4.685742082431982,-0.5093547831169056,0.7490933902369972,5.568390684883427,1.639524930232848,-2.6780561260340123,-1.6975590982655109,-6.303766928405257,-12.343782182448082,-8.007618606320897,-2.586481045266451,-3.2420448861072315,-1.001527716085124,0.8925475433080483,-4.624174380277134,-4.641608053721632,5.787098588109501,11.418475567992694,11.512704566210843,15.366485828827605,15.214803123924838,8.50802826400275,8.402853913878397,11.042537378593149,4.869179648868116,0.43288709630197786,4.209439475901824,3.614764455715912,0.7590315119157358,6.1492571988612905,9.112842313736838,3.570017550512281,2.9202978575019594,5.50375738686008,1.4165117649506713,1.5287883571498673,9.985583534143068,11.534458468983278,8.260175694489313,12.063656346039455,14.52117640021484,11.14244787341503,13.304248768559384,16.338160890827076,9.599723343740916,4.880448126978848,8.981356444162747,9.004751901287031,5.9869226959192074,9.620314100957483,10.985309772905005,6.5084854232745295,9.078508474760426,14.491207895588586,10.352025062139493,6.179845169511947,8.492341341049102,6.021366419467943,1.134544369004573,3.267602961814411,2.2984737897227747,-5.5156777657849485,-5.320066208088587,1.1107388021208044,1.5741689738877074,3.2032674022087275,9.837551920948878,9.712936349457054,7.492404627860928,15.190539221494708,21.987772217425817,19.345344146206237,17.28766359345264,14.780963074770533,5.681673072912039,2.531701220012283,9.4790521152003,10.299119508096425,4.217290346139001,2.1329820854281563,-1.291009844672392,-6.824380940163468,-2.165794972121363,5.683012886553783,2.3669100135079097,-2.951718699190777,-2.494411095533706,-4.551147671582992,-4.8836371674130055,4.390906234445335,10.123360012834128,5.749047912639817,4.280311245341299,5.236791147940311,0.5129791200558551,0.06705972347073591,7.1962033940468935,8.349057781447906,6.2519731027977095,11.063630410784086,13.326217355458517,9.146002248365265,10.607968493031674,13.428925302010672,6.705264900611583,0.6619628069413996,0.9900362286914697,-3.3516999417310798,-7.978002041043249,-2.414357703144148,1.7905733337405245,-1.8097744058331562,-0.8282801648069484,2.2392800375143462,-2.316809599716869,-3.0352895492174303,5.315220719793239,7.830744047607039,5.009858888277463,6.802158755066945,4.294342274108552,-5.03367511133399,-5.66143215257283,0.8106540881708035,1.877129669800421,3.7615897679358348,9.671097983999884,7.833256696320566,2.4169310622014644,5.042507228665848,7.299755167939041,4.639658790511046,7.7065951660261796,11.60299775574777,5.177604146189571,-1.7305580306600048,-3.3374410027218433,-9.60692539492466,-14.374783592976588,-6.735762571280306,0.02544803249342409,-2.0314838483405544,-1.0448372443661034,-0.39222893173924145,-9.710665987193728,-14.986846383360225,-8.022099883891817,-2.3959643993599,1.4889696744437606,10.596807510787848,13.103309499406864,5.287175385397532,3.158928543658308,6.827736412302099,5.034172884884059,3.332405820080929,3.8124355414538424,-4.545966316975941,-15.498123520225706,-15.527833502911118,-11.796999190000017,-9.10855156764701,0.48067107532558717,8.690144696415564,3.522447238225916,-3.7121270684403544,-4.930877436076861,-8.448763973014431,-10.24752189755539,-2.8914576999807102,1.3175840181350922,-2.8632683950578155,-3.1695010256695983,-2.0717186001785235,-8.021179650353844,-9.601591805625297,-2.2315939665221625,0.5310207031584336,-0.21321548256691503,3.5102126087874073,1.9619293957570578,-6.408710106735634,-6.704840887321128,-2.6622881912933396,-6.771708579692815,-10.047515149870218,-6.825199525106871,-7.419250756387729,-6.968309465897115,3.4980441768713426,9.622887111073739,3.239215897598506,-2.6314375627327125,-6.677346103169408,-14.058278684512388,-13.373512302917252,-3.2131646223710697,-0.8529253559067151,-5.421016297572542,-3.909639404504697,-1.883568829194038,-3.47298595152629,0.7664342012998184,4.612406051676391,-3.0353929415943517,-9.363921759371253,-5.912893162070052,-5.100107315916706,-6.157961856312013,0.6849904930147366,5.663321116815964,2.8599621957763595,3.591837030857267,4.398342821196769,-4.731379577419397,-11.438264387579856,-7.741032017447873,-5.679359850702535,-4.378845886046975,4.290718705602233,8.9641135930934,4.413045491807615,3.8562309246459696,5.663096122546512,0.4103442358317819,-2.26645723293774,1.3573755625306396,-1.9612986687669154,-8.483866667188893,-5.731517560452623,-2.6132501676489595,-4.771320423622564,-1.0106160692960664,4.077025687547412,-1.0054562301462369,-5.688422600657833,-3.429922498240683,-5.321592994639657,-7.330302734915288,1.1815085537150285,8.12101580222746,5.346056112214647,3.960422542908899,2.2306156907009713,-7.215784872417288,-11.437570468711534,-4.668168614481761,-0.9191578320450164,0.2579353802270834,6.946175486595779,8.22073175449698,0.02496615151135062,-3.7454021670464295,-4.008797274501623,-8.820637238929075,-8.643736808791278,-1.4138107279164869,-1.5922794532523095,-6.0831510422923225,-2.4326613712668643,1.4989801752818808,0.2677982890244599,3.245357208116374,5.106788768436954,-3.2337492434980373,-8.557390669564288,-4.386563356458147,-3.2607114779892297,-3.022969033343967,4.992450321623272,9.878216492149505,6.717913934806914,7.128266756693841,7.645414947283987,-0.2701728690503393,-4.573212752366976,-0.5051859820456532,-0.9527558693757165,-2.7314558031952685,3.532264868726064,6.791444759345816,2.536088361128314,3.751571693632037,7.341787771014891,2.4254742861673555,-2.21690882767872,-2.4337316452703495,-8.639235269977613,-13.701672217641688,-4.845833497499778,6.455623718942318,10.74296105482718,15.66448570234807,17.705433182076828,10.490108906246212,6.705439878864066,10.824909484522815,9.737845230928123,5.666259397046024,8.24502913785178,9.352314759841068,6.11894853140243,8.357058033376981,9.337646206390634,-0.23743047295582365,-7.24498840563637,-5.494080335953848,-6.469016927286701,-7.568314509594565,-2.0037841393195484,-1.036464894925111,-6.047912458762935,-2.7364660571093715,3.9421129787206306,2.0022365456060798,0.37035476290297054,2.87234338855666,-1.3473423573499417,-6.451387762622366,-1.7147445790729043,2.212883706676197,-0.03606697670792047,1.9396789238576626,3.2545424025654373,-5.282304769444108,-11.157427129588973,-8.025695149282377,-7.886667398969936,-9.05988751895779,-4.269709004564721,-4.212897866838918,-10.919520045997118,-9.492044880107525,-2.471461859148495,-1.5222560349011498,-0.055139250334676815,4.245829542878117,0.5246721356878907,-4.956148380939792,-0.8538465058403868,2.2008491901102003,-1.6986890589987667,-1.2612055688867658,1.0390554509279406,-3.1110058647038557,-3.8050422834247133,1.309677934017944,-1.031781445463972,-5.909011457907726,-1.2174334189115872,3.4746877560931346,2.1950531809843814,4.512870456947782,5.53697075884863,-2.6797494236955686,-6.097217490534035,0.7259680205649803,3.2542204746080126,2.5604183059235983,6.73402575424783,5.667368703180813,-1.616360085629744,-0.15556983423192894,5.462511929812878,3.102140654213114,1.760645651693804,4.834392331392717,0.48555739863756675,-5.124334774324481,-0.4480624596734639,3.649277981154341,1.8403807260136307,4.781807044945044,7.363278938223529,1.1965013592425593,-0.6614887378250904,6.165846685253086,7.537686374586045,4.953036363790144,7.060314302257129,5.773495696128181,1.0453422798563312,5.868159211427205,12.843047756818393,8.428526520647392,2.7131897061413928,2.663802908320608,-0.6150192368460117,-2.0992141455184132,6.241516549443055,11.241957678779013,7.409342270128255,7.725294914470717,10.433707864917592,6.643484654351175,5.016123363536094,7.995664366855735,4.123900557006753,-0.9419390903959104,3.853503997777729,8.260202721734352,5.951436964537239,5.843935004950465,4.043279888845171,-6.080474864031261,-12.024009700334876,-9.412108127199378,-10.774788538557535,-13.026679470184892,-6.792995492182756,-2.731196276602857,-5.746692387944739,-3.5725314006267896,0.3309075477418255,-4.068081235948402,-5.794512124042696,-0.05831351895958514,0.7386126272134443,0.6164723062446448,8.821188337028895,12.66690993873711,6.7225390126466555,4.448483167456571,3.574545717149268,-4.765382916839625,-9.312199610900038,-6.028127889295607,-7.64239322097074,-9.793221897711698,-2.5614203695586357,2.4378093931755336,-0.060990166956769176,1.5939717608157362,3.6179056868268984,-2.7347573374517498,-6.197812931241737,-2.745172125511744,-4.368131899607406,-6.530251620043487,0.10257771053597686,3.579854274603885,-1.3776007764012608,-2.4559150464098227,-1.5659432855184097,-5.715664624955345,-4.149589312624098,4.246020647168424,3.7717929531293084,-2.397496575348642,-1.5665614512012085,-0.5470223401365447,-2.575102209947069,2.526935714572203,8.233004311633149,3.555102911568399,-0.796770571282178,0.4099068255391398,-2.9106548756710326,-5.050274480195972,2.9434740972898847,8.267115555171785,4.97269326540623,4.165011941913334,3.0945545609830543,-4.530442576942752,-6.286690413385179,0.6196715393497167,1.3754378820861572,-1.7567388874056182,1.2693039409101492,1.5756036253577101,-3.4951218191138365,-1.473692075336051,2.8861188498788533,-1.2692614730603164,-3.9514666418817432,-0.5390422897281213,-2.4133519906528496,-4.984442345563053,1.5307625234623319,5.298456441455454,1.0232287556322717,1.0373134257048475,1.9612185053576714,-4.699821266841229,-7.620031542159191,-3.9939409642896866,-6.683088085898481,-10.17208268654826,-3.5105860915213407,2.869272713849227,3.777230222556934,8.365011159270484,10.859225026254121,4.024379991024511,1.253101097828884,6.320396470671697,6.154876331091218,4.301247846377309,9.07844727418017,9.605598775103108,3.382914569488177,2.5223124305424647,0.9394267095763933,-10.411159109465101,-17.122559151394512,-13.325660627484842,-12.189411367335712,-10.465748593566266,-0.1374701322554781,5.413626312129629,2.1610057350683185,4.452670726686897,8.174046947183747,2.7650182600711313,-0.17743163759698585,4.128943374868314,3.063611749956652,0.1841799548490095,4.391300275916157,4.945302280339977,-0.6979212729877036,0.9134585671314057,5.414031484021543,2.0061753661779704,-0.5370603741185072,0.4360766747760918,-5.963140710738818,-13.243284444789806,-10.510847764904893,-7.6769484654965705,-8.687727702294383,-3.3793113797902423,0.9278092603137738,-6.510632936482399,-13.30384508206022,-13.098607325422536,-15.287469502791316,-14.069703763638163,-2.6145173968839837,4.213977235842615,1.5329536545388973,2.131675282620458,2.4400864955291244,-5.2392115889042525,-8.576702211534583,-4.262357840153472,-5.404377937571058,-8.025646548335985,-3.6985880460991263,-3.745767557984655,-9.839491583161864,-7.7516437917948116,-2.686415382407768,-6.296170881225135,-9.59936639728384,-9.365266203960964,-15.024669918127072,-17.728490674865533,-6.891691110819838,2.8607825867980567,2.705118052263471,2.535653466166983,0.05671785662517359,-9.193192254290873,-10.636800329601114,-1.4572507191491657,2.2470683698558984,2.329766041578925,8.6328497754762,12.80687618651437,14.244286289037378,25.261518345788676,38.723448832959704,45.800970436439854,61.127984193087954,89.89052596865261,119.39025754933724,150.22297847592785,181.73217429413506,194.1216005126794,184.09103372623258,169.85427376091258,152.62255467140713,127.02119577619354,105.51495512048368,90.41629145133334,68.11813612607602,44.345074530044,30.213442087285515,13.725041649223176,-10.913299168139218,-31.398172497170528,-50.3126091366284,-75.65809379668897,-96.13412795087481,-107.86172195456061,-122.21550425319059,-133.61165051198486,-132.08154390429897,-129.7554938794529,-134.52311384664748,-138.40976933133982,-144.39716452880887,-155.392958911283,-155.95284350443114,-143.7639908933226,-135.88250073701204,-132.36693099652905,-125.09106098070382,-121.93271172376424,-122.35079351510349,-113.07298098588495,-100.66154146111174,-97.02002432353031,-92.95749917792938,-85.89326953040202,-87.6647382756118,-91.6566747510351,-85.88747923066195,-79.55940342712779,-75.99259475803125,-64.50638532931575,-52.055264865500995,-49.47127682422117,-46.21618793966226,-38.89638928378514,-38.804013738041135,-38.867588408670905,-27.270339979950386,-14.618414995228454,-6.6695377604836485,4.909803070486249,12.37935721398392,7.246977459712916,4.405948834130669,10.13999806412334,12.443906026406513,13.979001342867338,22.079322641653047,26.12273428139564,23.89735822379285,27.42395370798558,31.345757262184826,27.025856948526922,26.596942369662862,34.07930283860241,37.770173385177706,41.25354262653299,51.21247816034462,55.506656104345645,51.34480902865407,51.92548947031383,53.9346302717132,49.7500388656899,50.945685953055786,59.010615465387794,58.78195953046179,53.629866010011874,53.63339036245775,50.73688635594046,45.4333856723582,50.20391848648879,56.75200833395586,53.38763552281602,50.59208876884206,52.05631792995307,48.10756276954877,45.34878570833551,50.90876041899763,51.91712003106507,47.02366155022504,50.31915784899728,56.59853058302771,55.46312251245446,55.91112844157556,59.36546769095645,54.37460622502154,47.96945850510899,50.488322878221815,50.37280755312531,43.76040950804529,43.782363888607804,47.1976213044147,44.76608515889956,45.32928984251433,49.51069896317152,45.05272908534553,39.11228370896956,42.44069202557587,44.3434419654409,40.977514980328586,42.23353137428654,42.4404810360969,34.93037987190694,32.377253779632014,36.41824718734853,33.2033956280585,27.994289912681253,31.133669326498094,32.19555385345814,27.99483324674313,29.31464128215413,29.447421496768243,19.58468780425512,12.594168937402788,13.11774489518176,10.052964678521665,7.960621848546499,14.489679253808058,17.742619183743955,14.30722496992372,16.076936781376617,18.34712394671426,12.374198653788605,8.689388771149805,9.734359845808324,4.458434977881232,-0.4102908971407757,4.535424597780338,7.340396345568939,3.8561263418584635,5.049140071735521,5.20151237461819,-4.209530504100615,-10.644853124908433,-9.801726456235158,-12.893486657962184,-14.86740454949129,-8.324077536674682,-5.851930820470673,-9.84128297806376,-7.261882656208446,-3.5762304186955944,-9.062966305813008,-14.141171210893692,-15.436849385511689,-21.01788424269978,-22.495679574383043,-12.116354754603577,-4.2498732080243276,-5.0668727773169575,-4.526882555963951,-5.500929015108601,-12.360581546593613,-12.683477964429764,-5.960644983018911,-6.557006353885424,-10.221262790573604,-8.423952046466235,-11.402187571338436,-19.53854215506813,-19.87561531994156,-18.652754804880445,-24.57830023030405,-26.261051425003338,-22.813530656591535,-26.988519771063686,-32.0705784970126,-28.316811154354742,-25.950713713665493,-26.623423529644896,-20.018380336656648,-14.872604673089722,-20.98299613908001,-25.331478304648037,-22.988893752460413,-23.767370044875175,-22.016104237117442,-12.44642157631642,-9.530822782424643,-15.650745312858163,-17.447358026389182,-18.828667250777244,-26.55115578304084,-28.88695360741309,-24.83676899560842,-27.326843770997844,-30.666760801034634,-26.547007400595753,-26.024565996099298,-29.556461236890026,-24.454203930166983,-17.821768732040955,-19.041898366193735,-16.878995015394587,-10.469902830976334,-13.166453357118602,-19.074504610191042,-18.536302657063253,-20.681868733564354,-25.011986668060956,-19.626984595026766,-13.46040439631766,-18.374296739035056,-24.172859147488275,-26.08430749877001,-31.41151197627893,-32.75098685261455,-24.008759775288546,-18.931907825694648,-20.232750107184096,-15.837995575729767,-10.677192495579225,-12.919138984713811,-12.70173480616193,-9.589235445632484,-15.474338393229774,-22.331887724659484,-19.506686245544994,-17.79532725628348,-19.32215779495031,-13.603340175435536,-8.934312270002497,-14.449494156884235,-17.74186609919465,-15.383075230453407,-18.124894102209048,-19.979932715815174,-12.991844768598245,-8.561419564384796,-9.314006394934944,-5.294954704054872,-3.322609147443045,-10.090483888335543,-11.771622319187253,-4.999479006112822,-2.1805324690166157,-0.8057807289931875,4.0069033394448805,1.8506454657916005,-5.155751366306957,-2.5438926566381914,3.3692868599105825,1.5661512306668648,0.16631823463236267,0.3600798537230626,-6.519397936886843,-11.342282612857987,-6.011243430286807,-3.2048627342160807,-5.572660717928394,-2.5549873419947033,-0.5239878183005683,-6.403161183336905,-8.423572808437289,-5.504653432233547,-8.518969093527755,-10.319991000510452,-3.782816329070407,-0.8888301347507399,-1.9392717020560033,5.656735980386766,14.79846486945212,15.026991404569797,15.094972047299557,16.276467664415343,9.343454416942214,2.652237155068727,4.841508047023299,4.67601357642414,0.7283302582814188,4.951753186158852,11.12387620279931,9.628415103119428,9.412673694206042,11.621673769848885,7.259815623162298,5.090991923224579,12.40970151540947,15.130495272913679,10.310705506545592,10.186104687690408,10.095994307243028,3.85824957136623,3.2427422932295693,7.9269437935280385,4.602810542478218,-0.08054458688999455,3.5672117771379854,5.053904686704757,1.7516074113839046,3.9663831723413665,6.313978165433392,2.224257499217209,2.7709601909028274,8.052993639874215,4.640310547513529,-1.6965592751882688,0.1695936738029893,2.7647480681673784,3.9699775856617867,10.464200456484726,12.62576853829956,4.405040429152087,1.224040778136338,6.390120784010604,7.262497177365132,6.903875773109933,10.732177842358466,9.177071781659398,4.435749426138187,8.611145691864582,13.324474256985846,8.800960575727,6.0321914194366855,8.006008840866084,6.118838055602847,8.123021172990516,19.60807564789743,25.65610964233721,23.2310103762932,24.012328988037524,23.18999679537107,14.713400209596053,9.825779110799683,8.968178252024835,1.9570754584829981,-2.2425027086535096,4.817951371376829,9.828151291368101,8.78998444630634,11.460218691450919,11.674784174418864,3.836631669042842,1.0129240922075589,3.7220258505799375,0.5233325237332491,0.1087050950372821,10.119733284747973,15.813392493658661,13.567212434054156,14.75311531986198,14.695807373049277,9.111737597786489,10.735782839991593,16.90722751258862,12.079591563858596,3.8567735266434724,3.9449370056809516,3.8455536644022454,3.1815502591857188,11.523145348673571,18.841988578374416,14.927299055060882,10.50323497560672,7.546747515606489,-2.6540384539645525,-9.785071821967906,-4.013439463755878,2.274022908195512,4.61815839685432,10.474260830615659,11.76660135896431,3.57270985063856,1.057217483626418,5.819193401034075,4.710720433745744,2.9942389654554216,7.2835725724205345,6.367033162651808,1.6387005561113646,5.74037237149235,10.204408423995098,5.942001897474118,4.471848483873599,6.084784251904027,-1.3009768755280375,-9.730884792701833,-9.569773781766028,-10.577747252270914,-12.823279651608587,-5.835425553603674,1.9701936889896075,1.82469270673525,3.980883555338579,8.253179455794553,2.9343078804930594,-4.4416132160954716,-3.9574394204055925,-4.291421392812621,-6.012118324992715,-0.8746208693000772,1.3575706410478203,-5.873813523046393,-8.125066867423877,-3.1881531714063454,-3.0356335933159335,-3.8940608981536737,-1.3939973972509374,-4.811309151725013,-10.06236776514927,-5.3359759626950005,-0.27690886797270564,-4.278962824498368,-6.499661195193382,-4.876209186917885,-7.63220603007768,-7.491114833276442,-0.27458478283578325,1.5212945060611456,-0.6308982423309988,4.659558525349372,8.093092858011174,0.7178062773788545,-5.578877833086379,-7.369737915292592,-11.847754058576516,-10.76028202486687,-0.4557003285179331,2.839092452428835,-2.531148755175968,-3.5553977178570424,-4.838732702716474,-10.884613737735968,-8.593281650771543,1.1645867265713599,4.389936104760014,5.81003156079255,10.988956798824379,8.614610944557272,0.492127979277039,-0.09132996889732037,0.15216371871781445,-6.839192127876872,-9.970610826822133,-8.054940095908174,-11.207491800241645,-12.265571054332781,-5.591919712356427,-4.685631813184509,-10.480024037432896,-10.17941421429571,-8.385097935627153,-10.995841195248579,-7.558661604398486,-0.30616400238156904,-2.2006012050424464,-5.4122898179075625,-0.6906191263581904,1.8497474596248156,1.6204233588887482,7.991702716167545,11.16475588826687,2.273977050497116,-6.279648256112173,-11.301267864998552,-20.30161376245564,-23.34264726701511,-14.464774190238835,-9.060675566883974,-9.885765074975982,-6.490705398823806,-4.810281074053384,-8.482939387027203,-5.290181379752804,0.9501232368440196,-3.207324370570693,-8.192832945295283,-4.257421354823705,-1.1194002387442805,1.9184581677507422,12.379198720649342,17.23087001366627,8.684513651915015,1.4650124533555262,-1.9564021244441587,-10.624262134287765,-15.127906593225674,-9.276887817710495,-7.5250763326163765,-10.697617325768226,-6.2168583120429455,-0.6978360404860187,-1.3582467423330165,2.1076874277720945,7.460524624383922,3.2250429604142457,-0.49070975765318947,6.023934955034796,10.963226649768242,11.024205279857755,14.261507802815267,13.765706743457503,5.894534905746684,4.390813806090738,8.333097285018791,4.81172926449387,0.41053684981131555,1.6956944382379864,-2.6306859471574437,-11.204535847288714,-11.689338693243634,-11.150547630124983,-16.112565623955774,-14.508697228561136,-7.9107582973724595,-9.957826981132868,-12.514186986214789,-6.112120115241054,-1.9115677801437179,-0.5734218699528123,8.456309846740256,16.075394406702234,13.614119222124856,13.26787914679972,16.599937174550142,13.049230564616565,10.387013616068103,15.676432428721284,16.64178699051866,12.302874379484027,12.7376898267608,10.752092059990801,2.0885464335957002,0.7622493236115692,6.039862430505278,4.385996448929546,0.4568622109788979,-0.981401843545797,-8.78834456690329,-16.762892878314766,-12.23752670085923,-5.370371220442735,-5.073503824617996,-1.9340945789089075,2.362299969914899,-0.904471968299777,-1.0002167593798674,8.255681241350329,12.96167370366253,12.170113505116746,15.002278325265884,12.91426199486455,3.297744625815347,2.3098097423599,8.555398554327937,7.969836177585529,6.458103158021631,8.682443518788766,3.6312610099564457,-4.110003687859187,-2.4312526557590983,-1.2674640229245613,-7.375290855517816,-8.440809357555446,-5.387205769422536,-8.681873962923826,-9.910558977688769,-3.3676471389304554,-1.1633755531299386,-2.128023513571013,3.818807237655035,6.694767250848278,-0.798313111967154,-5.983851749398269,-6.944965506771327,-11.311749074467011,-9.795673215327787,1.9929060973731407,8.17539735318292,5.9634568933135075,5.745395647262065,2.2149527227766796,-6.715107939162558,-6.1433617243910605,1.6046799486182506,0.6244592694243816,-3.823078768598141,-4.197394610657877,-8.952978874681353,-13.389271395033832,-5.522702603186639,2.8005722921644103,1.0657051719737205,0.638606714856961,1.9183867721022703,-4.574068659087575,-9.552081201670836,-7.346546589909297,-9.855891804219446,-13.528053484276558,-5.540823612754892,5.009722890086441,9.055251833535262,14.286978906157728,16.64014798670765,6.918539945617314,-2.112048596388188,-1.9025759239118205,-4.354159274254997,-8.948607922897422,-6.053817628029407,-4.9090132399078446,-10.27640987965022,-7.832200454541477,0.6801623911029626,1.1907062937493156,0.16445439219807007,3.8343415639979694,2.1837564168402688,-0.40180455605899845,7.773133828063263,15.481268632014954,13.33272699766071,12.344610797975548,13.265973591579783,7.8623173007914975,4.443961493811969,7.499293644774383,5.3017850507665845,-0.3466404722054144,0.7421831801115772,0.0475500718301603,-8.161228200632276,-12.26323502459066,-12.967081641870966,-18.526565076560253,-18.35858440889689,-7.707221640231952,-1.6740043765403794,-0.8334936392928496,4.507836610196214,5.746912549413993,-0.6901286177808608,-0.7328356854239362,3.3270520108472237,-0.8861780635237122,-4.383658514907666,0.4949512315672431,2.7128166400774245,3.2943292131092083,11.194474823066116,15.26701677468757,8.294510123402091,2.612269499500689,-1.781838070075179,-12.832445360769436,-19.328767730750265,-15.101868124734796,-12.976424949598679,-11.92494461023437,-3.106141596477095,2.286340120576639,-1.2963602816976125,-0.2987671552895561,4.382131769474714,3.4559478299419917,5.506311553932209,12.221566715444318,8.924575697963158,-0.3215481919028984,-0.8606888087249407,0.8503796606227272,-1.6566857987375019,0.1613607463288962,1.8345534256435845,-6.461350943813928,-12.588023841919593,-8.635914182964337,-7.231381612705313,-8.114965654230904,-1.9412343061403436,1.116455421339121,-4.708604971998933,-5.877879719822216,-2.5600485021785078,-4.20014487100105,-2.1613232929970474,6.592052694151764,8.04944701194102,5.200533347905058,10.4315116328001,14.919535444334798,11.675269266306024,10.340758362280202,7.644964833167535,-4.397065824804926,-11.934184193943173,-7.135554935239984,-3.7664779011010645,-3.2775356608660062,1.9501095291931394,2.0380807444112223,-6.030631976204975,-6.20550753197567,0.6145133945156567,1.4920144414875152,2.630089238074325,8.126947461177833,7.000979380790151,4.58685744591075,13.38099557771708,22.59615072115043,23.268293028556776,24.67915350043323,24.13113923427208,13.201520901694526,3.872468499635635,2.9375919872642196,-1.4991077527632017,-7.33176625706499,-4.483770993219498,-2.175497600378513,-5.0670911613531,-1.6991393839137525,3.8295761894106772,0.7649632904580512,-1.0310289315502794,4.079145594339066,5.203031027840261,4.926106445054629,11.225996643358085,12.952429052998745,5.997162480878874,4.823099264910412,8.28979788008084,5.7318225141932615,4.561979030995129,7.118984254325481,1.4242445341040935,-6.387715474943877,-3.718818667753723,-0.7368099887272633,-4.101981411022491,-3.489134775693864,-2.192492195425346,-8.276992958783394,-10.246513228519426,-4.339982292576334,-4.440748230029659,-8.373913682291827,-5.619117771547551,-4.04663026590509,-6.904038282735803,-2.395547840833807,4.473182222040398,0.10047202042671977,-7.88808350011801,-12.26048955757028,-19.32394122916279,-21.133588190360896,-7.627021870499904,5.305557209306779,5.468437397724273,2.2563104605119673,-3.5049390244913674,-14.074340355017558,-14.913417586054752,-4.2585774453591805,-0.05355357803666928,-2.3173608250732767,-1.2151504302835385,-3.862375973866048,-10.260397459670425,-6.74415831480401,0.9264315885590304,0.2693311237274947,-0.31002211593736884,2.7254712141954327,-1.498585856703529,-7.008230393668472,-2.5635551756944905,1.0616867697765393,-1.9684699816214561,-0.031800615540017896,3.461652492152857,-1.9030326357294212,-6.632127052016265,-5.305116398321347,-6.695379908318083,-3.707852894148271,14.92603027726347,37.59249140546204,56.69523246275263,82.51212771713091,113.25336612365261,140.56204249616664,169.98745369933377,197.44668358499555,205.20055400006527,196.32070209598754,185.2348213902998,169.16733053325999,148.40004405868586,133.67940195469308,117.82678768101061,89.89322103072163,61.09627836937739,37.96562268782105,11.35415921624439,-14.146888825162504,-30.019199582350268,-47.63587026422662,-72.06171407890811,-90.8184683697994,-105.32268943629275,-123.84752355314043,-136.20808524948237,-138.8646971718054,-145.5616706591835,-153.59024764622032,-152.06669153833172,-150.39163237880376,-154.23433702780179,-153.63721480499422,-152.82933335668724,-160.269421192837,-163.59226184204056,-157.09187184349,-153.22018394226018,-149.8240532441913,-138.16298178284654,-129.46017164218785,-129.71723853920832,-126.80718816362996,-121.35025886324871,-120.22844981058486,-112.21541748435918,-94.02316651572855,-81.25547543965854,-74.33141981331781,-64.80029582623638,-61.207997239742824,-64.94205121775764,-61.00605379105304,-51.01528739552656,-45.21341103858581,-37.15065023932645,-26.319155743818143,-24.12104038931562,-23.691691791021622,-13.979576123157955,-6.084847904018622,-6.144852023962311,-3.176962686629059,1.0901104941948123,-0.5083359319210805,1.801435243397203,9.966416549762764,10.930109076715084,9.539469647564824,17.605674276096497,26.125553805923392,29.724094844181607,37.26269765597765,43.10678413435529,38.402969632479156,35.02815726290588,38.56950044061702,38.792638626899524,40.47720720776451,51.56795953669129,58.84080993676898,56.81489353157603,57.36364455978849,57.417524410192456,50.247420036397635,49.14045484123104,57.27928578894863,58.88514189042063,55.34909185453148,56.80531226615838,55.823551062805166,51.62971493546104,56.915515159258504,64.814438601606,62.11303231880834,58.64512541388094,60.17358966838321,56.177852371906326,51.423652204486025,55.280459455131194,57.17008913425878,53.687315333914846,55.964894815954246,58.35296614802166,51.55953617109622,47.39083858434133,50.4035797196419,48.40715243587282,45.17271136315519,50.15201976641148,53.74069141589393,53.37631438391696,60.1650418482419,66.4861349624352,59.850874223026636,51.0368960356854,47.43768329727645,40.89610568951396,36.62683972595632,42.43969798707712,45.16097351210481,39.07181656829646,36.93888254072057,37.151941899533696,31.12697457833205,27.890978046743697,29.65728327205844,24.149810441940186,16.63629103594201,18.548443500272924,21.363396222972312,22.002273601731876,30.48259951782434,38.822773620528864,34.85668523424803,28.925632516843617,27.183901918079428,21.402784013653918,17.54244695292442,22.660696982294617,22.906096118627882,14.329191293208842,11.321986843228997,11.979000608431004,7.2698227481793385,5.963818853934336,9.649590438434668,6.0352580442157375,0.9645726629974238,4.963097267591914,6.791991525989845,1.591159636410717,1.4061727459574405,3.394881169994768,-0.49032247443642296,-0.27228948715383383,5.177430243721792,1.9278477029357195,-5.290027651137159,-4.57831251549126,-3.31237655748989,-5.244128855295504,-3.0702110467144523,-4.608010381915675,-16.698122590091746,-22.770125874297168,-15.6440960416854,-8.855600755283014,-4.153516050064482,1.157656737209839,-3.321489646180916,-13.82732569549458,-13.151945796864815,-7.563407235079181,-11.280473649473269,-16.738077914535737,-18.852196149360108,-23.38208317715942,-22.07132053480423,-9.769829828812613,-3.239521376430683,-8.264877688239595,-12.212137111860374,-15.854006659304595,-23.5876269596089,-24.114645596064932,-17.069868807944307,-16.335654031989687,-18.023894045995295,-14.052678603902118,-14.655216427044191,-20.13051436835267,-17.294989855048957,-13.068966630161384,-18.215429960466203,-22.03331868530178,-20.770567707661364,-23.95516670758574,-25.08107189396965,-16.991408499081107,-13.234861779085433,-18.053872102012576,-19.326283867306394,-20.170738208166952,-27.474036903864885,-30.031291421355437,-25.745623465037887,-26.847259127061623,-28.23403523596245,-21.399048781456294,-17.66439816091003,-19.77424844717306,-16.027200970199015,-12.264822881236094,-17.424848500793,-19.79626850565305,-16.688218342318287,-20.337733982255003,-24.392702502590687,-19.240073276708568,-16.63310516557486,-19.709197600178474,-17.22993419526121,-15.859504966534985,-24.383179394747337,-30.07165761312094,-28.88818779429504,-32.12851137788103,-34.24071294692474,-27.011805015828344,-22.410922567473232,-23.33270843148228,-18.21722125762774,-13.349612874123052,-18.36909027209909,-21.886612969468416,-19.339065707223362,-20.858907292998904,-21.530463765290882,-14.362959554606523,-12.040657027075422,-17.398361479804553,-16.186484631620235,-11.281201391267754,-12.956525712061323,-13.930324641666502,-12.692689021146943,-18.21965835585261,-20.982703971178584,-11.138015804776003,-3.5793006418481284,-5.535114629010905,-6.078243630635214,-8.191700418615742,-16.871892550155092,-18.643103974701862,-12.13868285327079,-11.452397421668472,-11.50550877747461,-3.5288639868952787,0.23996606043001972,-3.0814005846434127,0.007810598913043254,4.71732424984255,0.3721947117084521,-3.8949819992114296,-5.164991594474017,-12.143484885311222,-15.543676339867222,-5.765847483874608,2.7253165174710388,2.4095109923570415,2.96517645205638,1.6660062906668882,-5.5057988492959815,-5.400692539506169,2.168444323770005,1.7167081528577912,-2.103378895505577,1.0861350660143425,2.181878402958364,-0.09009026674098353,4.854404710589728,8.94270046425362,3.0050727183796755,-0.7567301153827432,0.5108656866920223,-4.854002556097031,-10.26607025775537,-5.214046634771936,0.8883270314046734,5.180230205253462,15.529453024336952,21.875152969753767,15.017725464901375,8.917428797026465,8.461315782769399,3.1783357112021684,-1.1168798883782145,3.019714457219864,4.297486184095226,2.0220506339447546,7.924125654406263,13.786596078025898,9.176675445185252,5.58101269818792,7.043658553452185,4.195939409529117,3.5719692483341436,11.555470174674054,14.824581039515238,11.975587192149092,16.720801086186302,23.673205866988564,22.37454351234809,20.71047402328628,19.630400411472333,10.675577450939752,4.281514845611483,10.217815217522059,15.08281850301869,13.630188101992461,15.271195942461098,14.191898118960157,3.937665306055452,-2.656960792736449,-2.1764392442167537,-4.689201342311951,-4.5238044762299,4.1689941238943256,8.068313770477955,4.945157827388574,7.273179504947664,10.195336065794239,5.835145756489135,4.3795509654446105,6.458819357322144,1.5414129084613157,-1.6789536069905813,5.742927336457219,11.28578004142032,11.742291205919244,16.647451786571654,18.354533123612583,10.245786260778345,5.960459134207544,7.45413825971524,3.1178344410764613,-0.7616449798043945,2.9133169083413812,2.9301609216387954,-0.024044987951209906,6.709885235012691,15.042568300078642,14.527160979225613,14.69795103213599,16.087707415290463,8.997201531648688,3.1353749289689667,7.6907003475469145,10.698407398799155,9.88996039637631,15.509483494091931,19.812685391521846,14.371100213480332,10.776703321526014,10.671055048613168,3.6722317843837504,-2.256177392357482,0.178637826860367,-1.8203140612615152,-8.65362762926853,-6.60197417705594,-0.9513455762115659,-0.03469986507727052,4.977738848119381,11.690591763849149,7.503353300909164,1.0142658140739984,2.736895474025042,3.446964436359989,2.0021880574574116,7.361769701162744,10.889944775246246,4.130091955312187,-0.8909942303014723,-0.3439652860010687,-3.764966446954624,-6.015978799292002,-1.8039043582691023,-3.5086269062888342,-11.05444765961586,-10.219482516276507,-6.283812601069593,-8.402974972094094,-6.86750342531095,-1.7249065975484557,-4.543641741159492,-6.66131410906641,1.2591334885169636,6.674636170648013,6.767419017141626,12.286655575481335,16.17274263524105,10.653164783026732,8.273069426445215,10.560918035349804,4.673337388822722,-3.12509828963912,-3.081169596884818,-4.82196954018129,-9.495094860009129,-6.6679661016042004,-3.49306219938064,-7.569977234133646,-7.9635854984029795,-4.35646082228859,-7.785549989893347,-10.79312322581335,-5.080988409191784,-1.322764214964307,-1.4728375667291298,2.607699124369011,3.490851179725588,-2.9977502627420582,-3.1986854114724235,2.6606148274259005,1.0392409900774842,-2.93695133081208,-1.563567640645213,-4.08939185043161,-9.300530941997323,-5.969951771184714,-2.1775424970614576,-6.051349232522317,-6.404317823516488,-3.0815188465811723,-7.654445355021085,-12.576814055010873,-9.481541402553951,-8.969542458145598,-11.428701411783326,-6.7173848274404575,-2.9942918896098787,-7.344308480257815,-7.398342464111842,-2.653785191063622,-5.477861678658517,-9.294187766899821,-6.165703158326399,-7.249634598278262,-12.36932549168294,-9.295363868287913,-5.571326954595403,-8.938657338590422,-7.425049366574736,-1.5836830751709852,-3.946994337882864,-6.542994366324778,-1.025968184345695,0.7918216714455544,-2.619899991782893,-1.5057711365343425,-2.9663681841933993,-11.226558657703128,-11.678641978888983,-4.356559361867196,-3.2179089102944998,-3.7598677301713463,-0.3092201714158518,-2.9551760953218142,-8.570287514014685,-4.285521544103823,2.2016182016329715,2.2219354236548083,4.542347172486031,7.203884388436889,0.18107140921791354,-5.733338428718237,-1.057651574222633,2.475517265052762,2.83635862823165,8.770552157309343,11.779559520562222,5.9971138859698385,4.412883604104204,7.1161432644767695,3.0712422823282632,0.5281617945910432,6.746453501819747,9.11030504134356,6.124751719157688,8.274514447586448,8.670427419615681,1.983044118819084,1.3290915488096329,6.364972646203589,5.092871260055703,5.296321063370034,13.910168206325363,18.08294168792893,16.49641665248904,18.940805678401777,17.72443575381184,8.154532336302458,4.089699512368117,5.456360537716497,0.3582114617747494,-3.8464444883316453,0.0855991425161986,1.130591885979432,-0.6337407722660787,4.6748899905461645,8.245356551809184,3.100504161214186,2.0572692050734065,5.816941052865801,2.9466526338035672,0.6778175920244738,5.6152506940439615,6.194601475654103,3.668788257638243,9.39151440212356,14.683287390662507,12.126791728184664,12.332111119615146,13.001920140206186,3.7562327199457757,-3.849647580333177,-0.5382861362258837,1.7606390978383133,1.5067433192903439,6.217851510897216,5.964422044732858,-3.360417648117291,-6.224227910102934,-2.2444101961331633,-3.171044941592167,-2.0953596476501746,6.184351080550814,8.985476427060174,6.799923897871593,10.43105016523669,11.855515108984422,5.476274792720743,3.912935592255738,6.042788529217936,0.45525670797847884,-4.64077989747258,-2.8886750500824876,-5.460590967537005,-9.678675052015745,-4.092428302547609,0.9847735480171443,-3.5295330758882946,-6.575257837145675,-7.176400595143204,-12.321379762979117,-11.377848338979792,-0.9163000462774509,2.1726715070303495,-2.3536271754471576,-0.820860542453838,1.962210770820175,1.0106546498585114,5.931628321418285,11.709500993574267,5.952520849924442,-0.6048982931470652,1.2886450121165038,0.518925477143362,-2.5999339208752685,1.1948850517851906,1.5739557075249828,-7.982883364664644,-12.99156799540578,-11.676895295428864,-14.43023105604244,-14.354835842453394,-7.662186438740602,-7.723490564033196,-11.984120090830137,-7.288114517472122,-1.9018338809397304,-3.8466477781337973,-2.9040911973347985,-0.576027853408509,-6.576023623843265,-10.615277023381527,-5.884003243154673,-5.169653698252201,-7.495710397292612,-2.0724193712450734,1.347430200690932,-4.1122003652569745,-5.759048138602413,-3.408397467856919,-6.525060256664881,-6.950010973089951,-0.3447423671565515,0.06784295760503145,-4.798169633788814,-3.4616629657716977,-3.3657640742329704,-10.479385997603137,-12.907837145645493,-10.817999636470484,-13.896538764682274,-14.395845668823306,-8.148897787230904,-7.740736982610583,-11.035801566449608,-6.638584408647583,-2.887596306617974,-6.328759692039673,-6.702850349058497,-5.504434896995969,-10.317850427072123,-9.42691789316422,2.684669484135461,10.760309612281663,12.475861978882879,15.881780199081259,12.79489457400682,0.9823400761999093,-3.891469421418023,-2.130051725760734,-5.4529095656255056,-6.7166416246157254,-1.4790231234394953,-3.0196800800426455,-9.445653305357995,-7.615385991578919,-4.659852391622946,-7.728751537993039,-6.999544386150406,-5.116610726603138,-12.000518172737099,-15.545765020649577,-6.423584869669141,2.4000602660036847,7.3659429320221905,14.560938252899913,14.316074488007818,3.5892790732365447,-0.8396227303234812,2.8457890069210174,2.917681561288685,3.728906882763443,7.782615438829573,3.5115136073512643,-3.649123389555786,0.9752117813473156,8.863698436697806,10.508604830595711,13.039278438663827,12.662761796971795,2.1872620603487163,-3.9378452142777256,1.95157618514701,5.84491585456325,5.895335868852967,8.861476593710073,4.886929365273575,-8.094200235296144,-12.90759884819981,-8.40452913205307,-5.657430943245479,1.1325808113620541,12.800506842360857,13.026483240629005,3.893008508625465,0.11016135728775223,-3.915537409527539,-12.162174191682595,-11.663684912511574,-4.842151395708824,-4.179991733022108,-3.050013574318249,2.453639846555986,0.8521832406710734,-3.5478808413369514,1.8049180038328703,7.71826877947404,5.372427936424819,3.138292360979918,0.09769427286021237,-8.656558276239911,-10.079483491515374,0.4771648697037181,6.853088160325261,5.822587653038282,5.4651044959800075,0.525381134328571,-8.232193599858437,-6.300265719312023,2.0739048175652477,2.3451315062878,0.6049956262995405,2.592994663090922,-0.09503001149758195,-2.0425956085907555,6.3285747899189175,12.413785311908594,9.103095906418528,8.78579247789946,9.582644404687308,1.9624715735460154,-3.1014432894180857,0.3162566931985622,0.3055829283035453,-0.28184968725883025,7.803540915296537,13.004846902704475,8.91336058841986,7.772939381949858,7.794990195645132,-1.1681645865541572,-8.605613574473777,-6.212310905064757,-3.923607818369998,-0.7889334512972077,9.7612750927532,15.201027025075813,9.709456444482925,7.861019958598302,10.448789295726629,7.044853626602014,3.879862023060324,4.454970714173389,-1.5050149391915815,-8.637122320488027,-5.040728397586641,-0.3918951871050196,-1.8838690922870245,0.4308884756281617,3.8659934937081304,-1.27117235393979,-5.542371286987034,-2.7484466325241192,-2.766661594046246,-2.5393988840129684,6.873704389747097,14.224437354390815,12.268645398463082,12.299114291988593,13.535334603137452,7.689420282121354,4.377055200911097,7.375176389094882,3.416159162526776,-4.562140628120025,-4.262630359244886,-2.578166391769335,-4.02333463517559,0.6288963228257369,5.258020975710756,-1.9227294858843305,-10.455771647736634,-11.444688891288953,-12.863390356677739,-11.970215661401255,-1.7464217513583447,5.216004188746568,2.3945009037870966,2.3159174058004917,4.553831848782977,0.8696783964504622,0.4217142680598046,6.355456813208565,5.144047558240274,-1.562462803970298,-3.8133910299332996,-9.049401909693513,-17.71844895271526,-13.838594388924946,-0.7495454327980373,6.058388730506556,9.861020061891066,13.422137518169194,9.51039313046605,8.171181927354764,22.92650515259255,43.07666727332645,59.68006253170922,81.10824051757132,106.06868335208932,127.84328649680492,153.86958623937235,182.31972817480505,194.56699954340257,189.6500294667544,180.09374733735123,164.1231894489402,142.70256039231793,126.74744165116488,108.72278350578132,76.57616725097006,43.43245807259077,19.88682711632501,-3.859743208548924,-27.515780828421036,-44.6002782918357,-65.5621271554705,-92.20902574108007,-109.16227253537116,-119.73499040957626,-136.50755138102704,-150.6154732414223,-156.0996392801511,-162.9582434762661,-167.0303743976591,-159.63707501580623,-153.14960533361784,-154.50748031233007,-153.45268541446586,-153.26600686552723,-161.6814421884281,-165.68805364517692,-158.49488889719476,-151.9235501513069,-144.84178261563267,-130.53982730101148,-120.84519801806006,-119.69508720984638,-112.86719240448366,-102.08962397174854,-98.05181443390714,-93.14737939513734,-84.01424286365108,-80.5967014354117,-76.29813686705636,-61.170812935425296,-48.78571450391718,-47.19507133205629,-44.360058676078545,-39.861761013705234,-40.0168894858135,-35.17186513782348,-23.717061524891946,-19.287835969288047,-17.59728469875408,-7.084841208894596,2.003675491594409,3.314503676409386,8.200268616773757,14.403719606766254,13.722904943936221,16.57305059645033,25.87598644687175,28.669202784747746,29.34107722582716,38.512769218905156,45.617910237039965,45.354786298731526,48.73399641987546,51.72482082938508,45.8340135635417,42.951188334668956,47.361205130337936,45.924831758214026,41.65709892878576,44.51628002791277,45.316841590123296,41.46904704269505,46.06708058906478,54.92762189900994,56.77001372849219,59.76327996087883,66.48628241214217,65.26171478684688,61.83846475887871,67.73619364831266,72.82270266433059,70.82195806645744,70.97628810384711,68.49854333760211,55.982292796853685,48.39719293071732,52.30003558963574,53.04262070818393,50.52262123047597,53.23770559869928,52.21665776693995,45.58405375248611,46.87796661060267,51.26917824162958,46.707699486011705,43.33669410020102,47.57942997836525,48.28712987794347,47.23113702667419,52.16399460037519,53.11177719408265,47.36679363411156,47.67831608302482,49.25586273437602,40.766232742630955,33.17642443636003,34.18317693470533,34.25653568385878,35.647609558124046,43.84739782725614,44.97511829963887,35.05383461252423,29.990924816558724,29.198845517168834,23.284412926349077,21.42232156129337,26.680654959565928,26.861024023073337,25.6734602947001,31.844642458975397,34.40432434149766,29.12804666235095,28.141834613185363,28.170192538194108,20.59636269356934,16.32433467552002,18.614677833172866,15.185867455643223,10.994693475747784,15.538404728391457,17.565388880341974,12.722039503919468,12.831946143146515,14.165331053075029,7.758484801755722,4.843084076203247,9.883591763682173,9.635006312018179,6.258606052686893,9.428560186843715,9.881938625946464,3.7495903436572613,3.3075208331384944,5.4907878910033,-0.029600530246071344,-4.687417205508551,-4.66623589035542,-10.826090500490407,-18.241757782339764,-16.290801394495332,-13.819766962109075,-14.713721802669069,-9.803919576767052,-5.857634608831593,-12.227240321327422,-16.91789414008188,-14.914007882334236,-17.446601606854784,-20.63768001926095,-16.678038945004896,-17.014862904538337,-23.75739929783592,-22.378526358811218,-16.884332917050237,-18.84109063786671,-19.647238697124845,-16.494826093967564,-21.136351313656093,-26.758372446693084,-21.190706048319715,-16.03531262999572,-18.47744111579538,-17.779634077787755,-16.851711639178095,-23.719422811983875,-27.398959928726786,-24.874460547792488,-28.893712955037415,-34.02979853081845,-28.92323514960819,-23.815332083573082,-23.961383391124873,-20.130653069872952,-18.66293557293457,-27.75772159651779,-33.31589074831825,-29.20117084093681,-27.39786000326294,-26.129157462338956,-20.020616097378294,-21.662636648397427,-32.46946161681632,-35.215409920899404,-29.962872869031973,-26.869847806201143,-20.432777911784946,-11.849403913785023,-14.691589579612401,-22.658355610855786,-22.417454306557723,-21.354708195668245,-22.997905260705163,-18.028185734086833,-13.486799568723312,-19.87156768793587,-25.678050964838167,-23.92321516690605,-23.554714276154364,-20.996289010597202,-10.686095386761362,-7.275034857077888,-15.82809580854463,-21.027882864221045,-21.47865878633124,-23.74132922346061,-19.427435886995617,-9.828061599983245,-10.566942545980261,-16.740402086806185,-15.167508551156622,-12.960704886702745,-13.238642655194155,-6.968025454670667,-2.325946946582306,-9.664436559599825,-16.72652733436121,-17.776790705827793,-22.83025871932265,-26.69030351559769,-20.73296013506654,-15.999249757014573,-15.998316175239008,-10.081876708414988,-4.570935974973264,-9.026658879473386,-11.81423927334061,-8.572281220076071,-10.822254283218706,-13.984055399868343,-8.877116909564988,-5.597711114844693,-6.908560803204733,-2.5877362081831405,-0.38578107899450176,-9.393160012386117,-15.497956615004169,-12.7654886252548,-12.214338433690326,-10.128802131914151,-0.009265482784184265,6.1966345070938535,5.705240105229922,9.430115603356782,11.073016924183325,2.3507970470422612,-3.610907672443541,-1.6879882708402416,-2.8160683705581153,-2.796181742389937,5.809515344988784,11.048817070487473,8.756823281599921,9.580418557844816,8.974825532432503,0.4413174567161673,-2.5849496985932214,2.7211115970679907,1.7124271930118071,-2.1233458265863954,1.523912013566521,4.15359731435976,4.345201782578008,12.449964036489149,19.48150019725488,14.936327938368752,11.62779926209716,14.285917103043229,11.651677301848167,8.23635097603483,11.091187541050388,9.475079052230189,4.125716508343999,8.696266450799316,15.551308833344173,12.50336392813266,8.262690915564717,5.696130046534432,-2.650562219792445,-6.4175345624427145,2.8110657962521364,8.967452438394517,6.024224248299419,6.21939432699639,6.26615622662235,0.3406051872136753,1.263769539205415,9.510428225370543,10.217237667618793,8.651067019376104,14.322953569446398,16.163096108085412,12.555544937840418,16.174028357589144,20.159954668392842,14.434566375127261,10.533302628635642,11.927238365017269,8.133725682885453,5.322910794916427,10.55060965386871,9.908557629891579,0.1787502311734812,-3.645251565038642,-2.925648524035572,-5.370119660058956,-2.6432252128201537,3.411608759814685,-1.205452921489151,-8.726067234618071,-5.498491295059766,0.30107290427609357,4.049211996816496,12.201771683712092,14.982616102555646,4.408538368429143,-2.9809431981944665,0.17762737770021797,2.7524904333663267,6.332427911779417,13.585508342873247,11.492613538227243,1.989376313240775,2.2871610116094794,8.15403517082603,8.045952428560783,8.780620038404631,10.141387954642607,1.872210669561857,-5.961390744556535,-1.7252170608558572,3.0513916490672757,3.3678025495504302,8.087199938626496,10.20567299699773,1.9356513767060184,-2.7340279779059418,1.4523069043134311,2.489482733948771,2.7230326927906403,7.7845722984220656,6.465291624268426,-0.43985968141846854,2.5780471930408964,10.440611072654306,11.195131504821473,11.837747764104236,13.587981247749656,7.472542983238923,2.923363489350551,9.780479634531336,14.59047977462944,11.521723934180239,10.707213745736484,7.048007571503517,-5.967579968046957,-13.844591214940902,-11.551322979426761,-10.627822051147344,-7.022146250002785,5.526754799021486,13.23495578513626,12.726509215041242,17.364263326544826,22.640282621819956,18.45287309499437,14.283563413133809,12.906195951144777,4.818683363907864,-1.317630863777211,4.562493641133834,9.428808729741906,7.4712770676664295,8.403224570547094,7.308092186290194,-1.2559621269513612,-3.5316448678253245,1.7521620489645082,-0.167640739424064,-5.168714167411038,-4.324197556921567,-6.4979066329479265,-10.382127252936478,-3.295943600973934,5.214969281507761,2.2177408536015166,-1.4377657524900134,-1.01271493236056,-5.832470017456714,-8.448280934128675,-0.37574665695080833,5.394573677219345,4.968723212522937,8.60727143895125,9.536542091936381,-0.030196934157894706,-7.124038715772712,-7.203250910551754,-10.018242325493555,-11.069088125487959,-5.434965216162098,-5.366553584439917,-10.53220777529974,-6.531365512828222,1.5565927725545685,3.853002386644377,7.573203837014186,10.710715609898898,2.3369654665157222,-6.534420706325013,-3.366449213209201,1.3358926166491307,3.051815701786335,8.945948401364761,10.579899933406908,1.7432144844156015,-2.5283951790281582,0.9652373405603405,-1.014447573169599,-5.238720019512236,-5.512028264413516,-11.454408827348278,-19.759785564304334,-15.63612535640646,-6.8304731918935415,-6.040321086115548,-6.47389769353917,-6.948887013888104,-14.67103812670452,-19.073877065330503,-11.086128301719716,-4.077930341837158,-2.9876240104145424,1.7516764973820196,3.9994625824509407,-2.9064240576846,-5.454557165627602,-0.5817816071892994,-0.3029182375545467,-0.24509325775066296,5.337237321710109,4.310629902062726,-2.362922944887738,-0.04288399656493658,4.671498410735677,0.9634561764050709,-2.4772280107572415,-4.865262107846959,-14.910770044743208,-21.72058687659043,-15.36727271540378,-8.665788437498914,-5.778616457389324,2.0975344635368667,7.7200809062830285,4.919004792301484,6.388444239393853,12.53072198512356,10.177008945325383,4.8716618763867885,5.2941056199534415,2.381981782790172,-3.385252554775562,-0.4106597291455145,4.102152809644447,0.9865587697355718,-0.19036253540811143,0.5366097795328436,-8.167622415355657,-17.284347445774223,-15.146416733327445,-11.527029336035831,-9.63313607476544,-1.6406226201490215,3.719694290280999,-0.5304437712135064,-0.9240078048856674,4.466337855687659,2.807861045503672,-1.1524877212854263,1.2231838858521769,1.177603563234189,-2.151925204413896,1.1464464389686264,3.7455674174802436,-2.6274345690745813,-5.999296564862855,-2.976956930832784,-4.797179168482283,-7.551744285807257,-5.12658413333324,-8.003985162998461,-15.18344253803213,-13.084632573936677,-7.388441806798633,-7.173642588200188,-3.6307443536082724,2.5344311807624282,-0.17156681423798315,-3.667263600834189,1.2294584017415993,3.2303757257378436,0.9291480368131435,5.556635745747103,10.353468639954569,8.29699044214253,10.792888297467792,16.618905125950526,12.312951065931475,4.635875534616241,2.906057123198691,-1.2750569240053813,-6.241157367875668,-1.5783406658132288,2.7279556396827505,-2.508006916257617,-5.752972371036889,-5.110417057633487,-9.559588904783572,-11.058115008016465,-3.5843539304999483,-0.09771806649345385,-1.4582336802841134,3.8594437553253287,8.918969601248932,5.5219596691014114,4.104779026166356,5.561909671359381,0.019927678590174747,-4.12652155156402,0.8305345823753436,1.7982271360694297,-3.2486932645868625,-1.5080638496120085,2.7185402223346955,2.5415094826769393,7.283601472027102,14.055413357337011,9.349650201756013,1.7380643470454724,2.792640342335603,3.733153832796911,3.410897762324953,10.757514351244373,15.835035216084101,9.491098376964224,4.60604835210375,3.9238269306801095,-3.4225343340234584,-10.243175734923236,-8.55998072305307,-9.145296520876308,-11.509294934274749,-4.0614988960142835,4.296295637729331,2.5877477071298767,0.2906704147046676,0.13284791203887625,-5.131203658366575,-6.378127596288831,2.82995127188918,7.919845844530433,5.572649705713978,7.329385541430115,9.025855422429442,5.454562897138171,7.316690911343652,12.088711855248562,5.934387857241493,-3.1134332891540497,-3.268989677769441,-2.1138412221730714,-0.652227038443111,7.768573381381413,11.31740774482514,1.2933549506209499,-7.681042991664143,-9.566699015355496,-12.286098422915193,-9.852441719793976,1.8206138689218858,8.314863949350409,6.945498940277892,7.967176812345487,5.630108039399538,-4.053902448056469,-6.2532296159681025,0.3385668737859455,1.9065771624849028,1.7405104891459007,4.3729718990527005,-1.5151344112656955,-12.27891022485391,-12.327487207647955,-7.866041802225391,-7.726744645328817,-2.953353705737645,4.128784730622288,1.4406363302253555,-2.378486588850299,1.3757897082813122,1.2369263382669133,-3.6311265228721807,-2.2778956141578357,-1.4909694206673159,-6.924487401481114,-5.737795730636744,1.4160119116092131,0.9773709051669262,-1.312481613433526,1.7760465633524043,0.18439491337570546,-4.62104656608709,-1.022925694403632,3.043467277458232,-0.6847749707373145,-1.2629707502413923,2.048703043440437,-1.3604703331970616,-3.713471562544611,3.0462153548318494,7.068671910127863,5.943371728338684,9.478126306534763,11.049130219975304,4.6821498974106115,2.979645678550432,6.39799625697116,2.110160270914299,-3.8597249124036996,-2.6653599119936806,-3.3555119315209616,-6.217736532861801,-2.61805337125846,-2.0199320583844727,-10.984897896706299,-14.935099463019158,-10.85086602631947,-10.162189263825063,-8.584976471469187,-1.6711225221736392,-1.0700191068460905,-4.7061933412197305,0.6388168416107156,7.060195605461271,5.132690097493141,4.657867268802421,5.878762594284212,-0.07535017167450864,-3.223800928915835,3.8124981330412555,7.397445815212805,5.022944898510971,6.635652194793514,4.809502297108113,-5.88293029548106,-10.549921742246342,-7.269453684946077,-7.854381927199893,-6.370826387699735,0.8404221889995953,-1.018065695286962,-9.363534329610674,-7.176907830644768,0.1749386319720876,3.175927353651149,8.617403210734086,11.894995818419725,1.990718030447029,-7.513660554797035,-3.3514504279113178,3.4979009770158234,8.79818741781009,18.296924236172476,20.173453608609243,6.898198311380131,-4.540665462849199,-7.18770690362525,-10.110692858347647,-8.845878359658247,-1.0710059939729124,-1.8532720579081305,-10.529502725607703,-11.286213029513181,-7.702123108911058,-7.431689042357853,-2.176588165883073,5.668999180294389,4.510184093347092,2.605774068557773,7.375161442018927,7.161382914840615,2.7504764791767817,5.9341644770285775,9.178348859954367,5.955771610052142,7.920603579732933,13.300868571786696,9.189412201588022,3.2623827404756174,4.083752175094106,2.1010813869975444,-0.8164255859935856,6.045066664081276,12.016862232493462,7.361459417558585,4.711194775780113,8.256272792729145,9.823931688923896,17.292424777784206,38.47540394391137,62.147706598191505,87.04368921627908,123.54751748868969,161.22651150424076,185.6820083153316,202.3200553860599,208.9363296307867,195.26737972723205,174.36206776221155,160.87225416195187,146.801009421765,131.16956568745815,122.0594079702037,108.82949293945424,83.94450760207758,61.07149047735347,41.430675349811764,14.285076432288893,-10.963496668219273,-25.892940562817877,-43.45621300839498,-65.39296224603859,-81.2222482944946,-98.12659150479212,-120.87249840116498,-135.73660472898067,-143.93349807465617,-159.32253983568802,-175.15891618305665,-182.85768627171117,-191.90551918776282,-200.9687014236396,-199.00295926987394,-194.67066419658215,-195.8386922430543,-191.72979868650455,-184.03323959301457,-184.67829215564188,-185.55117586946054,-179.29607169723386,-176.3302693634191,-174.14991318353745,-161.3018953673176,-147.0818896195127,-139.6417022287535,-128.97401196882663,-117.03930595505592,-114.47437250802925,-112.24848321255377,-103.092251370158,-97.57431719397245,-93.32216641549178,-78.72617457579584,-63.02635526495053,-55.26224581821804,-45.90210194259454,-36.08003630735542,-35.65121497625415,-34.469903652074336,-24.01806345236171,-16.45138147053979,-12.605552837218623,-1.6955940033689005,7.831157847906159,8.188118018832462,11.238252662053135,16.93639060436479,14.663150839181256,14.242215596255228,24.327114616666993,33.07958531498376,39.230551236782276,51.034864982645026,58.16828181578995,54.174252611331355,53.819161889771934,59.42144250377979,60.48811192066765,63.511259849524336,72.6620909282077,74.73950001279668,71.3433195434151,75.11490327850991,77.9624334185832,72.31115939017785,70.49826533979775,73.55691626455899,71.54876349366218,72.03608662674107,79.09134966342054,78.51365056131817,71.70024000411168,72.76500050912604,76.16213835857528,75.53340200306448,80.5688895581122,87.45466927630589,83.80140219931397,78.84977694223005,80.71828768324413,79.09459999089658,75.93914625539358,81.1208632722702,84.45129677902216,78.73950418648592,75.03429684275139,72.43077429648571,62.99048432048063,58.050424865776804,63.46426073121836,64.51926657855864,59.85253187698467,59.485306129451885,56.81558529088353,49.245475997824464,49.48393258444784,53.47863780539757,48.8336306385429,45.051898956676,49.5310377404685,51.06438049577891,50.14455773745724,55.42659649358042,57.97839540839506,53.22428997820714,52.67854644164347,52.653880375379565,41.76588991332267,30.505405668719188,28.18069205114061,25.987070390802867,25.011485168736616,31.45130985068087,32.40406465670263,21.238274567592647,12.368547219191305,8.40864468788414,2.2712015931315186,3.6805173841359724,16.19814905089208,23.44019179848812,23.51239273891973,27.148308685633054,28.27030518590466,22.769207778742476,22.217666213146124,23.03810818614902,12.314921152448218,0.33236728051299913,-1.7676432121608552,-3.3701931887392105,-4.9656170763651994,1.10428260078065,3.875785559414181,-3.5274609565546444,-7.845941684344575,-8.027939903495337,-13.511883357377318,-16.26459988070717,-10.984488126862528,-9.6162832270406,-11.498317134987618,-6.887410374367219,-4.377458931028846,-10.600390589248349,-14.311309817707633,-14.949808828051975,-20.563813535069404,-22.15453787313284,-15.820098518023022,-17.210605813854716,-26.807379462820055,-30.688280617574087,-32.188462481577346,-35.20082989014753,-30.042914586870342,-22.575663616456744,-26.689714454457377,-33.18200737664451,-32.537127924861814,-33.511196538395595,-34.50216543992198,-26.9223536078307,-21.552631021964803,-25.744822214885055,-28.025813979657187,-28.682457072180966,-35.8361932845951,-39.03853922075109,-32.5899489141713,-29.64642345626396,-30.63782105740281,-26.757394661107277,-26.25175771960928,-32.369637353893815,-31.07102056696334,-24.61438474152927,-25.862227530279302,-27.34984801486528,-24.046375521849228,-27.58850709628546,-33.47368651357477,-28.799176590519057,-23.194133156236692,-24.181260601245526,-20.870578270021017,-16.03800582685133,-21.333120845397747,-27.716403538735104,-27.432034048332863,-30.2803750804817,-34.12051318959543,-29.101779457102484,-25.213418947371338,-30.42054674679392,-33.24529259895054,-31.082427943327154,-30.644496831342757,-25.486865472201174,-15.387423884620102,-15.36572025430123,-22.71637680256051,-22.578505469429707,-19.385580758152287,-19.26514836501335,-15.05108464199769,-11.683885980248396,-18.41487683057424,-22.74606482762506,-16.538022374704653,-12.765433633140002,-13.015108888233254,-8.910880345483545,-8.922747739034778,-17.4057039203551,-21.04145705071915,-20.043119149242756,-23.847848351138822,-23.82336019782244,-15.918228033440837,-13.995294279141511,-17.60309569630649,-16.014568197598443,-15.367621756647564,-18.286310548392972,-12.876820238348436,-4.036886118486073,-6.136177906117572,-12.094305410226147,-13.736712018989472,-17.897699587671468,-19.80674407077117,-10.167529236557309,-2.078579618678816,-5.574473722877712,-9.15998534062244,-10.331576427723407,-15.3640580128256,-15.204001149481954,-6.8206460602637815,-4.681203269680996,-7.862475113007595,-4.669876276802762,-2.3673604937852613,-6.778040177223797,-7.106503526823291,-4.654121962302888,-7.956612337997551,-7.015825243380004,2.7822379358129545,6.39304357949734,3.2346618626735006,5.169152857366439,6.6687125655396935,3.953321137695036,7.878020381627784,13.507318651090179,8.551967465699674,3.1925658060661153,5.220634563275909,3.7802957327193463,0.3348543744676522,3.8214411573022673,4.670887353664473,-1.4952451383714287,-2.3500125939886454,-0.8112470918076833,-6.705609316394163,-9.263516561320825,-2.500741045710358,1.3407088234016276,2.831850790747515,9.705016962082649,12.851431221258515,9.663413183174242,13.196395567911047,19.170910349154347,13.908334366579258,5.033958970705689,0.5994135590035881,-5.121866588767926,-5.517895522666317,7.3602843329999015,17.924955226541496,16.375655104045205,14.270368254618743,13.113898301917951,7.318490392078871,6.378093572365078,12.39037119386898,11.693506560652198,7.2695114896245645,11.15463860006436,15.55576938618154,14.428233248734003,16.943654984226367,19.278015590721353,12.289377149290267,7.119783457380858,10.461804057520343,10.945623686477832,9.843601608010394,15.522992741798792,18.005452615306467,12.465554538350704,11.545190993799508,14.17946231878817,10.70934326284512,9.161103762907183,13.508637773630738,12.171708862984989,8.695097673138973,13.415551645147534,15.743883117571848,9.597736440094476,7.332076988206588,7.770744662931447,2.111578493237255,-0.1772143568459501,4.72754864964669,4.280566726220884,1.8196821224878847,8.246842589474763,13.258362704099042,9.821282318870722,9.559397482062336,11.479052712765473,6.238610131884029,2.455341478262609,4.532798076137568,1.8273636272639444,-0.7026799215553636,8.283858486452157,18.00976425569806,19.12493137078201,19.25853718171241,16.41140346355559,6.060357749074128,2.734178392984288,11.765276243960695,17.790915906048532,19.071276284509466,22.42654402716109,18.34426416112843,6.118561050791899,2.895869763761593,7.172056633945352,6.401343190415665,6.834617992478024,10.114590357273022,3.5668002654882986,-5.801848849014111,-2.598710122969976,4.557287704534722,7.133917070190378,12.027549318612662,13.483712673343403,2.916479863598897,-5.725757346510386,-4.296007028324835,-4.08687885984577,-3.4241682266032805,5.2268419238300625,9.808900010709962,5.164942061489274,4.1704687047034925,4.618841926250673,-1.6627458108869684,-3.0193828334389887,3.7049872624404365,2.73505833339529,-3.8306715046899846,-3.254339243210226,-2.5302941131837984,-5.232716321860243,0.4150247378605121,8.361685785450597,4.398086573138595,-2.0740906283000142,-3.05043876180664,-7.40009724026115,-9.909081273451351,-0.41685911827354216,8.121939496976283,7.185288762117763,7.617503912421186,7.615771508976907,-0.3172731684507917,-3.9304410224891795,1.5198678127788932,1.8130010186742707,-1.6067476144935546,0.9884697189766216,0.3865246341334009,-6.512621276864771,-5.829330355542355,-0.5086752565869248,-2.7732842652059944,-5.1486020850350345,-2.9913568915957898,-6.25676070168055,-9.523122508849447,-2.2011316984633402,4.3969818966325,2.831904013325525,2.645462312337316,1.6349895743337852,-6.478427532160881,-9.988902136336076,-4.764529601281942,-4.369677980730036,-8.069729635424423,-6.759196567191902,-8.208879150674232,-14.365069112817421,-12.28878267353135,-6.3678430074306736,-8.181820637514084,-8.737873761534036,-3.772257926894765,-4.616468107645732,-7.363596953145873,-2.7601753318660243,-1.0300697044634473,-6.0289358544707,-5.083430930313714,-0.62100573012257,-2.215879770783382,-1.380099497854705,4.284449164257401,2.320994461271715,-1.809627566754937,3.9264052414398303,8.31465341078327,3.3661253305059375,-0.6422365563683669,-5.495350208043602,-16.64126744875711,-19.458916328551283,-9.844696341013996,-4.661040196877472,-3.768008554788887,2.4133762888459924,4.5505379624754125,-1.1652646820698602,-2.5590846037297705,-1.9606448386628472,-6.592255602040676,-5.279755221021669,3.9549172860780395,4.801689207922626,-1.307123747644309,-1.566734194928685,-0.9481457705071608,-1.7891728805105587,4.918654860323295,10.07770817488469,1.7840248737501336,-6.180293806417187,-5.043512293449991,-5.577571468567987,-5.779533836316742,1.065659016194799,3.037568392027484,-3.2331849989564985,-4.424643179627896,-3.613094064470804,-9.795766338239643,-12.033327408332092,-6.0955786982250455,-5.059194074175605,-7.215155273595358,-3.867427740278019,-3.6536833992546356,-8.364106620300506,-4.647900442286165,3.2611911122918613,2.8825821528124718,1.5778971324371152,3.224675819710148,-1.8400752653106789,-6.6355083393575764,0.03265739911718146,6.199608591250369,3.990349320235957,2.6950476987832728,-0.5045561683813297,-11.00912771433554,-14.57429290138577,-6.30624671956301,-0.8896234533767293,1.0679889870822434,6.491697701653989,6.587230549923113,0.8800738205964835,3.445020192006873,10.417248974191834,10.468256526493917,10.774920722231418,13.519176461313487,7.867565222436095,0.0772828951152289,2.1986714139955,5.914823661094525,6.189335048103258,10.838459569772487,12.587261119662386,2.156108550478012,-6.452262444330297,-5.029595455628893,-4.688592719455408,-4.798840005454882,0.3375089916191647,-0.4711257524672928,-8.458362272522052,-7.276888058874688,0.426419630456758,1.4314253397338792,1.5013826657204974,2.476071462399595,-5.742443448014916,-13.932024211724869,-9.354567513260868,-4.026156191712623,-5.342070027606124,-4.228964707358834,-4.929943294510686,-13.072969231495742,-14.803067956137124,-7.468775559977259,-5.5010330162757,-5.775539078218864,-0.0022397185293088206,1.590606758880001,-2.4857899941168644,-0.013315351004874465,3.195805674636432,-2.7457287649518376,-7.249053665036394,-6.1780717587354,-9.717326910617201,-11.81758062840966,-3.2014185192568902,3.786668887573341,3.2180103291091786,5.238462958489239,5.320159809850224,-3.3549353138443845,-6.89093655851678,-1.0252861880133244,0.8485274242286286,1.0652145214455937,6.3248183022062285,5.804947555323166,-0.8720136708652384,0.3939104309025714,4.84522752880534,2.0389221818334375,1.2388690918035699,5.761293506470455,4.604736726084623,2.5799704606884672,8.610160473027527,11.262144747273858,6.231416163762258,5.766858727266712,6.365728581790097,-0.5580612498074538,-3.765245775693673,0.250007695485011,-1.3931305315628972,-5.039209676886956,-1.6715101670095693,-1.452071960520747,-6.119745636079289,-2.312392563568526,4.230721350013338,1.6846023702884292,-0.4319256896544054,1.3911665347604572,-3.757473687508365,-8.51694961869026,-1.480381214288177,5.252740247164079,4.8373616022482615,7.2465018062726365,8.682393193330766,2.3672467705679665,1.572168818427199,10.3737514666131,13.760776116702495,11.965435397204567,13.149866993094419,8.617922313767952,-2.403112284212631,-5.209709482112537,-2.6209153900755098,-4.25952132047051,-1.4368348918736027,6.305407465859023,5.217105097596539,1.1796334227633898,5.562089728137424,8.141599249198354,5.059106606872549,7.425361663237945,9.914632809857281,3.9781229898642176,1.681753505673444,6.581503801375843,6.2165786050484275,5.262358820870996,12.542806375171057,15.51379267842283,8.991315082160758,5.4162994409025575,3.8138353128566216,-1.420873026028038,0.03891229967121568,7.899630961941483,6.206856491386011,-1.3794265255049551,-1.5065601210923685,-0.45284877805164564,-2.0111334190386905,2.5448385685621924,5.576932027852877,-3.0644638353364666,-9.803671229725534,-7.718186724370675,-8.120506343330272,-8.091344518412987,-1.5904805753325313,-1.362153621742254,-8.665711474134369,-8.089050405335174,-2.678616993402413,-2.35706186202595,-0.13696108796922601,3.1269472722775977,-3.7831692951792717,-10.816816703511432,-5.159998338711024,0.578296357527542,-1.2219231212398949,-0.8490480613142476,-1.566333571161774,-8.940705234038903,-9.90929316750909,-2.353879524709301,-1.0785981640966247,-2.641629885691279,3.0845927533001802,6.259336380998796,3.0411835974547645,4.537929748871835,6.452445096314666,0.8906680271519787,-0.7814527788850925,4.209893888981064,3.7616592168051994,3.24118146946783,11.252268578307039,15.01779100719635,10.183540377185281,9.050088744417193,8.181783451295804,0.5284077353471139,-2.4526431393704966,0.3567943823831139,-4.578194746254839,-10.884638323266739,-6.640398769637921,-1.5609256222625836,-0.7567558799376624,3.7560874767484966,4.979535150617294,-3.8729313223805977,-7.63832799102611,-1.441887235681898,0.9588947984029003,1.2637021469452114,6.1829546146018615,5.396283139189721,-1.1123529609814806,0.13395875036524374,3.1655193215245245,-1.6119427625956222,-3.500781815974136,-0.9748355025403344,-6.402743350800174,-12.944366795577146,-10.05130176822658,-7.973163582746076,-9.492577793557146,-4.806932958255308,-2.090065724415486,-9.399990244886148,-11.699884900659129,-4.601475600989695,-1.5412158937068825,-0.04576238347539119,5.49461703741043,3.3462438312385747,-5.777256164787245,-5.937176125783504,-1.4718333593028965,-3.2201652161109715,-3.083228924350084,-0.8737351430354523,-8.038887061960272,-15.00158513511289,-9.313844708175845,-2.253856450535782,0.6177191011638641,7.34517256424988,10.547797228205875,3.099675435100371,-0.6357683939161735,3.618715725438298,3.0678558941051803,1.0333780551993843,5.15259825361675,5.102308313298076,-0.06522147470809792,2.2993018079030136,6.190417094458082,1.1471868263108238,-3.3678042471785714,-4.863235273432656,-13.482751315062343,-20.64933445445278,-14.891079270845562,-7.519829439067058,-4.154377213328678,2.7929795719167085,5.285485368770757,-3.426068582642983,-7.620202076646324,-2.1514498044734616,0.2026095239765443,1.451433322626814,7.067057430606836,6.184758163050312,-0.5151221440370293,1.4485491662915533,6.871179644171028,5.410964337733798,5.942317124839784,9.001771691942666,2.149671224001292,-6.84239390241066,-5.803175600751359,-4.259058462730177,-4.813409373446804,2.4191542382639644,8.205477047399317,2.030604341053281,-2.9970885090309296,-1.5320557163351105,-4.395936818761242,-6.920079619735476,-2.432721582186743,-3.730252916594896,-11.826009326922858,-10.552141044022719,-2.6265236434930674,1.7282898020916109,9.41545261018227,18.510073436987746,14.92103904883351,6.118199109582682,5.409700302447265,4.642592206002161,0.8688037381868519,3.709029277727217,5.7491029657758,-1.7950449309025576,-6.031353525341719,-2.8269556106822273,-3.321236122600537,-3.022855074493249,3.899353051830396,4.958205479888101,-1.0816960285928783,-1.1788649228888117,0.09309359991251742,-4.790320509820681,-4.9413414324270715,0.9553179412263688,1.6219837559957528,4.450718476887471,18.305721777482955,30.606965745615103,39.30237671294701,58.92133570847491,86.77354942242293,115.51246865795805,152.14877635373534,188.38987040424686,202.92212476932696,199.97777147016214,192.9356336478623,176.9129310290955,154.48089501612185,139.34560424958062,126.53613817054809,108.69809127698318,95.94878437130049,85.79303153763908,62.34126825357268,32.05838493203308,8.85791115043173,-12.908448967983686,-34.948210360827055,-49.13676047468529,-63.60699841355143,-86.16459491275126,-104.10189202425674,-114.94158450444726,-131.35907151438238,-148.0696336404732,-155.28366411867592,-162.675333197257,-172.70394136720603,-175.05602392012128,-176.42168718133058,-184.54167537452054,-187.00982081158668,-182.39807469185286,-183.25880593380722,-182.596659873007,-172.05126635228945,-165.1409081178246,-164.37524128530418,-156.9848516849284,-148.64125377725668,-146.5532091207063,-138.78704389209332,-125.77513008668707,-120.83999674274094,-116.66018946380134,-103.86613475492034,-94.30557148259871,-90.53501380336462,-80.68636768336188,-70.25809573336443,-67.66884342231626,-62.256499963069786,-52.314413437999406,-48.749954893957806,-44.49516986364904,-30.948084348903805,-19.959731751759062,-14.88008107746236,-5.999151581958352,-0.3409615107378987,-5.112890124172173,-6.587972941067134,-1.2796271164755941,-0.25749761648746194,2.6580175507348964,13.965027369268382,20.46649768061134,21.597467249072167,30.828666636562744,41.068751447885255,42.08947541823367,45.00535870007751,52.89431066356437,55.2327653616264,57.950212413551135,67.18045092866241,69.42235860351623,63.28178985139479,63.39154443982951,66.96246729319736,65.67566945131603,67.00819825687297,70.10289260249887,64.34255575649584,58.352146063440706,62.12334043690011,64.94599108309083,64.27164716544954,69.28799817783218,72.19777726622574,66.09513573220644,64.08316172764923,68.63066568329515,69.05451744205085,71.16222300031758,80.28876682280496,82.50616078947438,76.1231744329707,75.14806460258362,76.09110905284336,72.0378142781316,73.23237420650814,77.59769083131803,70.28901250318083,58.3626575598465,54.08600430962149,51.267445721213804,50.64756415357055,60.22149818155493,67.78079330763558,61.99541225426784,54.74476815842062,51.84869645430355,46.884456376280255,46.86122473691474,55.97033566612781,59.173203889657074,53.83611079400871,52.62072482211505,51.89961517417501,45.8548212680372,45.031729288091086,48.04046182497456,41.38770065979333,31.8505916903826,30.386058685989823,28.986943225210858,26.371005156349078,31.09394157312379,33.961311355469746,26.58223315124871,22.33384134170897,25.316939858736653,24.65136993752164,24.080955862386666,28.150007886419353,25.030904862925134,15.389532255503962,12.521100245744318,11.386776615571273,5.115446675984861,3.868203925994209,6.34346100333164,0.841133903847461,-3.7090369417824984,2.404482069511965,7.921740517098117,9.826695313094216,15.153244023428256,13.498570655502267,-0.7746084638786108,-9.023360368160608,-4.808244174309792,-0.19272913074160813,5.990753094910396,14.473269343174206,10.929895900938513,-1.5619939523108886,-5.030354065347049,-2.8177844711129625,-3.7501502778658935,-0.6124961100373352,4.003772952238801,-1.510967843106,-9.087982783256823,-10.094472362688286,-14.366957661598008,-20.502362311797526,-16.93948976561955,-13.342830781714248,-19.762336137161387,-24.77235578064808,-26.020475100170657,-32.030945063820575,-33.302705569949964,-23.41607853066312,-18.036251783874178,-19.93865335580665,-16.722890014514675,-15.027206443656288,