-129.95551465594374,-129.14089468935546,-140.7194538547532,-144.75174878012746,-135.6228457560125,-128.41284494572758,-119.76907312037625,-105.05419990165329,-100.58852253353757,-105.19490590605665,-98.97792823438694,-88.16009169914469,-86.76245039915793,-84.67880391673695,-80.9744071729187,-88.85247219535846,-95.5017622304062,-84.85828260009546,-71.1461237300297,-61.31419945505061,-45.57433001462783,-35.198398116107924,-40.30449791708075,-42.06697558859049,-34.65173546520678,-33.224261845436686,-32.708429842511975,-25.07739989728548,-24.25732083445751,-29.031094105920282,-21.649971802394784,-10.29963158307843,-8.513089147827205,-4.690965158180486,3.013183872859998,1.3688941654096587,0.5143657467507996,12.191124228719104,20.368407093320535,19.896054814372924,24.422763227702887,26.69868053873416,18.185399587053055,16.319118476479286,24.123408244510518,23.879160128675466,21.37730859615709,28.252473138458168,31.546218916455345,29.924896904902752,37.91267328931329,44.30029022111407,36.314216422895484,31.43682431146108,35.776189214196535,34.440568859901745,33.159771905365,40.76352794517878,42.48898496675076,38.23281240310535,45.70274102565143,56.243813373285924,54.815115577820215,53.20871004070008,55.53980736402501,50.01261788945854,47.00410891036182,58.12903944840118,65.893811894285,63.726291585105145,66.66627195886961,69.67882033129683,63.0583129718928,60.69456724686952,64.43407905980526,59.41532416235968,55.236109730077075,64.70185653659712,72.24152772977195,71.5246674117891,75.9437133412236,80.65467459838109,78.2985370127221,82.98715359241422,93.03640937188592,90.10402534293833,83.71253037495545,88.55157439184721,91.7827646886266,89.80861337243509,94.09220711743063,94.5344932116276,83.34201299672398,79.12521726435699,84.34560640052086,82.0500212947245,78.70365613774749,83.85519158098265,83.40496306167951,77.26491439715562,81.76762904140051,88.88739535299268,86.68077643223593,87.2848926497989,91.41514975792927,84.17887697360445,75.25576228988906,78.25034580353801,79.83564881825899,76.23544506779288,80.10578438253866,81.80173721924764,70.81947481140921,64.10036261683717,67.08857786217307,65.64987176772622,64.80137618468811,71.2728192126913,69.7445147717475,61.312867849632156,64.41370891568096,71.07767946205534,68.20234723596471,67.46314228674626,70.22410942706657,64.46783839625445,61.12500721541744,69.36101644196205,72.14834066364305,67.64745192732781,72.13763305652577,78.204810863174,74.67593529448365,73.30305864168167,73.59988803101271,62.386453246932625,51.92121482358804,54.40709900028069,54.963372627296295,51.09240334010864,55.99613147929358,60.016284548418724,53.37548002775134,50.273878609325166,50.56070810232583,40.60100380263303,32.34291694543434,37.24248888437629,40.06125459078292,37.94211114862697,42.122506733329615,41.49537200400975,28.956586767946263,23.891653951693677,28.597838485891245,26.765408716238653,24.771298782612728,29.30216282357479,24.69471857279547,13.628400087258335,14.019036517616835,16.38598879873341,10.224700747193396,9.733133980156277,14.290048775368518,9.284498436545997,4.616884165849239,9.369795196562478,8.394494431906018,2.359420523698848,6.608246420810722,10.555557714306556,3.823992865519185,1.6018265615799958,3.925706550380843,-2.4802138300601353,-5.699007641230234,2.4397024113488763,4.358015424244063,-0.9146428676713478,0.9178940751077209,1.6305643340999483,-5.289528886723442,-5.043758204102807,-0.5739845383368867,-7.241782208286585,-13.69093694725162,-9.664525580238733,-9.578479905418178,-13.939618898786625,-10.790649848053098,-9.890579701110628,-16.039507203827117,-11.236225843078344,0.8734036804163923,-2.0621504692475403,-13.835328106632472,-20.018760071330963,-27.21560422948879,-30.641911629127446,-16.841707070522844,-2.388004425865428,-3.7834535670034475,-6.667243596636333,-7.6322542952103625,-19.20219704104204,-30.175458499083483,-28.472674876228616,-26.008218517305934,-23.437425465310067,-12.06591322618325,-6.949679352190602,-17.485293381417367,-24.495957709131662,-22.581332922272345,-24.263255301915148,-23.600930903934604,-16.540344020167954,-18.827729449820474,-27.054110607461023,-22.92993960303534,-14.869019376298489,-14.337783632634666,-9.610679614581716,-2.3293802948811404,-7.28974614074807,-13.829997493604452,-11.30292103077847,-13.709696537118367,-19.558530507692453,-14.31488929776436,-10.542117654948933,-18.837158232611568,-23.28929174451889,-23.36878616874808,-31.189770166574547,-33.402303215068926,-21.821823832633676,-15.336618212781127,-14.706005176760266,-5.641618847660195,0.17797146841389422,-5.32849482028839,-2.492240586972442,11.799841643129064,23.104420491032684,39.71311601514052,69.79299806975278,100.25542699882195,133.76163669839016,181.3217648276098,222.08546699010165,233.31320099947447,223.87468967411831,203.56464391226393,175.123764659446,154.06405221874147,142.1320109205585,116.35983897535445,76.59713308713444,45.525379828687015,21.649722899677027,-5.069766323105445,-27.201282654405215,-49.33787574692915,-82.01165318399259,-109.15533254313233,-121.41280886747448,-137.17145478536202,-157.54058417717232,-166.47838799885636,-171.364702878552,-182.95257435113962,-192.53166611226334,-202.32222781148556,-220.44016846030377,-229.7381935741085,-220.4725452000195,-213.06362235143166,-212.93578275683242,-207.69406515743736,-204.1262376255377,-205.5201934913502,-196.6059756308543,-183.25274408323716,-182.08483996340547,-180.35075320128638,-166.93826243432892,-156.82066760521212,-150.19931249993738,-134.96380613544403,-123.68318625902597,-124.0812135534749,-118.98490452395541,-109.61013516663014,-109.82195288073999,-106.11082985357797,-87.81024502763881,-71.53755151954489,-59.93523004784504,-42.03299553822844,-29.11000592482941,-27.370549946222425,-19.11370189162576,-6.152560108713493,-5.491014227509831,-7.439163845693178,-1.177305699788973,1.2787320068581147,2.3596537337582935,15.050649382270011,26.951074485293287,29.65110782504619,38.957748416895114,52.591495104035346,54.37948246413226,54.04625241653202,61.116637386191336,62.52403437583597,61.03902823421916,70.32734037537959,77.13975090888752,72.01788310839277,71.38902492612283,74.58864578547552,69.27484454877656,69.72667928976682,84.16935853630909,92.84609369586367,92.35169844187564,94.3558153283727,89.65532217088187,75.11252122212464,70.48328548334786,75.29683308449984,73.61784022244353,74.02704192529654,83.6141184093884,85.70544541123904,79.97745093951337,81.66011951540538,82.62763989127129,75.51964936027314,75.41267548482668,79.5559064608355,72.35005037963367,66.00751244835882,70.82717961327576,71.00005088114622,67.21903066219863,74.1533965432067,80.1662057317792,75.33894300657111,74.48228027946391,76.17106128923348,67.63835242464785,62.68082660997587,70.12375054162693,71.96175520304712,66.8698264214986,68.07938256215994,66.51107575696125,56.64767341575103,54.34686334532712,57.05562855060338,49.858780818260996,43.32885349548884,45.25258685475197,40.625114717696604,32.224609047537626,33.92696469891356,34.173375016477394,25.628312348832527,22.591342963460303,21.55744298347186,10.141726106790768,2.22373185811925,6.7047235340046205,8.27004041546573,7.412705158137236,15.081010866488358,18.630329728950738,11.583280010180772,10.964643261607913,15.486145474466865,11.586900785725003,10.36393313502698,18.815149422900355,20.597058836142608,16.26557765973065,18.05171381992652,15.44813221116139,4.437856540659383,1.871408980622176,3.7806915593029973,-4.267466366205321,-11.540225127254457,-10.794489269784638,-13.308734142805527,-14.16760289561924-3.84366535649856,1.5744021778749706,-5.645531023261945,-8.897953144193286,-8.805142626913359,-16.123065540920404,-19.185430819675897,-13.383694247252517,-14.58724457919261,-18.931364197707463,-12.416929438680901,-7.2006952192314415,-11.959153060923429,-12.781445516814149,-12.681981477882227,-24.330912679201617,-33.28084194598965,-29.255715753844832,-27.009863777499984,-25.700947136962263,-14.853153078505944,-8.706752803540446,-14.059203694040445,-13.130836245872144,-8.148378598296997,-13.854636352455751,-18.454617268014065,-13.927616595028162,-14.755860276408404,-18.049795032459418,-12.03361162943511,-10.068050043771727,-18.883728966498307,-21.428902032521805,-19.53274434137151,-27.534053787824575,-34.13434838576037,-30.90984154497778,-31.71716503369089,-33.58615230246563,-24.29757269222585,-17.23504103183246,-20.332077571039193,-18.638984822149904,-15.427074944357692,-23.055719641055553,-26.774018630444168,-18.570979743034407,-15.605559972775854,-16.79744609054351,-10.987979280685359,-10.980290573820536,-20.85982587002463,-22.937578954656562,-20.236980781041737,-25.571456704242124,-26.95207594620181,-19.21913743056446,-19.540799052583555,-26.30711137390402,-26.134459896664488,-27.4270467811744,-33.0845268618791,-28.246692909588358,-19.468123347227337,-22.184453093555856,-25.184282095057977,-21.518688805627846,-24.01541459327574,-27.418038017602058,-19.937255698429475,-14.99907389021929,-17.953523325959562,-13.025580695701748,-5.3770361624234635,-9.492392968035638,-14.19536567023483,-13.24750475341568,-18.58655221900077,-22.531469543281663,-12.739510039840575,-6.651819453688818,-14.869523933776279,-21.025201414657385,-23.71840161401821,-30.545628820943765,-27.52888670734229,-13.737049339234595,-11.569673433346775,-17.52037713113749,-13.586615187798383,-8.310715851115923,-7.457026126149584,0.9728891254889449,8.15087135655673,-0.046926967477894266,-7.6887659568995534,-5.061766188200962,-6.572498171167577,-9.778939748962724,-3.767054388319617,-0.9476718490680955,-6.325175099970799,-5.192254484030954,-2.671085556145208,-11.47297084981152,-18.459930025378743,-16.056723065541924,-16.83200573040739,-16.239296697282064,-4.398510267620152,3.056316252518189,-0.9090484238816798,-0.4690999298848624,1.755184199413691,-4.866202603142627,-6.9261550804891305,-0.7455924503791893,-4.642054037521564,-14.317413118177095,-13.778100056534058,-12.68449109930258,-15.778565972253931,-9.039835061886489,-0.37508897826955323,-4.744477207184108,-7.230815126014889,0.8307870413209506,3.3850013620254544,2.6165039398516217,10.288599850682921,14.274222449923753,10.893494380489102,15.658031423576283,20.879425120493252,11.219572134981966,0.32828736079862963,-2.0406682278636765,-6.953634930277111,-9.319262242532803,0.9750643411089204,7.584195714697073,2.703495089520807,3.224392844334003,6.8408095200497865,1.0041037211969286,-0.8494981066178009,7.138554497681065,7.99834974236135,6.226329476269296,15.487682244281583,22.179980804623895,19.47850668806735,21.984639496942837,24.957378957394013,15.8820396294309,7.4820577322435415,5.981047359056287,-1.8701359090577343,-8.818833874403099,-1.3449705876116198,5.851322582651682,4.771070139916703,8.087348035786892,9.761902117403702,0.556619339056704,-2.0806525778856964,7.501153594633751,12.050486958822544,14.487175660396698,24.151110592005356,25.90966830372418,16.281227445515952,13.937430271112673,15.194562727824893,6.556112841751265,0.0067819332265963705,1.4536783633504828,-1.6380540352711916,-1.5782638769781565,13.032307399697745,24.19166193332258,22.126039427712257,21.396537810712445,20.30171104962146,11.21666012564723,8.428727678739927,13.790292817039578,10.122107473568246,3.235077729949494,5.897593576921684,6.596622375199451,1.8211370966923832,4.80237135239294,7.285389294414507,-3.2248082143869423,-10.56205407136062,-7.00564123167472,-7.460471910217888,-7.517610277091431,1.9332527232026524,3.8047785280432587,-5.912880388889499,-7.335303338387643,-2.903140821599156,-5.519187330878642,-4.3855110285901056,3.0321687315345565,1.0593382767735247,-2.4787920459207795,6.1690619850720765,12.075735002933854,9.189594795217143,13.235728036479214,21.198759797491054,25.536468108291405,41.73726289002249,74.09761748461852,109.05467488984227,153.09906872277824,212.3890917566891,259.4446896290705,274.1758316944137,267.36729476987193,243.16167555481064,203.3056235873745,168.82769374410645,142.43232186790726,102.01315468865513,53.21964107274881,18.641211114152743,-6.47557851321461,-28.630295880967687,-41.060278345003,-57.85801392234342,-91.58130023945986,-118.78573034244626,-126.31360663900841,-130.80923388180332,-132.60996154307773,-126.5174804436827,-130.68843502016315,-146.65731741997163,-152.74796660738133,-153.54383591181963,-163.75858073773472,-170.69134631177687,-168.71265136505963,-171.95963748853484,-172.82914621666453,-158.36984108480934,-145.3450791973082,-142.1276514580853,-133.34576512507664,-122.92141745450746,-121.21537925103264,-114.1559146717317,-100.10082521833269,-97.41660951003728,-98.7970569380886,-88.58638106139924,-78.99991094481148,-75.43249775289391,-64.72151530018367,-55.60890999189152,-60.17067950288482,-60.325088635899256,-49.10723752541506,-43.910303907099426,-39.74216336601361,-24.005613000339785,-11.902778186469032,-9.798912198713504,-2.8395543115613835,3.315824355450136,-1.8653662581169494,-2.052110096163754,8.695299941187615,13.485126607811937,15.139581207520777,24.57305909886886,30.360381910309528,30.92534601986592,40.71937104599981,50.1795398989546,45.368104133263934,40.11939793081241,41.37822244183201,38.14583028466687,37.14040260635236,47.71976394252713,55.019269784737986,53.59890052835316,56.907289778584484,59.06882838740191,49.08335489232031,41.215907512273716,42.10151823122546,39.712593879176154,40.331121594900516,53.32786832007729,62.86261441401598,62.63635451693691,65.59045663153088,65.98427067406107,55.99771382149046,52.198099071193155,57.38050677685024,54.987739535383355,51.89444670795911,59.931711081345426,64.89794063071365,62.0311476590943,63.87756531978666,62.597727116713706,49.786232181667806,42.562526840159165,44.103547952209865,38.10891534169547,31.07710724650547,35.02983436097594,37.186371920925914,34.2977089492305,41.05106221158114,49.677000736449216,46.99361705745081,45.52682096264174,47.66176648489112,38.79566780632297,29.11339294553003,34.21042756679413,41.37531941693864,42.50101911241357,46.81212458864643,47.33654014390046,34.99520821571067,25.74481550468932,26.26182220896886,21.65171616058901,14.548721051331697,14.716460106994894,11.405878647953944,3.85483620309339,6.576700911861511,11.349895534172182,5.9616495215155085,3.5491659676218417,7.706513857114475,4.992496564541518,1.7560330150651855,6.450992395219269,6.044063925623195,1.4209018779434803,8.569214890583758,18.125906274699208,15.281415356310983,10.850066548889659,9.739669682705046,3.1309307250760146,0.7847567311692729,10.864961062910039,15.649966008094022,10.231185525988069,10.598660652168231,12.409235586622486,4.4655012900290565,-2.1331531397550196,-4.708944376111002,-13.953785031714126,-17.92642822652344,-5.138774458248388,5.820972684083925,5.906296241826878,6.423974250402933,1.45562338876957,-14.001035845435561,-20.149292896730227,-13.103083821155828,-10.222111602808138,-8.56486972838966,-1.9829653831791954,-5.4129225897283515,-17.01508840342565,-16.934009696029392,-12.207232048788512,-16.058035571670796,-15.48396934074129,-8.422684829945613,-10.284558568730674,-12.835719875679356,-5.744291734159045,-5.206242952352826,-13.118952430264763,-12.113345437603023,-8.859068795196693,-14.637036446762421,-16.681553636271474,-13.858371294726371,-20.665908373582933,-28.48107608679658-26.16856899077233,-26.74676786165894,-31.17217571703236,-25.77030373365777,-20.09324605212629,-24.308274747050888,-24.41846496234777,-19.787581704770012,-24.04525018040127,-26.885495963438423,-17.96852056430238,-12.402166405638198,-12.893187928912795,-7.723491934556242,-7.09611714818489,-18.306941386791955,-22.119948820703762,-15.235537679158291,-14.815462702009667,-17.154065204961217,-15.343590944266879,-22.313286035078338,-33.64151108521328,-29.370503359200946,-19.0107912659485,-18.969167447355847,-19.36746623571589,-18.508127341709276,-27.43134303210348,-33.05220104971039,-23.138315255717906,-14.64292537615283,-13.120171827067633,-5.120535749402989,1.1916188461980326,-5.503385650211545,-10.827723589172836,-11.101910415657319,-19.547707184412236,-26.708502465017325,-21.129926882550464,-18.684283254606672,-24.05816251244233,-22.881999321876194,-21.40970955829067,-28.235142658148728,-28.599718593367363,-21.35952574081177,-22.132989632549158,-23.7089773645206,-15.781972397315037,-11.993133463725593,-15.240944367951808,-12.828971580548167,-12.483595665324465,-22.27602439301407,-26.176538864297903,-21.334018476505154,-22.067276919425144,-20.874269632987897,-8.762556391788124,-2.205650867005003,-5.032909438144086,-3.027626697616803,-3.2009400547326785,-13.303334321582943,-16.619206390518247,-10.901537158200249,-11.95711160477159,-12.89167785502272,-3.927996239361708,-0.19025011080889082,-3.930446513527977,1.3064615500460546,8.923414999510507,7.728640440686834,9.63725498542099,13.439340314917686,4.205526742433472,-5.962896386258652,-3.1123819037013982,-0.7279352925734827,-1.9686812325365777,4.512091514466605,7.719776133902297,-2.161570583636563,-8.617665418764908,-8.241082331891626,-13.35471260011116,-13.656991421379907,-0.5538779919073891,7.922685027752289,7.260417192636108,9.775222524153822,7.984319846254302,-3.3035020131674964,-6.0578497387086045,1.3683182735162478,3.1342777122258,4.626903718501422,12.060428292006414,11.035230830695387,3.6578439977806143,6.146142450624405,10.008535429070175,6.17833787400777,8.050028431774699,14.089304718614027,9.390551058651631,2.7069020117703384,3.6414116160332317,0.7561630867324802,-4.411623144249816,1.205580821121624,7.389712663001712,3.3720077227939416,2.741797175392539,7.499089398968434,4.076089305160612,0.7565607403529282,6.348331492894633,6.144027221039892,0.10579697508835118,2.3174142088767358,3.1799056292329726,-4.676659029301512,-4.452118431349621,3.24695712539465,1.3457606770796602,-2.3296587436377623,1.9136557284369666,0.5584641867266031,-4.744875158225578,1.6050787039509964,8.263512213967239,3.5323287406776567,3.1890372801781575,8.813694036001905,4.68412604949603,0.002151264293463795,5.309264657098467,5.74932442850025,1.2631986678805627,6.257407968296112,9.878634521122805,3.0654094824939966,2.632393022697244,9.35164132010823,7.702852547277981,5.50934675508533,10.633195367774896,9.609676231571921,5.797739141553717,13.819728712888534,20.648023139145884,14.445211912275916,9.761985230427399,9.027847119209943,1.5142566649984275,-2.5127069610980337,4.185551094520362,6.098685115358725,3.0052396705571387,7.804311774944462,10.289936383838967,1.9476936071697981,-1.467431189048819,2.682871601358375,2.1533339694708764,4.820328498698704,17.03028532102254,22.187260746083126,18.807059735290988,21.402202705414968,21.71116461383286,12.717405458799142,12.829314274331535,22.80231230376836,24.598112657047196,23.512177564601718,25.96846785858156,18.36071194800987,5.682523912251518,5.224101401867836,5.506290717978439,-4.398920624743329,-8.325643429054942,-4.275283132605934,-5.646173359735391,-4.297850712357157,5.338977841249122,7.321800583840005,3.644585768315749,10.590931878793846,19.02013315477773,17.512850491841206,18.51476076980001,22.529477472251116,15.075474256148336,4.948164157204049,3.3893709762931374,-0.061625872028314266,-2.0933693806376703,9.582733578415116,18.79542394323778,11.280394672474475,1.0484584080085688,-6.367596664303411,-15.64046189682442,-13.856084948357655,2.011722444888103,10.347017190605582,7.6356574321543125,7.1949044128635435,2.646598037039366,-8.673459199893628,-7.075907025658392,7.011431685050846,14.49188869990197,19.193721667918844,25.072234367176463,17.446639717278572,4.13900813929949,5.836062071537888,13.091334155112243,15.919455068077582,27.600008008714802,48.09955703707017,67.1128043928339,94.3034469119782,134.15085843518327,169.99927766435826,199.5795314919375,230.24675853302716,246.16515436920875,235.73566119236813,213.56965974344303,185.70717981958956,148.90035246669453,116.26697665318349,92.26357481817593,61.777050748734254,28.7906545600584,7.4375610145553885,-15.09266296557178,-49.88771359274879,-82.96506400950062,-111.24440772627307,-140.4159546415393,-156.3678249429013,-156.35703463723482,-163.48416055287174,-179.14748818065993,-185.99226039776474,-190.62968700892776,-199.9097978347038,-199.16977727890645,-191.16482058362382,-190.68925831498996,-186.90984685187343,-172.4825234246537,-164.18776279357562,-162.03878722294002,-152.9122093836783,-147.00596541106464,-150.64862442386342,-146.45163329708976,-134.3571375457752,-128.67783354114056,-120.55968147711253,-104.465166587147,-96.44796129129207,-93.30458903339905,-79.82149172733065,-67.88767462691649,-67.03988215413766,-61.851003685213044,-53.34747593196833,-55.08497922784352,-54.225115111815754,-42.09156357257082,-35.15754067769932,-30.974016882097843,-16.060562733911794,-5.026403893025909,-5.762233801243892,-0.2482234945906283,9.163818120302505,7.914549767452074,8.085065846614697,16.42606439605363,18.128439221119415,20.141404321060303,37.09501396728106,50.51791170016895,46.51164115069555,41.020522684252676,37.46127190955509,29.09850735678341,30.53718108885199,45.2377873317243,50.70932829023282,47.45754787191126,54.34118590011269,63.8894856051344,65.79283311661857,69.59746717983732,70.45154853743254,57.29032096897664,46.70245339956682,50.51014214722072,54.081920141009846,55.88617792813338,64.86555273835853,67.04762357781661,54.56495109981392,45.248027773076274,41.89418512252272,34.828541578980655,35.54458269890906,48.20748524739726,53.245875495431655,50.84293815241005,55.799519529993674,59.11965797013076,54.36918895063444,55.534843933294155,58.54083333199906,49.91512714897296,42.870599582467804,46.27449493505155,45.82965881518773,43.75499750955181,50.230303973674,50.87613917639098,40.41239358212019,37.52983683282653,40.65869849903162,35.73306585749847,32.766064161584886,36.84725250052394,32.865500651233496,26.18504381783473,32.32303654765358,38.08589771877047,32.38170540586881,29.564146451153583,29.564839275662727,21.368149022118146,17.93386433291488,25.74489126143185,27.233881292850178,23.755774944829085,29.240557769501166,33.50159436111228,29.72075848931641,31.32583046782511,34.176788983612106,25.32518540000811,17.765728778598625,19.605479615096655,15.639808466848686,8.659860669165393,12.774886080668091,16.727908937217638,13.075964283271738,15.688880136815627,20.454024483689622,14.950305741826885,13.133993432943118,21.971008598893413,23.770308922622213,19.337578729776034,21.36020507442217,19.366696405828286,9.51193987837495,8.040698550799654,9.697083513245055,0.5203646509706958,-6.238077321140034,-3.9182649781217602,-7.78607067154995,-13.237579390963786,-7.187306356590364,-3.7050276106374564,-10.856571488459156,-12.967527374472297,-11.425317150523037,-16.743671448755606,-15.808076270121788,-4.449789891328344,-1.8364201623498642,-5.749763851861829,-1.4316978396789948,-0.2349942231424762,-9.115785734703989,-12.953643470083428,-14.49198403830794,-23.53650971843766,-25.002896732556344-14.803975623943575,-12.448081273123698,-16.31665132769462,-13.675501194416483,-14.294204803401733,-20.653095814613405,-17.296326055457534,-10.540771190877674,-15.40875957919123,-21.109922196135166,-21.40056157738349,-29.22612458631314,-37.60871953627254,-31.599042276562166,-24.28470461422574,-24.44768835519129,-19.88097638719212,-16.269451685543878,-24.47770604943041,-28.50630569438437,-21.66753302086838,-20.992065695010176,-24.809877296481908,-22.27509595362955,-24.94605814096131,-35.14092401793476,-34.87131624570008,-27.966336384289505,-28.328138415510118,-25.126411909220415,-14.422512425667964,-13.218934799847935,-17.83453693781792,-13.867478754794448,-11.772404450540721,-16.68946690079888,-13.550216987261452,-7.862528200369596,-14.32608696800876,-20.356702599548125,-17.9591244419291,-20.5236072509169,-23.458389724301533,-15.28808512152817,-11.096263608207352,-18.651049585317512,-21.958249582606623,-22.23947139950183,-29.600521822439223,-31.41910597778338,-24.221026081044723,-24.220546316462688,-25.57997850478294,-15.728365074896221,-9.32519678308853,-13.167844111530384,-12.128613305761085,-8.730721750474542,-11.928502721951533,-8.72718965269919,1.5781385324640613,-0.32010554213984665,-8.595965686150334,-6.318691620949258,-2.8557029254993016,-3.7761966355660457,2.8388884745901803,8.786510112035305,0.007466378442404498,-9.032940817437286,-8.279943168444364,-8.804455216157226,-5.99639412062535,8.252132642992965,16.050415433425943,9.692658559244094,5.484884309256717,2.343187836347271,-8.447015876567693,-12.728916776617321,-5.93431184431703,-4.279582731277568,-4.509185196562525,2.4018507068571338,1.532957938566555,-8.735035233892084,-7.6297617832438105,0.9033491497872754,0.955535974498017,1.7092924734786188,6.743877055346745,2.2535664826494974,-3.5788384809358074,2.2150531471145882,3.9330088224727735,-4.562317163022319,-5.430436949786091,-1.3016548641128562,-5.078921121980213,-4.753336401821456,4.880214891281812,8.088934362632367,8.45228987970843,15.725554072341618,14.616465795710901,1.4929887677950169,-4.403042600589635,-4.473937421826923,-9.287000453711574,-8.192739337294018,-0.5898868288264052,-3.4564284875497346,-10.785296341044253,-7.952481345917228,-5.59359324292355,-8.628444379982307,-3.5174704941762713,2.069858768280424,-5.487345480850303,-10.437054750759229,-5.771151032920393,-7.871704665648206,-11.171715142194751,-2.753609103815191,3.1109310544948037,1.5447183812818752,7.189655534756198,11.86926607348377,3.4494283961649135,-1.0139315647370588,5.191384655070802,5.877439162493073,4.810235094889694,12.126233517081035,14.398317655480152,8.646669494224964,9.754236100622675,10.746160946061721,0.3754368506636103,-6.037795346828435,-2.448940352825122,-3.3506134650403903,-4.13630238416035,4.969748516096583,9.616963991346807,6.223072535786425,10.23777301158757,14.303278124782295,6.407851248596584,2.0051741589424537,6.000396918792623,3.2498125212561733,0.849827810004089,10.24618372506512,15.073575090661485,9.53452935408823,9.454711888062338,10.310679535422393,3.4682431914193845,4.276570561460697,13.318073823687126,10.958919680169423,3.2696644266931965,5.061146561244446,4.625492134044091,-2.471328214551082,-1.9721529642725075,-0.1820501879729053,-7.018970156378453,-6.826307021216838,2.5481001624975153,2.0838079399336866,-2.9872570457289154,0.8467730366080737,1.7648362390086163,-3.686184325000461,-1.1255063431821322,2.381186286132461,-3.988976119395539,-5.070607561365105,2.500248500836584,2.2113621168020536,0.655000232548441,9.713478263442433,14.39191630874772,10.063585914674093,12.33929772900474,14.815413298034269,5.918256661833333,0.8189298895990272,4.077185451344864,-0.04735187927718476,-4.720743633352109,2.3268188237720544,5.687052740444207,-0.4054089964286285,0.08521637255494574,2.522185903967237,-4.58835997156296,-7.4803723412100975,-1.639546865165737,-2.6388512692891055,-5.529263621535504,0.6107784916508581,2.926194831070621,-0.3988455444920209,7.216936838359091,19.26349772278787,22.333892889920197,27.799233397684628,40.781263423601175,53.289397454232926,77.7680247141023,123.21218565010425,169.7247350542526,209.30768208569822,250.05207900473226,277.3726961096439,276.69111082935444,261.1088505179852,237.0177067518452,200.44917049116805,168.9669984518547,153.87228062980302,135.03771962919018,104.86990018731434,77.39714972350865,48.864362921927956,12.960050948624183,-15.102122637711156,-33.577056522089116,-58.324379574032086,-82.42789279606023,-94.4113013839995,-108.88736342876784,-130.44158642808605,-144.1880577245229,-156.3046520318946,-177.23648065606773,-192.67718052701517,-200.03745616706,-214.06044474358012,-225.41073790832922,-221.10406489192994,-215.9730220129402,-215.28875543184552,-206.29397509285616,-198.87497308262135,-205.5759408672356,-209.44048502925887,-202.27206634174857,-195.85277022672335,-183.6159373849844,-159.2462608748103,-143.14427196492207,-141.21765987066675,-136.48148600245858,-131.99487695698576,-135.7560498628655,-132.85308962099697,-120.43086261831047,-112.7701154553303,-102.63581205498842,-81.9455607112657,-67.86862410487676,-63.243225519862705,-52.264983221773406,-42.0181028500873,-42.54573542384909,-39.04538548392633,-28.212798947269015,-22.688795996019614,-14.047879782164758,4.933608283572965,15.535037797345797,13.699108190991312,15.883146840094746,18.03202818455906,12.378722645127251,13.35669305229991,21.553236351075324,21.914602872215493,24.87089492918658,41.37852235075765,53.31502362900821,55.66161439603838,62.45411934766769,65.85615804781122,58.68931466635614,59.64056291750765,69.91369921294448,70.71264926020737,68.71486693602033,74.95090662094954,76.05180155571257,71.72762622888628,76.93928897384563,81.90482610467508,75.62450933015214,74.04057001081816,80.45957359590197,79.63874679115979,78.31790565744615,85.53489667226295,86.55346578872287,81.23301850805508,85.54276212966408,90.02177393940718,82.91035543191697,78.08548007469751,77.3911449638149,67.73366050382035,59.529401161782204,63.742626182696334,65.54485572661606,62.35099811655066,67.30067794305545,71.21612137642923,64.02320985792406,59.92132673920441,61.25409691043617,56.12883263219304,54.76221375675372,65.81873068657299,71.24857609738447,66.97959614698466,67.95339437598533,68.09611635417784,60.08694565994281,59.07850327046525,64.43080961986497,60.002058382724556,55.12594907001472,60.97304719177775,62.418003520617575,55.61391221412643,53.3013930877764,48.09988493188989,33.17144960533412,26.003201804454154,29.42346493965242,27.49345841710945,25.56864312139924,31.740863630750884,31.574156782852832,24.968158335066732,28.701771158867402,34.90097726907995,31.25030205279117,29.022046084422023,27.705951540971437,15.00648072797341,5.6598815196424965,13.311184980755787,21.76384168103015,25.196223344921687,32.6870150793514,33.51898665998415,21.69048540993101,15.725657429861917,16.69092406944327,9.797972125171027,4.957324310378521,11.100660151329047,12.06020449305328,6.358081862593118,7.1694389580723525,5.6023227887152265,-4.985157202960398,-7.53474443065146,-1.8822061889664161,-4.726719394724437,-7.711640884836014,-0.8029374180581144,0.07251928045198897,-7.832276476490695,-10.882605564137995,-16.515909520773604,-29.254261221805535,-30.159855590659422,-19.711803676571996,-17.35184287282996,-19.054975336587145,-16.747603572035406,-21.71776556508169,-30.49091519957236,-27.419801420738207,-23.216303467712784,-29.909007835209696,-33.17860803143236,-30.418616053679138,-34.88738571470409,-37.46545388407571,-29.568504730351357,-27.87361463988939,-32.83362126829075,-27.95724956975144,-22.661242674169458,-28.24753233308924,-31.066642620003147-30.49690663705426,-39.00592054774582,-44.63420483341237,-36.811569052423316,-30.50232351087079,-27.59903130820188,-17.347663041772996,-12.517308687831076,-22.701534824579774,-30.760678801285348,-32.06220320469725,-36.92587527955718,-36.673668617282985,-26.35824121657672,-23.152871534336963,-26.471617595407448,-20.758143750026676,-16.303978855123916,-23.914941620563663,-28.841890590121523,-29.638085142426533,-38.08472282766138,-42.24419030346807,-34.1742211732948,-31.952493755802408,-36.609757905660445,-33.2646372168688,-30.927473547762084,-37.16662039419111,-36.2662059122095,-29.78896838821835,-33.66094042462356,-38.055380199821336,-32.944617837457734,-31.62893626185016,-32.61066939378888,-22.82513363603018,-15.143524955015579,-20.376172616611463,-23.481027033415703,-23.53111372770307,-32.76965742724745,-38.86331523752145,-31.756522577022984,-28.154155115590946,-31.147198545202887,-28.30876183239272,-28.73516080886386,-38.32111560178149,-38.41809337062903,-28.97987971992383,-26.99525857874896,-24.050043805619232,-12.201263971730242,-8.01798304172698,-11.774875715171529,-8.897782802695552,-7.8428919119440526,-15.072804004082805,-15.066454729237588,-10.649018407785785,-18.479502036961687,-27.19311010429987,-24.23214407993909,-22.29817030940296,-21.234708459862347,-10.420699473464072,-4.135185355232645,-11.334246036471507,-15.192119105112857,-15.094400062454152,-22.68523813098465,-25.5129420938916,-15.518586679271383,-8.733423922758577,-5.53659985882464,5.0787610368554965,10.52477327364129,3.102011682210779,-0.5149629630124667,0.28677562354570385,-6.066789151711197,-7.829318533214755,1.5041075953866874,4.02517915937608,-0.2308593409869082,3.853972070321194,7.653764753633468,3.0937639972307105,2.9877241909725014,4.140854033769348,-6.142219739117139,-12.58434057848137,-2.0636184837556257,9.570934615249787,16.295654401437083,25.770363594518845,26.82994463387134,14.587979640245372,8.841743960232359,11.374824793154012,7.638443839167284,6.107172301189941,13.681111335367175,14.9178089886288,11.092815979974134,16.495140939038837,21.093344037692123,16.180197624810546,15.203756839163766,16.314486256868086,7.360000715305361,2.192813979573844,11.321001443506482,18.5556243705708,20.905984579684798,28.331814004345116,29.417879956718277,18.349948418844356,12.99783443893914,13.162480335041245,5.009760133949298,-1.1797190255199566,2.349384196090136,0.9977375525905892,-3.3005270119268912,2.6973058908147007,7.51725629268746,3.874931782180015,7.5248373305523595,15.700634387457956,13.31913124508354,10.422625826065959,13.978280118734993,10.545248227011669,5.118341549501823,11.719759676354801,17.813586872397643,14.213984241999086,14.317092913686839,16.12357925249862,8.63496062831871,6.256927608297427,17.053759726943984,22.396630482528693,20.35753764364086,22.950454862747883,20.362901830793877,8.92060549939268,7.078253677735276,12.601141655188911,9.534548269589614,7.132068768542409,12.688529811880867,12.623684207060817,10.414161769472571,19.045024870633267,25.783603817103213,21.163973012764046,18.380278402632676,15.872994166134403,3.6863796208556203,-3.7005503857508364,1.500968932652004,2.5463312254720547,-0.47516430685629185,4.043913354315599,5.059149150624097,-2.3411132587972614,-1.7344140500102112,3.7829129647485846,0.28270947159556226,-1.0494927981116506,6.096269501657019,5.83656954311505,1.6139612345445586,8.680924932293955,16.597306031194123,18.603359372016598,27.591793257666083,34.97635427046834,24.712411409318793,12.915253593581687,12.675695128474507,11.306464320553888,9.351867535397325,14.770426748800903,12.51671787921671,-2.034315314080936,-7.403409737946372,-3.0026544616736137,-5.372060687657128,-6.889624827841189,-0.9854075105045799,-1.7979068399478555,-4.4807970850461665,5.321950884292848,12.828842192344657,8.009448321094819,6.6336337114043875,7.814877781073899,0.2772211626967058,-3.6024551973815377,1.2579856251584096,-1.5882859672577363,-7.508942537669961,-1.0270649494734858,6.118614296430653,4.861816333326349,6.832527704445106,6.628641560552842,-5.866408825926602,-11.364182699420178,1.6016210992650892,17.712516668502484,37.42024198328031,70.82784039096629,105.6937526367189,135.6893167908639,172.91979061430567,208.13432228079367,221.6643046489615,223.0714950228916,221.65231170441723,204.3483797568509,175.27006548880138,151.2616377345184,126.93658497268538,100.76692961163278,87.46586359238462,77.371216322088,49.67730195726132,13.426672494345574,-20.16972006027138,-58.232169428207065,-93.71519806273166,-114.78676175808862,-134.0443441397506,-156.51207385542318,-166.16443958911353,-167.74223060522638,-177.42999989240235,-186.86606792634086,-191.10412519306055,-202.65079337836704,-213.3060805396932,-207.59827111121675,-199.1686545586894,-198.0410806959643,-192.3212471733201,-186.419775183866,-189.94983901774498,-186.4684630662105,-169.93377153377688,-158.97121202345764,-153.09343807717593,-141.5083300893236,-134.38751806560916,-132.9197925857497,-121.31003558499518,-107.30271583529438,-105.86599723511429,-103.02927429286612,-90.01222470894419,-80.29744637499118,-70.83282515514642,-53.069801796079275,-43.19845479205922,-46.03379032491476,-41.162334880632955,-28.924797448646174,-23.47860648540745,-16.63050106259988,-5.780709313720594,-6.00014856123493,-9.60187358401835,-0.07917385478758288,11.025363868637301,15.517215404653488,25.55703042124355,35.76703404774133,33.30220844940345,30.818365294652907,35.1711684047533,32.88487133362167,30.038362779812935,40.17122940324972,49.47084474026637,50.10532659676021,56.14891369447246,63.206223254073436,59.34086949262778,57.82173594308819,64.4363805496896,64.59262147129003,63.2384357533729,72.13602364293263,77.76602155992177,74.56989379714925,77.36552685924616,80.8588543869756,72.57486031163123,66.28467394406651,68.48768007203205,64.76904862875455,61.41773267658891,71.0699122681055,77.52802180814255,73.60701473995329,75.12076050743474,75.93158239585577,64.00783855019819,57.13801265949241,63.6622185253431,67.02096189665187,69.12693570423248,78.19408198344281,77.36905792903276,63.343015304842666,58.575643690379685,61.762070197218144,58.107146707535534,57.64754358374672,63.195173489059634,57.793670599824864,48.02070520330628,49.16524861079257,49.233885591861664,43.47588091173197,46.948934826619364,52.026631128297105,43.42568495516903,34.67648782251366,33.68966258800067,27.162739382232783,21.419642380532668,29.134989843536,35.63830251752782,34.33903877508422,39.23154423104549,43.134958571468474,33.62908534945609,27.02746457894391,31.041068031341712,29.10441788202918,23.061734004576863,23.971964969871976,20.390260468233567,11.126219791944898,14.506656722481885,23.356800511307014,20.295897953939917,16.029312631685524,16.230776361561475,7.6547230977184935,-1.3332818922886922,3.611710747164323,7.8183897831437115,3.629123348903088,5.4280712545212655,8.215177954213408,0.2610864616964448,-4.4119002760047366,-0.9369334720053817,-4.96027598732789,-10.506370823463058,-5.286450027560772,-3.4704865083001204,-10.34055182813178,-10.635787307414223,-8.701922795779623,-14.867989257197292,-15.4587638250767,-7.55682632967429,-8.520446416919036,-12.970196323740154,-7.822910339283279,-6.2021435692354965,-12.608664232984964,-11.806328175938702,-9.942468668184182,-18.464232980391934,-22.815037401239167,-18.342794985385215,-20.51757555089562,-24.69312738850751,-20.100283770805056,-19.105675836689763,-23.951025337606648,-18.98864861358684,-11.693291640137101,-16.320876234464535,-20.872257954316435,-20.030758054431214,-25.23860520941311,-27.86626701090003,-17.45224630130187,-10.549536589315426,-13.569306078587791,-12.811876096337016-14.009046015939752,-26.772803293569627,-35.14508344663213,-32.70091445167445,-33.282323046184395,-32.72533073587057,-23.535741382598324,-21.80940413519046,-30.11019887969327,-29.434151015946203,-23.21743051396767,-24.073559528151883,-22.250780382128674,-17.33305420817265,-24.216423696031953,-32.75339949336551,-28.11607794703046,-23.825029875042613,-25.519078143743023,-21.259574231765995,-19.862244793653062,-31.395728053381493,-37.797029324086246,-31.731048470334244,-27.783657676700972,-22.710263361382687,-10.218050148482103,-7.853375254629817,-18.16804276462576,-20.880652393413193,-19.049531929589307,-24.420017879125513,-24.443619357298196,-16.989142842300907,-18.688387733690313,-22.6006675665211,-15.77940472902483,-12.519233764736864,-17.604012412622613,-15.519116179457862,-12.571218385355433,-20.345122724297813,-23.666557404163033,-17.164400223380383,-16.49537427740409,-17.947849715286317,-12.440192019461307,-13.728054100592221,-22.961373941875223,-22.440086825545105,-17.909565702775964,-21.014780867822044,-19.064993537177834,-10.268999480412184,-10.30870879104922,-12.322576605415929,-5.361346889892134,-3.4936982223118265,-9.167628635363107,-6.78447268594044,-3.910694508747334,-11.754205185729456,-14.267288833678819,-6.468339077393704,-4.509260885722872,-4.628864476562339,1.7003843187725245,0.07410942453602631,-10.15618333460779,-9.71095070482643,-4.0814196230478075,-6.885305463793991,-6.825304830964415,-2.613273477642192,-9.373575304242742,-17.106598142528078,-11.939377318797955,-7.906061612009384,-8.954129862020025,-1.5125705289493547,4.968703437317179,-0.9907182429229104,-3.2676630509264024,2.3755819192956564,1.1238491997279019,-0.10005514769242718,7.91654424655436,9.878330840308722,4.155148852985891,6.631647080875697,9.716774175026382,2.557569001670967,-0.7682592253474754,2.496872794240322,-0.8797314409395836,-1.5386049907256512,10.752378408541997,18.49117033226348,15.578873552221243,16.17516783382886,15.043699733172648,5.186832092258621,3.8403346640750753,11.970430507249699,9.439240351555313,1.3512107825098472,0.2843395361280794,-3.7267215838483074,-8.25270884123756,2.0783502130940006,14.542327598864722,12.555346332934713,7.358125543189511,3.313360977644725,-8.348893986195334,-14.581642477597727,-4.0255086792202395,5.077690983692887,5.237498154425081,9.340037218271506,11.753309406705498,5.217293991496995,4.962448104640778,10.824057448629352,5.371819920335918,-3.2445401628944395,-0.9354354589200993,2.162605439566025,3.7993143463277437,13.727791509261587,18.8257667291152,6.828626496287128,-4.201484166554456,-4.4169015740303115,-3.853847946498496,2.6781726948762934,17.85294184449464,20.950594556066047,10.436944136841992,7.430946340295506,9.868895480510949,8.27728933986591,12.97887636880737,20.685431190042582,15.419658932396558,8.199429043401487,11.916204278536172,13.190276938658277,9.83527870769817,14.433373363805215,17.19040655908245,7.665491243896615,0.5737290276634257,-0.14955642602684938,-5.727542322799309,-7.295927198742661,2.9422237016349646,8.46982374714759,6.431100525258154,10.24730807802387,11.782005552975113,2.740292140655155,-1.6162902278739129,0.8975442716257882,-2.284586482482069,-2.7299906278594857,5.922292015793502,5.911520180127084,-3.065393379834099,-2.2271974629441367,2.3821303283814954,0.6585527636929824,5.821772684031846,15.80130643803777,13.565066743218534,9.566492702522972,14.863605433229639,13.235239183326836,4.749762262741916,7.97339808645747,14.590021652966906,11.619090452522437,10.440988525389765,10.061516596626253,-1.844481259618851,-10.741031393805832,-4.5099792701870784,0.6613615000436665,1.5199629915120405,8.885818364142063,10.936959093190506,-0.6485342828513359,-8.088807485823779,-7.52944880360685,-10.341679449771119,-8.50294409380639,1.420306981889635,1.4594573540170246,-5.204222453824168,0.30619641939390574,8.432343848635062,6.481785668500008,5.359060355645874,3.7179670336743023,-8.481028550630757,-15.249414880597712,-6.818151899536853,-1.4068135256269914,-0.7344209200563699,8.72927923871124,16.435606640115264,12.190126722365498,10.37177080864122,13.250360916890607,9.618597689898793,11.254013503785057,26.866941739650805,36.237299291369574,35.443781735133314,42.82073518719925,55.55003085132921,68.14681821172006,94.83423743602317,132.1617259972148,162.39579856075397,191.93985708314264,225.17754130130697,241.40919777393628,236.38995254928864,226.07718904276734,209.0428725279804,184.16436164351597,167.35259679677046,154.64601548562194,128.51415079349712,99.04374970686766,78.23654860388807,52.61965117151041,21.003811146786006,-3.6746798194057573,-30.946680399569843,-67.11883114069678,-93.20527143598096,-108.62455820439853,-131.492872683816,-155.96608421681566,-173.99001406774488,-198.15755808623135,-223.6320223176034,-231.96906655377674,-232.7268354132559,-238.68243301777366,-239.3230248597253,-236.91686936832818,-244.9455993737656,-250.2170789596498,-239.7356247013364,-227.89346870595932,-217.71210159645466,-198.7182559736168,-184.08449297727935,-183.7904183390177,-180.13053107811527,-169.4940639507117,-164.01985576469113,-154.01031990852604,-132.60162941081825,-117.91992588501137,-112.34298630727213,-101.52309378404247,-92.65230360589418,-92.29828183057725,-84.89090654325292,-70.2816719230064,-62.23234646149096,-51.540389134062295,-30.848672910984046,-16.946254945693603,-12.19739303052859,-4.722599262969911,-2.729404004883808,-9.726386470075862,-7.548787967579344,3.8185611377869275,9.283994603007965,14.610214634366368,24.55620678556185,25.95194972973418,24.219801353478726,36.27088465215141,51.150335668210914,56.694232498714925,63.76365591042701,69.5200782112986,62.066037137151184,56.64624241732678,63.86455583975785,67.04400974465759,65.4323960029608,71.85883870226468,75.84367880695645,71.09823550289615,73.07456746867302,78.21544109720321,71.95444774536392,66.9305615333425,73.5920693453593,77.98457119171495,79.97407928433935,90.25364388839193,96.23865361898415,90.25104888195874,88.64920563486528,90.33357098172557,81.67373598207726,75.580823916264,82.61356900573445,87.06438579202849,86.47027065994693,90.55156390925134,87.41634549281098,72.12815170025391,65.57101484003708,69.79975744298949,68.14700381670673,65.87321940628755,69.6547895965531,66.7813046059458,61.01863542572798,67.09275435860833,71.94961125813268,63.32327065124625,56.32500683393789,55.03496438079011,49.99418385308623,50.88610919245186,62.07397565806246,64.98966329333035,59.373340710583236,60.833488934645615,60.7968913786277,50.44486408997822,44.883266451562,46.082437354337316,42.98412111575094,45.48785829247642,57.18184533838413,56.90616906289991,44.09056042869409,37.1411502139518,31.43743785715712,22.208241601377225,24.610003521701646,33.92911309622684,32.95616660087683,31.762961935091315,36.58248663603235,30.731226827407852,19.01100840162329,18.870133412040033,20.051453498963014,14.463295873242775,16.174585081764672,22.004561903608618,17.65767292759086,13.45853363095619,16.342865597177298,10.994229183835554,0.5667661278313063,1.836288775096127,4.818228225791738,-1.5581151087113114,-5.1546542904717745,-7.054971421810799,-17.490149427278702,-21.758539515801544,-12.556795249575668,-9.574781288023111,-14.329196551237395,-12.76645485970178,-12.835894627972309,-19.89859832767411,-20.167356749435154,-18.084702193883295,-27.85155632947033,-36.27766129195574,-31.970478836340035,-29.441401824873243,-30.53777677113803,-24.06880867400469,-19.97323813966207,-24.902735741913727,-24.22193170360144,-20.536087379395976,-28.00085416741575,-34.501634124834965,-30.6770685901379,-32.740802152073954,-40.06977000169984,-37.63616313793591-34.95864721066302,-37.45594533955374,-29.651762395189003,-19.768664066127773,-25.514644817033446,-32.14908523085589,-28.230622178762168,-26.661886527042427,-24.810964146989487,-12.986253398599281,-7.11158129757089,-15.623829125422848,-21.420205184647862,-23.270290630847853,-30.88791208932952,-32.47849783173673,-23.75012124571939,-22.189222286874223,-26.394444003076877,-23.636498992877108,-24.594462830699282,-34.326393664170844,-36.50667836753636,-33.89068682705855,-39.34323354679159,-41.62902520751127,-35.476455273863714,-35.62584463236102,-38.06541869850727,-30.459208330674283,-25.445375600565622,-30.024545263527646,-28.915399494886316,-24.56411076942263,-29.954783648494235,-33.65105625606663,-28.957821278189122,-29.912889058544792,-33.87387447192367,-30.903145825771986,-32.94533221293764,-42.25230140447715,-39.798831615847284,-29.20219262032642,-27.69742469823223,-26.685458916554246,-20.059555585419794,-20.69662583441903,-21.53177963746713,-10.003371281061874,-2.804331451689983,-7.280520920585542,-4.9942264574245225,0.44475185085285385,-7.271223459589333,-16.125377457108733,-16.551171704303297,-20.1827840113886,-21.05154584531163,-8.599916384818806,-1.251134896022708,-7.804685874588826,-9.689441210670193,-6.680464065197874,-11.76136753586334,-15.53097321631071,-13.405603777092573,-19.439811450837936,-26.42428216346514,-19.877773813623534,-15.7508268931165,-23.296133683390437,-25.087710815194896,-21.701250995404617,-24.336448504035026,-20.644707577269816,-7.961177192625184,-5.314904937642146,-8.172872747652976,-1.4458980772779184,2.296532614538952,-3.1632495283375883,-0.981848834967546,5.102931406749831,0.6000062626337836,-3.6446563903163818,-2.5322126890927033,-10.071128606615707,-18.500869183291115,-12.419283661992193,-5.626182430831692,-7.098098884990014,-2.9570517722428553,3.3375929853212574,-0.024192507723383994,-1.1277904737696252,4.255564568351243,1.314753355457152,-3.0950101542336994,4.632001965152591,10.403081431807456,6.948714827395736,8.038010498269822,9.256806215101927,0.9209489076223831,-1.9518669312933425,4.992408492650866,4.464661031433128,0.433752683070753,4.947359380389674,4.669815146919143,-5.153274474206864,-7.79003692890176,-6.264934101053607,-11.719873583672404,-11.937329820775453,-3.7192319674652867,-3.535151688882364,-6.534903359532976,0.745979446332433,6.321491638080413,4.205083271196926,8.117743424936727,13.182181927890483,9.020535578846431,9.54339135273549,18.042669940931972,17.926730694998948,14.792916534646738,20.690337081778175,21.906333076970334,14.235545754596927,13.470769754191984,14.93234458728259,7.842807182166043,5.375606740117998,9.930133793362904,4.248046955938538,-4.248727907097828,0.7952160508673871,7.1982381696121625,8.224742831018274,16.16276304633027,22.24222818856954,13.705715336208085,7.929657579358693,12.83057057414342,11.33825426071925,7.0772543313993825,13.206270283932879,17.471610504902692,15.10329429463624,20.368728700195135,25.5341824022003,16.51680387483882,8.13128665107165,8.608776556929902,3.4681158209990373,-2.9871462050954642,1.7903016358037553,5.623060847081839,3.0210186205056715,6.92046805510954,10.819311124721947,3.709798282741486,0.7892949585785276,8.53792752040034,11.729826219068963,13.437035278176069,23.774678313757967,29.28868129680339,25.38312228666241,26.752702630553415,27.413953639926913,17.260797599194,13.828327623845102,22.987334436386448,26.303850989786135,24.67678035519239,26.37602248709914,18.958590181123387,4.226866010604661,3.1779033175549696,10.863923290740322,11.415390046904367,12.661134739389611,16.107715312014143,8.010062097720677,-2.0738203020319474,1.8203120057328235,8.453884644712849,11.94978534090487,22.694219285882514,29.77039554551236,20.71080562265442,14.128057559247488,19.179506349817355,21.61010202342757,27.85180942481855,49.38547993416822,70.8919320280094,90.08085915062837,125.49373151183954,171.04095736506173,210.8234865095336,248.36155219142904,274.86760419560574,267.8423134753187,237.10046705899663,208.2979048928472,181.17874597878227,152.486565357605,129.09020966447625,100.0942736292208,57.02782897527035,20.193331192362272,-3.2416665600549375,-31.581145837174997,-63.3708775248314,-86.43105521177851,-108.43551008735031,-129.81797427639108,-138.3260955155688,-144.42150204777596,-161.97684205063237,-176.6702689814252,-181.27052908151555,-189.6297788411881,-197.39095052749576,-193.9311925155694,-192.35453741168624,-196.82413674573996,-193.16416725245037,-186.72110432949864,-187.6179940611322,-182.78366827747413,-169.15787482859866,-162.4293512793324,-157.58184745859083,-143.27644046486338,-132.19006467455273,-128.40009856527954,-119.47494129127361,-112.824336481987,-116.91980571197874,-115.70316177292564,-105.44629652281608,-100.81506074558366,-95.45333605085175,-79.11393042220442,-65.73902496789589,-59.5363866298857,-49.2413806369745,-43.654926868385964,-50.171297934114776,-48.953025185334994,-33.55341295771035,-22.089277827689802,-15.71155363501271,-7.652356745300854,-8.716847834645096,-15.417080583264013,-7.116294130428349,8.896609208708059,14.20679666181844,16.925273667286042,21.138934392619465,15.903018082885307,12.350955284825439,24.38625469347943,37.24193237701694,43.844412134858175,54.344498910095545,58.81593734471747,47.9692484222802,41.66406465798049,47.64947077792803,50.70051466346728,54.19224097241421,65.0268234437095,67.66619799592804,61.689225857436426,64.84509684360671,68.6326761267311,59.069029504912756,51.591783578891786,54.193181903993505,54.4131377548855,56.53634478549355,66.2199782581913,66.86367339238997,58.05432905607133,59.96240385873027,67.92836133359833,67.33957068969747,67.2016031810432,69.92799662176878,64.35270751764122,61.81204121437236,72.87933710822615,78.95469643887009,74.68021736339847,75.33958308203624,74.02443521231305,61.41769724981161,53.558597921357105,53.243389724495174,46.32039988072224,41.55633452230005,48.854995068431165,52.460270905732045,48.882732203879314,51.388383376842626,51.408898473340656,40.04043231467462,34.68693445854329,39.583186182158336,39.62722922963091,39.92561753445085,46.64322272319367,43.59304231258098,32.111985213455185,32.055152468186776,37.26030168435862,35.189227489077,36.428996884114454,39.684948490262784,29.813261921248227,18.930908103724093,22.264369546621975,25.860466006875647,24.981978543032888,32.06461052498305,37.39881758095619,29.83367117114263,23.938957896856067,21.756537055436116,9.878846197698213,-0.6084895584899384,3.2137909898891244,7.5904530985530645,7.848349659005446,14.190489774636973,17.64111681903917,10.341952804046947,7.695263188556471,10.837492353111495,4.050835297571165,-4.730929241278285,-3.1015154224054964,-3.0188162717929607,-7.104679993387045,-3.5209534199429076,-1.618075714526113,-10.268891514776385,-12.680060614347138,-6.709739484784345,-9.601103072765566,-14.896599907018862,-11.305981107374324,-10.720802405339139,-13.034116407652885,-4.9492075800823985,1.5897603265689904,-6.049125818689365,-13.060240458710052,-15.889383817125925,-27.53864683423753,-37.864417647676824,-34.066692785018446,-28.945666230182823,-25.52664963439391,-12.502482046149275,-1.296404756143146,-4.0217203992628585,-6.515248682105455,-6.437670083881817,-16.927653238341225,-27.10055927187869,-24.650257172768377,-23.005316644024102,-24.872392152291425,-19.20184646220555,-16.572870708528157,-25.325979359440428,-27.222678469057502,-18.264693445122937,-15.256869416692634,-15.747959804726504,-13.328249262009727,-20.579411595679378,-33.5280992651925,-32.03809019562906,-23.08044710968065,-21.323148844903404,-19.06665097032544,-16.79009813734517,-25.038250718996284,-31.339300504256425,-25.23858834648744-22.278662364791902,-25.389575247668315,-22.5093887100802,-22.902191605858704,-33.12489441577629,-35.342169140555576,-28.593685291164647,-28.66121357400169,-28.107723503176594,-20.043709988688416,-20.147542623754216,-25.564264111765315,-19.15016389354752,-12.286614566378674,-16.14846539489909,-14.29177881628397,-5.177025577056943,-5.520187912234522,-8.878122698220448,-6.267045940870339,-11.253142552338963,-20.87548932008796,-16.76033422290263,-10.076190746046784,-16.116388611001195,-21.496853540999076,-21.606286574797487,-26.490782913165884,-26.16695584542673,-14.573092632189956,-10.223773585866285,-14.392859910933032,-11.413400867460464,-8.64747720766352,-13.419285616619005,-11.202400946174215,-4.442685535406529,-8.981504045055091,-15.584317180788506,-15.54450062329652,-21.242154792079848,-28.02950648740171,-19.879990481613234,-9.440386403385345,-10.589004987161355,-10.744798261458506,-9.187762315103203,-17.768000213186877,-23.61414677367224,-17.219974488254636,-16.70396257237679,-24.521344133116354,-25.365578646370686,-26.00106782599569,-33.35166829036186,-32.75523054169783,-26.263865564633463,-29.16614660437208,-30.115415168459563,-17.653369146625685,-7.100239326487628,-3.2257610185983867,3.535258416666153,4.350037403248473,-5.063765844679308,-6.247535804889628,0.8807741511192311,-0.7806006831328867,-4.864013139058375,-2.3782851197575052,-5.043455005804457,-11.082543773145622,-6.892501913603187,-3.2533464245023875,-10.086409752529294,-11.997185676056631,-7.723336415599465,-11.358388541889937,-13.300420005397608,-4.110602067115811,1.5814690178179123,3.6887838719862227,14.955055836396348,22.378115803975398,15.516096294033277,12.67966748780028,17.413241241265347,15.621361336832383,16.12871878570605,25.60271782616052,26.32793380338289,18.687620063544234,17.998257070760733,14.240076046065859,-0.6230342152686541,-8.522868138469287,-6.187300508109984,-7.022634693779181,-4.542645963424363,5.690955816141873,7.148247385731368,0.05465226779986265,-0.9557242348369368,-2.705218741399414,-9.827010977244127,-6.117888042822866,6.23587291149383,10.334946434723253,12.860606515056162,20.832570482284904,21.568065943000583,18.008084933940044,23.747385971382094,27.14563004842259,18.8218149020342,14.667925881376284,15.256382650651263,6.226396527280742,-2.913574517715361,-2.5231338571889124,-4.500174960846117,-5.981322557913021,5.5156141687525455,16.121964309677242,14.302981919419238,13.754099264533437,15.238126057347632,7.679654055819688,2.319760562686469,7.618858741918446,10.003357180368692,11.68883861174309,25.435182340850414,37.00150091498025,33.65040319963572,27.999061554218212,21.21454211498063,5.918967103074264,-2.5871941763735764,4.20025487955796,9.068983068116005,9.774435989247037,17.771563486709812,21.805389753271314,13.801031609622498,10.318990609738742,11.235371132831311,2.581544035851377,-3.3096605997431103,3.1160083228206137,5.0648505149939,2.714821550372224,9.347286702192973,12.377609858121406,4.258219872244215,3.4355982577103408,10.065881133428547,8.912439346220697,8.599382428501462,16.170480296725373,16.856845648154998,13.287574900372574,20.116680583012073,25.585154221866567,20.347970093307985,19.78320593422449,23.037434021613215,15.505186351922195,6.361205538379357,4.007523365269648,-3.227264748118684,-9.898735201553661,-1.1703461195976232,8.045332828986266,3.569718189510082,-0.5500995614630917,-0.7020336113736492,-5.36523256726404,-2.466181879281358,12.379212798904252,18.702203910768596,16.83381040813247,23.31261682389657,27.97882734966672,19.653492924087477,11.340665208914436,5.219320490222878,-5.640990718852169,-7.405476720174799,4.142964365278577,6.788841784241177,-2.409266308849221,-7.239752568357172,-10.47339211062747,-14.596375596875557,-7.766985688064993,1.5646964760851634,-3.543371880045979,-11.3197170767409,-9.995955896173976,-9.10470913192228,-4.611647440657576,12.945781241832293,25.777934146814708,21.809577141436563,15.176245531592915,7.30601754060583,-8.606119259595197,-16.464027445301486,-9.03708080499664,-5.834644412962962,-8.654635183202174,-3.2613171785973947,2.0801076306732895,0.7897395444722921,6.546267922273586,13.25928740420192,3.9299414501752583,-7.8054170385245465,-8.430603322709189,-9.133905013805922,-8.1827078298572,3.6095617243812184,10.354023900614521,2.4884421925856834,-3.926205234822132,-6.885165354002574,-15.566858516814577,-18.30554920316376,-9.739855010421792,-5.376174804878469,-1.155356856774814,17.596047278322494,40.47336933758834,62.06666989881171,97.20496559074523,141.27532599037443,177.88055965306614,210.58748332496052,237.38586138616753,240.722378951675,227.12515064768257,215.47598510131462,197.00487219625728,163.2127336479763,128.274979877166,93.87902498619582,53.448286331270154,20.869189156843973,0.10136812819639518,-28.19713121069593,-62.56693272565499,-87.05836440237128,-109.3181768226305,-134.35417334894055,-148.2979127774871,-156.33311241498882,-172.4057905304761,-184.83140957641768,-186.81133734510902,-192.09286460700787,-196.1159717688248,-186.87527747605208,-179.53105336938623,-183.20272652125357,-182.45679555832618,-178.60122763458412,-182.84187489289656,-182.3768787601291,-171.18521087949364,-165.07847577637625,-160.26456766153217,-143.29835405962808,-128.20039661029207,-124.28465293482529,-115.98824552716593,-105.52050934302765,-105.85209233273764,-103.00300804409423,-89.22036178264798,-81.3474522589442,-76.84424722875269,-62.843894237743015,-52.750492547067765,-53.13574321629138,-46.74414266317778,-35.961666470374325,-34.068773606394075,-28.682757846107258,-14.071127977671665,-7.512161198924192,-6.391775591381881,3.497874755177024,11.875700187992264,12.727378174941851,19.331331401840377,25.01993451148682,16.90180267158915,12.259764807705254,21.482200445110543,29.2337879793231,36.67961060506141,51.94286858996116,59.08494273643694,53.24190784374531,52.422889934439226,54.1178149352379,47.89080786781764,48.301527334263994,58.885229018434245,59.83346043446031,54.3792630306415,58.37698132905205,62.86671150095426,62.67157272623982,69.24228770835899,73.61999803261587,62.62766415508682,53.11877977439079,56.27769379283595,58.48953421545732,60.29829782566969,69.42400840137013,71.08505361999784,60.44258855873938,55.50754114356977,54.54752294632536,45.435917290433395,39.97801806700372,43.62353689760948,41.940205998188155,40.38890791140661,52.31835930660152,63.5026446039998,64.24450104287715,67.97246271641215,71.05976471463167,60.97981054308983,52.143181204263364,53.2022152512396,49.10965545392927,44.291263960895044,52.55807753649889,59.44796679719396,56.047685139007754,56.24183728284066,55.36326084193473,42.16710459271677,32.31986231283581,33.23845473630809,29.03385282909756,22.580240488487227,25.69439549342752,25.41041162478754,16.858169387459423,17.450388112296338,23.574415346980935,21.363632206140398,22.34277544628042,31.24848066695002,31.744219555765408,28.114552468121417,33.74383910755525,35.65682093533094,27.919920026392624,27.50503977805183,31.612676485301424,27.110147486191458,24.29953550733225,26.568957654595366,19.657782410039577,10.959123976896445,13.76189066698858,13.807792579936185,4.499727835912425,0.8447780703853899,-0.6666792466851064,-9.784593281412286,-12.971016114986174,-7.5993848522693765,-10.8091183748491,-16.010406685006764,-7.307117131351851,3.54217600531085,8.923855029425793,19.60474048717679,25.925809574255695,14.3680377030758,2.7512599005527667,2.1870427117957814,-0.8889307366315469,-3.582671134694653,3.3435581183536836,5.237621696002831,-1.9836822209165907,-1.759314199735654,0.16585393047145203,-9.163772908730943,-15.515085808964649,-12.552297824517764-15.319520186752147,-19.647692398355364,-14.466410337287659,-13.193010112995413,-20.17700060629119,-18.941129709596566,-14.582411530502743,-21.12129991169209,-26.32731641510616,-23.687463015033607,-26.329288974297107,-28.42908625025161,-17.969744017749512,-10.099677201723814,-13.490209071513895,-13.03979731187069,-11.223714230526394,-19.15358209732651,-22.291956744997478,-14.775153567755067,-14.077663205346683,-16.690480022320997,-9.486543336305143,-6.180572936789707,-14.03007614358306,-17.303608896064024,-18.91086990616733,-30.29735978794568,-36.92456581379089,-31.504167871370278,-29.834478220294688,-30.47995971254722,-23.961380636763664,-22.732458883709207,-29.536880552882355,-27.43174480156264,-20.5235205496586,-22.293495237311014,-23.270163629942594,-19.49171651678272,-23.10637951721249,-26.556808301753023,-18.052150904527963,-12.3978560948194,-16.0585252622403,-14.25838436630052,-11.574878792929914,-19.510104525871192,-24.809868452366327,-22.565579200791994,-26.16468684037442,-27.63235571436224,-15.858199623032636,-8.69055810725141,-14.597543392014474,-18.903032908666866,-23.360446267298382,-34.01255879411511,-35.71130691650993,-27.96714534481788,-29.585336581137767,-34.327094222763236,-28.387729170309886,-24.204624264944336,-25.84627585096538,-19.086324271381763,-11.771507424310993,-15.982136383670445,-16.39110112833327,-8.361986461531888,-7.525457604179423,-7.243707408423141,3.227224715155995,7.38241082321026,0.3765093659728338,-0.24014540959916064,2.5577710103905273,-2.035709530360841,-3.0104892648855834,0.4983489429470309,-6.660028600159193,-15.87682253241118,-13.294441974376902,-11.76444575279761,-15.58398420586021,-9.938865680899553,-1.297115635074473,-2.2252010402288054,-1.52320356848009,1.5097847610444433,-6.999808622596,-14.259594393141018,-4.883946869969918,4.446069450806898,4.655268725632662,8.061040122652196,8.511636260682362,-2.495943866066809,-6.171726421369205,2.476224070922248,3.554424668483809,0.12189550367927016,4.592510706364733,4.351326362822686,-3.3224242306828167,-1.303877212820725,4.931468130954245,1.298291448316757,-1.4269415406322632,1.845876675705346,-1.838711817818534,-6.898715753052579,-2.1810400256779214,-0.7349264893956556,-6.729766264431943,-4.870042203782129,-0.4289236104688159,-5.024537245351394,-6.034707582630592,-0.43325850172869584,-2.7327516117673447,-5.183538797973179,3.172288329156154,6.9671134042209655,3.121851475608017,6.963824544125677,10.048065804079036,0.8274655445804227,-5.151481836118282,-3.0821003964282925,-6.6000126233097225,-8.239775028597917,1.7163812281347104,6.660966538957295,1.8427369236313096,2.614076015880654,3.233620119841875,-5.959616708879375,-9.030710474385309,-1.515542797831392,1.0139799110409142,4.148684897015895,16.538924501174453,20.02715013446318,10.170918161799182,5.511639358136611,3.3201912218309815,-4.826443667989913,-4.866624722043479,3.1180409438951666,0.7183651152214743,-4.833416412935641,1.3803265518648624,7.769100008435816,8.573607976393397,14.591891584687373,17.74286629785196,8.810367024408658,5.0738800556122285,12.006185150896327,13.652871882971098,13.811008860416834,20.792835676135937,20.497670438602746,12.378646281398886,13.436129324579715,16.835487511215792,11.50495187180302,10.974467586795292,15.845098415044694,9.470100909348112,1.0768748172418723,4.722406121496631,7.108896977910613,4.866970400845934,11.307079982653688,16.6375000111532,10.436128761203125,9.240522276246713,15.241436513247933,11.318650543371836,3.661135778794965,4.04715953232871,2.4944889712030878,0.028184346242696057,10.06205682164773,19.151763615627694,10.499539452309213,-1.8142236549352635,-8.660153583290366,-17.753773204998588,-18.62384837008375,-3.6581316130762316,5.70437563361018,2.2280540870558214,1.877517942581505,1.3592528735313352,-6.6464921930665515,-7.27998690044574,1.1358651657270333,2.5792409011934945,4.535162068184449,19.94239327320005,36.28152842685011,50.87633468622669,78.73198456251657,113.08707093158448,144.1414352155674,184.56053295849952,228.92380617811878,250.9762685004789,251.64719029170482,244.5735108456876,226.27914791125352,204.35648852436603,193.8978995286029,178.96042595965488,142.55441262000696,101.82741271258693,68.80580592387537,37.2183234711645,14.856188679952679,3.333344743190545,-20.101033959177055,-57.54106129806183,-87.06902364433634,-108.85995155198701,-132.00994268187057,-147.65917142543898,-159.07332496599216,-180.59337268073446,-199.35611986740747,-201.54812379801095,-202.8638537404732,-209.3022213071585,-208.78823965117738,-208.18119403609862,-214.71185079893093,-213.1751753597951,-203.20814715017664,-200.27968757604032,-196.14013252008897,-181.07908200255923,-170.50507027990284,-166.12200121611278,-151.8032030416925,-135.933002652872,-131.1371714052192,-124.65654204623758,-114.80768952874952,-113.96220796825222,-110.53210242625266,-94.41696151085647,-83.58366848070673,-82.45124722456865,-74.73273536468902,-63.908021253101666,-58.12838012912612,-45.6911999821329,-28.85427156242082,-25.075597469203554,-25.8362847267414,-16.913891315936652,-9.133087338425668,-3.944452312295166,10.589848038560724,22.043674014325877,18.912147720356547,18.39775280519041,25.10131948349958,25.043898577413067,25.314916694531046,34.60497838088829,39.193889255379844,39.625182241040065,50.15612391396486,58.67635695316084,51.957144967866135,46.58899086710248,53.31685116535901,68.86176667160868,97.65220160762932,127.59828462574957,133.68183384622768,120.47676175164116,105.5827121409461,94.64317568114703,97.443075759109,113.89423989629584,122.0416108622116,117.64117764615214,113.76415305293781,103.58784306001205,83.93270966591402,74.973966698038,78.34470458062832,77.98660460748134,80.42461172126409,89.8326086392705,87.09010238070883,75.3480080525289,75.37018304257326,78.008391268462,71.5484796987092,69.8011721082054,71.98030093353917,63.304405688902314,54.22632313232696,56.01616607332006,55.22014989946918,50.64206233770243,55.40234573056149,59.057474402541246,50.519086878675445,43.849674979417074,40.83716560245407,29.736387697724922,22.830242800427673,30.98159940691358,37.8364526488854,39.077693407296266,44.62245824453586,42.15634412889697,23.41918314335534,8.076128886006789,2.315699349553358,-4.523053527134052,-4.062552645087264,8.055584506303607,11.781234869436718,4.64668648485105,4.061972303596282,5.598977949038307,0.46799354052482345,-0.6098716602203182,-0.5950128695831894,-11.904760723772219,-19.263730794099214,-10.61666395780037,-8.342761412052763,-33.16051716997783,-84.82603025896248,-151.97029022104581,-201.47933187320083,-199.4561873751249,-160.55150350604916,-125.23675945349396,-110.04367109364071,-113.00253439715212,-118.17312192392092,-103.04543038016935,-79.23090685910424,-75.56381256343647,-83.06898714051515,-80.8550649020721,-75.48172634167216,-71.09461595889765,-60.731662201950606,-53.77230177508831,-54.285282005962884,-44.093967935976856,-25.956644305568805,-21.712089919478448,-22.877226715250302,-12.525964532760245,-1.5240053493648569,4.414997501308524,12.603756987006491,11.941968591699148,-2.8607712343477942,-8.925804757919305,0.7883405149049523,10.771027213779366,22.402340108387126,35.43312067099627,31.491615252306854,17.72625736243824,20.45339744847472,34.709429525131874,43.40378980404589,48.79658054741272,46.25034905333022,27.76681587754142,14.371808363274372,22.59656848895014,34.187552605049184,39.06587995884578,45.274628849768824,44.58712880414049,33.7163839007185,32.04104306640044,39.41425249799516,38.77515189605517,37.51821561206547,43.61872736029414,42.493076630397105,35.76927325925773,38.80995474903896,41.274651956560916,33.3569469142593130.2750136650013,32.8879671940032,28.397462777870686,26.8821553601616,34.94120018832707,35.34262697828366,28.2813761350607,29.773319060203328,32.48347972379188,28.62014093939009,31.58450434305353,41.54455923722084,51.05041987575517,73.22858084101286,108.33828375856096,129.90778038217428,130.40214203057116,122.72633772249671,107.34018491056645,89.55417657341668,86.88443936238914,90.4931841361772,81.10966426215579,70.98722998999207,71.0455509712874,67.00481661704397,59.73199948437977,61.16143780128219,58.23597076158058,43.46610473385793,35.71133021713702,35.08065580658645,26.131684873175537,19.547157409103338,23.47447220323276,19.764933598076155,8.09866059046476,5.173463133792191,2.96381439271031,-6.371821611346739,-8.63953699265507,-7.9934697267140375,-19.92486034747461,-31.54349750299177,-31.981347151911542,-34.776234060772914,-39.44925646239117,-35.92172967595982,-36.63873541403134,-47.20163898291309,-50.21459525462919,-46.57477237224156,-50.54767717282316,-53.67239453428262,-49.388555018776806,-50.585877217628564,-53.423686026331126,-44.769359885333,-37.34389349264763,-41.10638134584905,-42.79043136902416,-43.0959274498334,-52.45931121704986,-57.67345054009808,-50.12397423024342,-46.380975154003686,-49.11084283932614,-47.00755207351416,-48.37124835293313,-57.645031558308375,-58.02711701576615,-51.34781302013217,-54.275726788749324,-57.781858669648756,-52.02444591527022,-50.8493208107474,-53.56473318625159,-46.79423267426679,-42.12502688434736,-48.29686907136955,-49.21470078400481,-44.872338552813176,-47.980186363831116,-49.243232300755174,-43.91944261909828,-46.68710794209565,-53.197155968579345,-47.41478564348341,-38.66734214689494,-38.56201934063877,-39.712787315631616,-44.956628732414465,-59.7752304452383,-64.14529584136537,-49.456065261684614,-38.29970791691844,-35.964366642516026,-30.60237871669299,-31.559021789621323,-42.28099621964095,-43.36927326801776,-37.15828239749216,-39.94608720348758,-40.68391137988818,-32.097427208137596,-32.49027414151382,-41.160696588777675,-40.83256658462636,-37.74212561262722,-37.78928694199606,-28.01968832971915,-14.46917233232124,-14.34753378885091,-17.732929996773894,-14.922025258384476,-18.00341900703706,-23.58343518823662,-18.190527946093724,-13.384764382364043,-17.27826220960253,-16.02142941092188,-12.850249045654675,-20.479487583226398,-24.535901876517052,-15.045121333577253,-7.974919549547673,-4.1145114621414525,6.29343230644585,9.080345321024506,-2.112913359711815,-8.426175114010848,-9.40479042458158,-16.62302628098574,-17.62249716081183,-6.5373233069382675,-1.5056760886979916,-2.1573803354260193,3.466903396901858,3.052313908586398,-8.340810086070423,-10.762138310326446,-4.492774632505794,-5.699340869650657,-6.629494540272386,-0.7449190654490847,-1.4387728667707458,-3.7035013652807005,7.028382756338788,16.59400456148621,12.525720745588348,8.658685880404493,7.407013532573738,-0.6265876790157789,-3.8337412625111145,4.378900954136498,6.7792564584489465,3.802126907696052,9.473836936127595,14.227415473057258,12.497548989680489,17.833755532596726,23.34710968870775,14.29708714601492,4.101370602682825,3.5691875364940264,3.308024025591922,7.92122690217128,25.003207483539384,36.16644243105776,31.81308962691771,27.709965732777086,24.03682760817447,12.34041817823229,7.498482997311168,14.937317422848668,17.908903388486422,21.587040316503973,40.2825987830109,62.039957644004744,81.92989892258962,114.4154975834807,152.52963927121667,182.65259979006953,217.83354503087838,260.2860239410519,286.14371370205623,292.13489876180756,290.51139680009214,274.12293306614845,243.36363551045707,218.72973795653206,198.8994739522052,170.14885458303038,145.36261167154646,133.79747443631575,117.12072234132552,90.16449510520825,64.09005344753062,34.17552145306263,1.5556117801225966,-16.249791454165617,-27.37241258127085,-52.7027771716974,-81.53557648647904,-101.15271089875628,-120.55670850965481,-135.93555229517736,-140.21731629702035,-150.58996010671115,-172.48731185261136,-188.21646214678586,-199.72375047469978,-217.463591348756,-227.19312076967088,-222.91436243228475,-222.5601095316489,-225.95655406129805,-221.92162023901335,-220.781015226565,-224.9561107032992,-219.4588857527936,-212.17374296159556,-217.61292018802533,-221.22324052043857,-212.7801516919553,-204.28287207415886,-192.75382401938717,-169.61782008632645,-150.93658954383574,-142.9404380892445,-128.7888232407662,-113.00051423784222,-109.77007604600098,-104.6746295302784,-88.94025578733658,-79.00450843741515,-72.6469516904174,-58.68995701246726,-52.7461066546166,-57.981891547029825,-51.21845596395717,-35.06418918381918,-27.87298257607775,-22.046536463958535,-11.686694217490338,-8.136857399208097,-2.9117178373620174,17.388027640737825,35.20449421773924,39.61789267419264,45.89562261059309,52.01603956388454,47.83456854631547,49.14272806017128,62.37126594154691,70.01252000175316,75.09567278682343,88.99278924136266,95.37604799183957,87.74439258896845,85.41683118830537,85.5313369688188,75.11813587293292,70.51082020596505,79.64914320381534,85.06330385051322,89.30468325248754,103.09459140992203,110.76708545164615,105.35236567775547,103.04893898863155,102.28943983447098,94.36483935065999,93.71200733416643,104.02619998505003,108.12784143534226,110.17927801895127,120.93306167966318,125.02349725539953,115.72839801964417,107.13718627885503,95.46889288932744,75.49822723137878,68.59128824408315,79.78322461557909,87.22806723078669,91.05957825711528,100.584639750254,101.73768432182928,93.55211207143212,95.45959718088179,101.48362594671019,97.10993608193098,94.10464046627757,96.37922411556855,89.49105084378094,81.47465015283589,86.48059135532657,89.9617548049415,83.93792480835673,82.30811946648866,80.56951481161327,68.26451390135115,61.63963089886818,67.29733621975203,67.32043562985281,63.76500598054387,67.33500829747909,63.29326436822182,47.96870366526554,41.395632185579686,42.109817533605494,38.138551874005245,40.4047378169078,50.371175128246634,47.992002182477734,36.684585356116834,33.875840586450664,31.625803399622065,24.886751623071152,27.199300249114504,31.463767689497363,23.169848563833497,15.627234850779795,15.733627542764221,8.81394432473531,0.6312601993846849,5.436035605282262,10.884052056373804,9.48435767377955,11.644257503886564,9.890528784324786,-4.4908447716079705,-13.550217612666511,-11.39457425643705,-15.067658026329813,-20.271625117371432,-13.624092298572972,-7.458291830353595,-8.305139704117337,-4.6021667166453675,-4.59789549447367,-18.45675398139121,-26.899946510189526,-22.216075958087856,-23.322985033992364,-29.75644332413819,-28.666419324460684,-28.80591503858812,-32.29332643594959,-24.326339644151773,-14.598390323340343,-21.404031795385496,-32.77006242527928,-38.46841553116528,-47.24619281951511,-52.06203801183482,-43.368590479076296,-37.34810175815041,-40.55297735308062,-37.47555681285798,-31.457789990515117,-34.13845727922701,-34.58824961219632,-30.330263630837862,-36.217946063108165,-44.41880718332678,-40.63696344085482,-37.756567683364864,-41.09348924761774,-35.62828876695851,-28.30789292907613,-33.89628696163151,-39.8166830887522,-40.97591878938042,-51.92595073309105,-64.35638439818426,-63.06672795237972,-60.515462913024656,-61.34470539823535,-50.67761327862092,-36.5175821416964,-33.99226013701979,-31.219977329955043,-24.686127938901198,-28.956839067480235,-34.85785423872505,-28.01608309363741,-22.52074801138368,-25.525710092962658,-24.688629912067086,-25.479762257694574,-37.10933514652099,-44.244614216604774,-42.62272341562617,-49.05162920407879,-58.04830399656681,-55.72387649548642,-53.908467976771185,-57.93590328689602-54.96820694368762,-51.438861398699984,-57.909818984402904,-59.18502766343521,-50.55151137875683,-48.88548986481674,-49.4935664639735,-40.037346354179576,-33.7386916724232,-34.90638908801735,-28.215044826883563,-20.187500455236282,-23.80371692041043,-26.60072276730308,-24.977234498520794,-32.28343687632161,-39.48546526165018,-34.13138554603927,-30.14841758808259,-32.22465023504485,-27.640205608715135,-24.355806989157347,-33.668400714669914,-41.21035617839587,-41.57415878004919,-47.09906178345858,-49.895606592775664,-39.732223588459355,-32.304823005875406,-31.20559380189913,-20.902777716214416,-9.32459973494008,-9.710731626648565,-9.77207603817658,-6.614692401883339,-12.902142193344714,-19.02753888495584,-13.4615368269457,-9.951049533671974,-11.176259179304344,-2.9166268063896985,6.163661683814999,1.9136268611524203,-4.029548358005417,-6.0357128716974735,-13.632216111933971,-17.2742811913878,-7.228268470618639,0.022785937445764404,-0.8187866525910901,4.611871925476335,10.445590276239457,5.420424001771899,2.147070448211419,4.6411739299737516,-0.2833587185981301,-5.307107366059395,1.1597458910264562,5.391090898986612,4.056448530101711,12.392689673650763,20.946220304710145,14.745955737384518,8.645963664109502,9.435556134410788,3.954987195719921,-0.1903667933456179,8.411136467885216,15.49818240560315,17.395331238933913,26.92583489061026,31.9429141843331,17.94775112048396,4.099124095176181,3.5803364922442062,5.467919321144923,11.788336309831633,24.729759250439717,25.00547989606143,13.59772869229689,13.723266028354464,21.286323262566654,21.206077683701622,21.779733044147267,24.832824840207365,18.42289872899067,12.884811812549163,20.243457417379915,23.758340801972402,16.975793913384784,15.011651688264195,13.298213822935306,3.9436153998933277,3.7019479051904183,14.406943895922476,17.393778455573745,16.9153119485127,22.155627399425356,20.18226551227672,11.086199245223838,10.744472014310434,12.043712478019984,5.68031678111436,6.46918930862769,15.040697475314122,14.194970389635522,11.375483119809031,18.9849025722697,23.587614147059274,21.016830879301217,23.484393098769026,22.92052298182873,12.160147347059,10.281846643279806,20.065779404743996,20.426337892086973,13.490109629211556,13.600495857174145,14.146858193889447,13.97945770784812,23.66278514858059,30.412695453312523,20.361360110440735,11.04946753355196,11.785159455961706,8.866531430168635,6.556147500452809,13.621274737759057,15.609496599667114,12.013507891952031,19.082368595531925,25.601732236549452,17.38128835227927,10.43437415276781,10.808692169230685,7.211007290883034,9.24549595938401,22.734415144290406,25.571155796858633,15.140615235994986,13.362345878437962,17.230546344062052,14.581763399404782,15.096746039782925,16.929435454921414,6.502451835189833,-1.4894776842306312,7.05436330867764,14.084528785201979,11.774929403275333,12.680209991529338,11.349729094129154,1.1397135769497835,-1.5784476310115325,5.033967751167909,4.140011793946112,1.6232838934018972,6.689134194424309,5.124829220869442,-2.210042416759735,1.9516311896964753,8.402753480507286,4.710468057415733,4.209234309832151,8.909673504572472,6.178492906892405,4.448973497249652,10.76210686942304,8.736343743556409,-0.8673991806410779,3.091836947342721,14.65979658822137,17.212471158625767,20.356935105434268,25.42660017391908,17.580334132062532,8.925321294777607,14.54008445447054,19.66336872281395,22.21434304149876,40.41534199832767,67.69810497416731,90.09092210482221,119.6466489496262,159.9775754311845,194.79286534333846,226.0433568360849,257.40554182123446,266.9676070388533,248.4700780309127,222.54296360270854,193.11427368770853,158.20711060164558,132.7724414507004,112.46277750377385,76.578328852303,34.49088701212294,4.065227515922861,-21.170658202432584,-42.911977775013206,-54.40579882899345,-70.4372363408674,-102.24251873561076,-131.76817571899167,-150.832156136059,-169.7685278785034,-180.2760981988668,-174.0125864313777,-169.17323443991722,-172.72562278514792,-172.07849985412278,-173.399078222277,-184.78716385269385,-191.99011351905597,-194.22181759448154,-205.33497868250922,-214.30197507249403,-208.14722114521794,-201.39958077106155,-199.1959328378501,-190.14036267173617,-183.01833853548027,-185.84627609627262,-182.29671019760468,-172.45977878068138,-172.31594427262365,-170.64188845324068,-154.9524668775102,-139.864897273429,-127.89227112752378,-108.3224981234039,-94.87189922522948,-97.49580213091377,-96.57308802386262,-87.07091375438131,-82.77303651653523,-74.9406182937001,-55.66337542111724,-43.935681528421064,-42.604173103983456,-34.759547503292346,-27.90254088146647,-32.40987226533409,-32.66649986900621,-26.474518037147654,-27.370685320976342,-21.814474081423914,3.0024109062999145,26.66904201595204,39.846882412026474,52.61202024735457,55.34488349872098,43.18317504579471,38.835815655709354,45.7214439240182,46.264563030896866,47.79695589826679,58.84619734209246,62.402221979072436,57.648668374428546,60.874155790218936,65.155346727644,61.77104676392908,63.99194807746295,71.64450804837472,69.19928907908896,66.16644549793514,75.75715293735105,82.86460340777722,82.46627167475995,86.99289133542428,86.93804594816987,74.85897543037804,70.95859155950343,78.32988693391913,78.97473741948947,78.09418430456431,84.02360221379728,82.6126534460538,74.76821919498384,77.26196634563014,82.73771528493147,80.48949394686029,83.65540400601658,93.08760818484849,92.23804880279567,86.61182327040143,85.7501328965958,79.12482259936567,71.13187439650015,77.68454899177488,86.45273173927436,83.41165514694481,79.85991835472981,75.51547988407934,58.98040954357424,45.225122937041,48.22219398297629,53.38739448355154,56.96481297798889,67.99234606522677,71.20451304087268,56.75743801936547,46.17913767567516,46.80620655711737,46.156377912491706,49.03043675588922,56.652127084942656,51.15129141650937,36.48062066977813,32.411059785429025,33.10264777186817,30.233983461877358,34.95896106821868,42.70403452737627,37.55152815048982,29.02113377552537,26.673235548727124,18.61714905222115,10.024674812179175,17.965459291647136,29.608574532917388,29.771701249498577,29.15624794982362,27.426667813229173,14.219405602862192,4.4644415893003675,8.660356771258892,9.661021020566068,6.20583529398251,13.340437331059421,21.14884806509026,17.908141312079387,15.643155660457706,14.002888326296635,1.3972054321665084,-7.827421718956291,-1.4832784666143919,3.5236845143904727,2.2795353283896436,6.0932097842166915,6.193349781144494,-2.7269494210495853,-3.984655660706248,0.47530973067128635,-4.130281799947328,-8.32539423695388,-5.843418344753544,-11.143402954185326,-20.698289412950082,-19.075754102540834,-15.294355389818017,-17.480354071376173,-13.652741864814663,-9.16406884301014,-19.173122502275955,-29.205485388713807,-25.422353329421625,-21.233417273355272,-19.823980414029315,-13.269084562258037,-13.374446879660367,-26.666996375955677,-35.20353243310829,-35.25011863652595,-40.189003933754385,-43.81794367469948,-39.09219284099671,-39.80744677065502,-46.08871477510381,-45.14217756067718,-44.93027465886499,-50.92424405739786,-47.570834371847056,-36.337038706298486,-33.74932494120065,-33.86989362747185,-29.45601285926527,-32.25502073669895,-38.17679373356368,-32.072193133039484,-25.175040598871288,-29.082382091038696,-30.984074459902814,-29.657679771494045,-35.70663051962613,-38.644322863358546,-31.99692931545914,-32.30253595396098,-39.6113527898375,-38.4864574585711,-34.48220368184778,-33.86323470884274,-26.051134519682964,-16.824046932381798,-20.989850850352642,-28.04439606356185,-28.59476474836586,-33.27160414365201,-37.55780356613731-28.262842202286095,-17.454938502049483,-15.93164493762221,-12.859042008274582,-10.944638840027858,-21.04061322818714,-27.992955916445908,-22.004868397385827,-20.305836310448715,-24.1363691624694,-20.22272187302356,-17.998397800017813,-24.353074632292397,-24.75123916199352,-22.505083143012207,-32.36275934668933,-40.00721443805628,-32.01307562833571,-23.851614415924473,-19.51457456881927,-10.189113207363185,-8.64157168857367,-20.118768820025153,-24.185222661992732,-19.422631083566063,-20.483705739275386,-20.099486403048918,-13.672544052530007,-15.52847669183711,-20.13059666210552,-12.153366646436071,-4.286791579819099,-6.442129988710211,-6.175633554791745,-7.308265643865942,-20.392894552080296,-28.604820683862716,-22.598483803687813,-19.303646852512788,-17.652484054498913,-5.198926923600542,2.8421642432800676,-4.556000613871513,-10.267134304097237,-11.925473614127991,-20.705635906460753,-23.71928194418243,-13.37453886146755,-9.18177942033504,-12.672318220193842,-7.5078895595431545,-1.0811448073054823,-2.3181043464575115,0.7104674131892958,4.54032570098582,-4.751336853865689,-13.614059452283236,-9.24422716899937,-5.280279574519353,-3.865809557373123,5.21248540112291,11.563916371397532,10.535690399598698,17.806331684497074,26.661744355177383,18.83736054896282,6.651684058619376,3.400415029335634,0.580401915283681,2.729230744016272,17.135590662149948,23.62082809675261,13.209693393440887,5.3055375730379835,1.4313716911262182,-8.785917178805805,-11.915094498458913,-1.7975501141526582,3.593871518445228,3.4539144305893354,8.115228849608908,7.695277428906683,0.3671868030534835,4.2220430564164735,15.860403297434067,17.802047425027517,16.854476483775095,19.691549980294422,14.387627463507474,6.772605068579411,11.433569128153833,15.859657215499212,11.56940962400547,12.653184256331858,15.16870925650084,6.766221558802497,1.9390036451754056,7.118285669268906,4.39148019502565,-2.9493513911547273,0.49688845570071294,5.063521097082274,5.631402823314685,14.925152136275532,24.807280116705815,20.553001914028236,15.801570988655968,19.070497668775918,15.757191113941854,9.309874019628447,14.635454673118373,21.434666532763405,21.351012949281184,24.765828747687863,25.11033391568737,11.424652415292398,0.44871222452079706,2.0831473871126,1.8812673421706652,1.8414719227028338,13.528167828692673,23.465381186424636,23.37286436435368,25.522451360423105,23.27107172236695,5.499510800541635,-8.081686551403024,-4.879579836962017,-0.02968919458768382,5.866032135257017,19.72687585766501,24.052859728307844,13.587348790269955,10.449224118882857,15.497303905304058,13.712511356562924,12.081948531994465,14.104100774890233,6.425522949170032,-2.5336702570795695,4.15537051373779,13.568172313380831,14.959349510942527,20.13960769616693,25.118756959974966,18.585769122266058,13.535992675064964,15.208985282650453,8.810569175237722,0.632189912280313,5.452804955213745,11.72394854881508,11.613152096058219,14.894114276982577,14.24381396063387,0.2525912368115959,-8.395191037979428,-1.087036690740681,6.889034718809017,12.412238166162167,20.78446237213418,19.298456410703704,6.339972237507039,3.1489239978936587,9.26145767135211,8.235110764637858,7.84991102610326,13.40083854370536,9.359738365242965,1.2183479223183669,5.376096796309785,9.705643856968054,6.110740434017007,8.390941824460407,10.605287815225001,-1.376370095123419,-13.170123155801559,-14.955354544358135,-20.000916577642457,-24.61868191184172,-16.839970772067716,-9.765961436505373,-9.08197120678358,-0.6289959601906836,6.9362446686699695,-2.0183283081566206,-12.435421656495961,-13.708213948403412,-16.40712076283016,-14.043988812453502,2.0150995878232125,11.743180397319078,5.724471775611244,1.2713267753341462,-1.1893834510343826,-10.331330611794053,-11.702339579143652,-1.012424497584024,2.7502714372383315,1.5689293455872197,8.369736396621265,11.171676614416588,3.8967759043926287,2.4331002718686214,5.864675061762379,5.547078536105985,16.53865864685604,45.16858636805765,75.60896616789398,111.20352203488076,161.2708262476454,206.35400077161069,232.16873265441623,246.67881987873153,246.17117536466807,227.1269707742211,210.92230115107645,205.4140500914667,190.07611198905448,162.86207334808776,137.84536225710497,109.54748439638138,77.88294385277746,57.94718298444857,38.73516365955393,2.068155534292327,-35.972673476060855,-61.12566613329777,-83.25191334793962,-100.11946691626237,-107.15210702810869,-122.7372021719652,-151.4746783976415,-174.96140104056042,-193.99664043542217,-215.8004249098225,-224.99325512667914,-218.17622869547998,-214.6197988278564,-214.90177633432336,-210.51022447319627,-213.37821065454114,-223.48151431145095,-221.0929227035925,-212.98431326797584,-215.75807899479491,-216.51635821344496,-208.1017454033768,-203.83384297684447,-196.7700073277355,-174.3725637610637,-153.48470491711745,-145.50824768176693,-137.48034598274236,-130.95436566980467,-134.0182554837211,-130.7687536103412,-115.27544586531246,-105.39713858964747,-99.12369769196414,-84.33346824340988,-73.33885871764221,-71.90143431543957,-66.0938527180972,-59.84552386353778,-60.57867517635888,-51.45528582931754,-31.10483945657363,-21.698210506547106,-19.500180688008523,-9.581443202042177,-2.3708820161714126,-0.14836142718578238,11.742799958866115,23.886719975456693,23.49359584969083,27.01667182784957,38.33975523274109,39.35352856940852,38.068324790523285,49.82869487556668,60.33766294454612,62.69659142348474,68.63120619173411,70.31502992788828,60.03329014206817,57.5296713301452,67.61146985536324,69.67963221499463,65.39542704667579,68.5578731050362,71.44209402451466,73.78280877746425,87.9124494167045,100.09423288943944,93.73707052900933,83.53645595755377,80.82931940533726,79.67116614243834,86.17021094007599,103.31873020269893,111.31032800644998,104.78295735423005,100.49137569808781,96.41616546406524,83.6616377505199,76.09358526980134,78.83162124870091,77.6543757785707,76.50044325667086,83.46145295005029,82.8876701962206,72.09491156750914,70.62850223467316,75.07275552341005,71.32277432667527,69.12000896536043,71.9027511297026,66.87534403959812,62.345912262596116,70.3464677723861,75.0875344771315,69.15392713510987,67.69203532765965,67.68988762353868,59.406570837680704,57.3384538981607,65.04719818472711,64.63796519602276,61.029314781542524,67.62086442273981,71.07304490307703,64.9106187455347,63.11278478641833,61.161623722664515,49.248338186537595,42.72629611254745,46.9395347332576,45.61819567763286,42.988866355031966,50.74975908297121,55.09990691459403,49.741974631557866,48.15869252482858,44.92605148400346,30.784673712910962,22.49771626708005,25.489728402969025,23.600366858138763,20.830563740326784,26.198794485554235,25.483489571866855,16.719831670974642,16.598831453436645,19.299005106973237,12.20360386904554,6.707621356636205,6.272676734963889,-1.5024317524011686,-7.8431014838080975,-1.4924078674992893,1.8687520997690876,-3.0629777610566276,-0.8218334479453131,2.5090330025102032,-5.5949576891806165,-10.997061627997159,-8.82121109617147,-13.816103289364069,-18.852588221093292,-12.540953790063078,-10.045094510907376,-16.16713107835079,-15.419671024501014,-13.042287101598937,-20.162365325530583,-22.05482893283284,-14.04189769977264,-13.712678374714422,-18.630912055860282,-18.452935281800865,-23.23340082335768,-30.22887161438453,-22.637230125262878,-13.27893786672879,-20.035655244595837,-27.901221065900287,-27.220059431736214,-28.14150014265722,-24.053174686188793,-10.913216913988292,-10.167423963023161,-22.817107667086447,-26.693175269133295,-26.98757709369866,-37.36876301849518,-45.55204291146582,-48.276528348179234,-58.03806147850649,-63.69730200297047-53.6417817133077,-45.68943465802938,-44.99383081661256,-36.99454020839722,-29.884963345489624,-33.87582654089376,-33.582514932429184,-26.623826351428832,-27.578828146701508,-28.743807674013834,-20.78766040262003,-19.113848623126223,-26.331176895291197,-26.316603615843448,-25.137795963376977,-33.749592064169846,-38.54043964303417,-38.18972544338735,-48.99405619445923,-59.358919138196654,-52.467888168460924,-43.41376335155734,-39.184854583435005,-28.48605348515779,-22.238688815232763,-30.540210986360414,-34.7698320699044,-31.228071870951297,-36.274454437622786,-40.70515895282484,-30.71809773757668,-20.19869173333843,-13.510501016711897,-0.9602247831844148,3.3728469508476606,-10.691606103737989,-22.81859129076059,-26.383297116569693,-34.09909118086464,-38.446319013277986,-32.64662190366961,-32.995606889228675,-38.785867999684,-34.290170501545546,-30.28555585725975,-37.859070409084985,-40.89667751633737,-35.21713725421657,-34.032828666932524,-31.613664408044528,-22.083629509501243,-21.051515292349976,-27.295238895471034,-21.688972018765057,-11.060330123160647,-9.425603772026703,-7.175600846402254,-3.2149062512182285,-10.454750575762581,-19.003063699577222,-16.02245160956651,-14.732122654893749,-17.36348556149837,-9.992376979413493,-4.113404546229535,-12.72800553604181,-19.978909397204106,-20.37388441436506,-24.423144862438512,-22.363880956847204,-7.038049833462874,2.509822579764925,1.5921668282711225,4.94004570627972,7.5218247433896686,2.6688344965417286,5.2810703059028565,14.039830328077997,10.241601594680143,1.2856312763031847,0.4089227340566248,-3.105583066037931,-8.209388260259317,-0.7966547168220712,6.650716844796487,2.1312298717874225,1.0781187809944022,3.6294706254457885,-5.740333527442338,-15.17700936854464,-12.16242620136266,-11.461803815485847,-13.661905641483747,-4.547807977201288,4.610207480912239,3.337866738424581,6.905122523103923,14.461679990423795,8.32274811471239,-1.6656337443441318,-1.1232978173717156,-2.4915986136319983,-6.852121736173084,0.812050390847439,10.759120695130047,10.516403445002167,13.549155849415355,21.09874795609226,18.093902742306526,14.006998578724843,21.019248364396738,25.477976449625572,24.614919656718456,30.184868318058495,31.699499300446302,20.354835293347712,14.013556746255455,17.337085199705143,17.72588400697022,21.885338452442358,34.48920139635534,37.67817195029362,31.21958559532691,32.174281835908985,32.38379086884974,21.238505529862145,13.259323711070936,9.991486772642814,-1.1894863673740188,-8.760774190941065,-2.7162497407780863,0.8410814058540573,-0.23724154361220018,6.672861786144081,9.602472057761682,-9.61177475271193,-44.72605986049921,-78.40854885337846,-97.61706419245257,-94.6986390591218,-69.58001917326908,-38.704314522665236,-28.21999878596379,-38.151317187088544,-42.77029024614035,-38.79152005997051,-41.06702443469655,-42.379917510970685,-34.90117187391208,-30.96897353728248,-27.83081386368223,-13.419842487634373,-3.8861743720347115,-12.288256593746954,-19.241584304036877,-16.20307311112641,-14.675005154766312,-7.686374956970063,10.197484349310558,19.27905053825954,17.615254005845102,23.967247836375613,34.998644856849836,47.116309925056164,76.44910936167402,117.1549304823645,150.1979801684906,184.73330458974186,226.13037240386092,254.84752650205942,269.3027377356468,280.1850427387522,275.2877835798495,250.93643044510162,229.05614416246937,211.09656489439814,181.38636814259792,148.99137032693133,123.64537041661038,92.84665271898362,59.48144298209844,38.41875078622871,18.23100605899787,-11.656076614112894,-36.10529798037872,-52.54982663698873,-72.91971057947612,-90.35245299791949,-100.3711308053456,-118.56885247284279,-144.10658214306466,-159.32757297115006,-166.03291426591403,-170.43235424128176,-165.77817235030997,-161.10965322650634,-171.8153881069348,-184.08512109412,-183.7175998152923,-180.2773047307453,-171.77160716105547,-150.91963051379642,-136.50473002975284,-138.53800861676012,-139.805025029873,-137.42061232259672,-138.4076710118597,-128.70501712107782,-105.23686512204085,-91.80762137450792,-90.08759405005375,-82.13168035170844,-74.513043551094,-74.78897742121573,-69.09202741339573,-59.745818383189885,-57.20292401294627,-40.138765855462644,5.296406709215981,53.04429864661367,86.84661952596262,108.88908133220633,106.6687350757975,83.80894296479832,73.57427981337227,79.75552946997342,78.18106605054332,71.92760162490036,70.61336801189869,64.01142010358497,59.467458450114584,72.88729869953147,86.79901270265503,84.63383155251795,80.94818632799578,80.03681310536011,72.42510970591621,69.14659541306449,77.00640820147999,79.51814341808645,76.3409106285596,81.05310908700392,83.73764746259377,75.71084521616831,71.53795116922564,71.09923978541778,62.63563120124381,58.44263287422223,66.4970848008343,70.23729682138246,68.88219845712824,73.92297032628967,73.68217243460862,60.49552241385052,51.70577857616982,49.75405465563759,42.06143341862065,37.968593140313516,44.13058371441771,44.06358749880029,39.50516152333868,46.02989896466517,51.86542356670703,45.09500608572247,38.604219992156544,32.50063076022803,17.59243429846467,9.917964543545795,18.64767289561806,24.511478065316165,23.693950152198074,27.883102897879795,27.83350721895498,17.33220267499416,12.072859400833545,11.455268757608778,2.683319825559272,-2.9090420940902146,2.988077177678084,4.445025643085502,1.0353105270228977,6.141978326143478,10.187540725462798,5.200811734136549,4.1820982973322005,3.494318823895033,-9.139524973891,-18.62660925099655,-15.366084511612968,-15.109850369986829,-15.784780747068261,-4.518479355740251,4.093503074635913,-0.5441947892175643,-4.0437886187452605,-7.486452377078154,-21.28032371987632,-29.61015393516157,-22.52692922894255,-18.259285832014516,-19.710085225784457,-15.052409484508688,-15.769869918403442,-28.965418309254584,-36.11577229292776,-35.32435978625085,-39.87826160944118,-41.56697696365222,-35.227905475823995,-36.35502008232729,-41.83624938495006,-37.017415229240186,-33.79422890027676,-41.69764649631277,-45.6051092191529,-44.24292564877089,-48.23654360918138,-47.06447955242063,-35.82068799672142,-31.682124762603845,-33.31691196866918,-27.277893300275736,-24.62834993611697,-32.36709671317627,-34.45217753801115,-31.587319553125027,-36.062819923208934,-37.02898428821655,-29.087690377186448,-29.18630259443845,-34.85710500230847,-31.26584319301631,-29.282236658838293,-35.902427514163385,-34.93509655909398,-29.676291241572677,-35.63277290441917,-40.27567288406349,-34.67567232000575,-34.6213378562668,-37.27401787770887,-28.315221594178166,-20.32702464971842,-21.474035215818667,-16.19717091763776,-8.18160018179948,-12.951225422466205,-17.66904825673727,-12.50053704902216,-13.503440697267978,-19.6700005748301,-17.468001346877767,-19.03077357311214,-31.0432337462633,-35.17078417402412,-32.5622719653706,-37.39616336718771,-38.1431413931054,-28.472766714571414,-25.232056785281188,-25.296953020843645,-14.09710098381482,-4.142875742115501,-3.9872039697496433,1.5981880053505422,9.90598649967152,7.143663438441736,5.386854462170331,11.131687282503917,7.290573767026913,-2.671712501966057,-1.9469725977297836,-0.9011348931541727,-9.01217046947687,-13.302517998065827,-15.692311758640951,-26.161864310716158,-29.890482575035094,-20.754644467935698,-18.12552097827099,-21.989595665750894,-19.396104504710156,-19.035479910964778,-22.274709057943284,-13.608910712021725,-1.9269790151957134,-4.703400584365676,-10.029183389626475,-8.719072968597699,-12.374891840218018,-14.736757270554953,-3.153125062435141,6.372472299648229,4.58571982374677,7.451319679792234,12.203192893246978,5.4363188064299495,1.1261386649926797,8.419327424819194,11.3923060515916110.768691788498813,17.609481392991597,18.388183156231978,7.040381063464968,1.5051542437915453,-0.012869646397053958,-10.299290268571959,-16.70901443113943,-12.326291752027915,-11.064298970908709,-8.639113767105112,4.60955564182474,12.29383996097827,8.114544099816875,8.577373817326496,9.27916496324223,-1.3407039806156211,-7.6259648204463675,-3.3312865757904806,-3.8003926454546213,-3.208428456144231,8.941604962124128,15.186460295134994,8.929582150965718,7.80978062309757,9.445618650158934,2.81525743419747,1.326269409222178,9.306438688967416,10.430245754574283,8.547867497374321,14.803721863976797,16.69912426266414,10.027707862713076,9.757695892964216,11.420663791913915,3.3088692047601236,-1.5575552989734494,3.921120843420859,6.357720639609706,8.486584798175002,18.590287649842008,20.95727564585716,10.236282361086582,5.560841617486088,6.340161747296604,-0.3553113013425362,-3.949836805589034,0.40125125933760053,-1.5998337579643032,-3.393549757188571,7.596562496359216,15.436472552592953,11.974078294164505,12.455647146156618,14.565635693293434,9.47257677184273,11.604094863661748,23.80568396818377,26.73987816280872,22.71253675870296,24.663076171185992,22.30276906421274,13.874522840135672,16.439444565078002,22.4085571611608,16.334430941214922,12.473782543739672,18.251101652849957,18.811695994169995,17.54756284605393,23.032242612144994,21.173614104700672,10.76330242436621,10.286146089162841,15.029127379160705,10.213356350760975,5.48776022278436,6.588797759172115,1.634853081399365,-1.9962127091478483,8.407694130166913,16.62419246124658,13.769709596157316,15.328325337217738,18.481756510805862,12.718990180304068,12.590445613399998,22.43560592071461,23.958430463779163,20.090422614675376,23.899594787154328,23.969974877884148,14.592393073909253,10.95667193133066,11.469729948161556,5.7873274245216475,4.749988171789167,10.335551933728222,6.200924915043952,-0.49449813657786823,5.967443014128925,13.746826563534949,14.43622431434937,16.97866235893767,15.105667854072884,2.896844554319814,-1.9154940174281616,4.755518612603868,6.00114680978821,5.222805582713157,12.83542185296811,15.957544408684825,9.883264979500924,8.638948749547806,7.707608544730237,-2.3634020943307155,-7.904440485927448,-5.275470029757914,-8.523999252049489,-10.455914549279889,-0.1393285395767947,5.976098598355738,0.51214534809893,-1.5305040935719811,-2.5343740318312067,-10.448731894069919,-10.584202247743518,-1.279402962115534,-1.8136992976736408,-6.96030791400332,-2.0199306855900483,1.5056275730577333,-1.1063813422343995,3.8422718113907752,8.790516834049827,0.17456412604908333,-8.973826704748491,-11.492511111039132,-17.23088114489429,-18.277638122174782,-6.717039422370784,-1.3945355438446987,-9.547201577663357,-14.686202952268538,-16.827232339531626,-22.83702587618962,-19.830642603556996,-7.608427069042513,-4.648499866086368,-4.67281449187721,5.98984983072706,11.528021014858211,4.513306625759675,1.8988418375909,1.6188117259501005,-4.508511755679839,-1.1959133891826843,11.55779490324455,11.810456016717211,3.45741177372705,1.284208064809902,-3.0776255000544808,-9.449669665470942,-3.5784797768345005,2.823040262210122,-5.6533184923641,-13.744994590230723,-13.289050054435045,-16.075194253377173,-14.14759942278229,3.0861049635215876,16.029109905602215,14.202996024245326,12.129340491489977,7.2445950436039475,-7.350115730261822,-13.397892003370828,-6.1076771045068785,-4.349709358665337,-5.943195504407992,0.7061743969306589,4.783474328776317,3.100441141057291,10.415591077641189,22.76742395987433,30.885941130650682,48.99096716997672,81.1333786752283,110.88453070506691,143.2963427438032,190.90753874332296,235.70828446314425,261.433971967064,274.50906371963225,268.79987638219194,238.2330650948613,206.60870132863016,186.29006826309913,162.17609758677315,135.1054138149995,112.54855249967501,81.28186956232076,40.34540058786077,9.903234356629612,-9.820472773549453,-31.710619921653446,-51.49756948298445,-70.12043914601402,-99.87971380099532,-128.4633662163333,-138.63603388764483,-144.57269090030593,-155.8190920117448,-159.7913539683101,-160.7730215725864,-170.21669688665298,-178.22027400260285,-183.7241206310714,-199.3189395153252,-212.9153739746668,-210.04919370959723,-207.32041465748324,-213.99018846556012,-216.48735788164709,-216.97844876606933,-222.13766268871092,-217.79242238095682,-204.0682983695843,-198.871212935218,-194.83716239249557,-179.30525192106828,-166.45790366692646,-161.27008743075476,-150.14580870906602,-139.3993076054246,-138.24882103505516,-132.3321260257745,-120.50988988941435,-118.1344053074813,-114.81688495473058,-96.16422653970632,-76.79573148701658,-64.66338716573335,-50.69891506858797,-43.57291039281486,-49.988855842375045,-50.33203233573187,-39.8345782101722,-35.70452290875458,-33.192434580755915,-20.01056387925624,-8.07234099859125,-1.744264693708136,11.860288923159604,25.01214253680023,26.17566442245789,30.375576501384153,41.52621758239288,42.80975995322159,41.26476083639957,50.95598612086521,58.24054195117037,58.18076880946499,65.09282306662831,71.24601048418924,65.34617752053258,63.979276481104684,72.55116328757144,75.06494966278287,76.58475392928224,86.5107617783844,88.74858452024861,80.83772280249045,82.00455543245192,87.76839196522566,85.66698390144708,86.68469807854368,91.64864423469317,86.46807152138547,81.35063527263885,88.99785248736804,93.00231231905117,86.97696248222563,87.44914924579113,91.13755094582334,87.17689665481677,88.3972234790153,97.37609852461404,97.70562322140029,94.55671514550511,97.73292719434406,92.83266662556302,78.16309904372133,72.5224555420444,72.98425760077147,68.72944024182131,70.16689507562097,77.9199250901006,78.9124521360668,81.69893900090092,92.81883594043776,92.82192266997473,79.91054748747052,73.35493306683034,68.61210143686719,57.40910906467049,53.82157196606711,56.46724068975254,49.23188974227255,41.71504235344474,45.07599646038195,44.71355332621881,39.08719428277929,43.997148906839705,50.75202653118134,45.55862434105785,41.01335018240275,41.6085323208992,35.14650050762061,30.339104883679333,37.364159177314846,39.258711241468134,31.27915701022272,29.124158039294585,28.073340866339997,20.467263902358326,20.717698799518132,28.4547675078803,26.9588477115271,23.791639103790725,29.559838942875665,29.94214153776356,22.748308002863595,22.1555822126114,19.331339731246864,5.356396783182278,-1.7590510155828925,1.6848953246224563,0.1275755556214464,-1.4206795980436884,3.1523357339798412,-1.598050255816585,-14.40149933596857,-15.14821746527436,-7.655826405291459,-3.399018088786042,5.748940880361078,15.238814772520128,8.209393638845834,-4.409884734028099,-7.307433982212283,-10.56750247386463,-14.718813180410585,-8.199842650051139,-4.288474919349289,-15.73005998880692,-25.771978470811863,-27.44011520679296,-32.41683422426621,-33.11758253811252,-22.0341474430835,-18.16671237398446,-25.800011239088448,-27.912040762410758,-29.752382619622765,-39.884315904140024,-42.32279163110569,-35.257659822217896,-34.68396257113679,-34.29589809087394,-26.285571628547167,-24.929213362574682,-29.21525632400889,-23.11730042979007,-15.192310547173062,-16.989553695046943,-17.777061946354877,-18.192352399986717,-28.76720942194119,-35.87510998838662,-28.858188336216767,-24.205204926403447,-26.87257365171032,-24.987485887775282,-25.45997820000365,-34.907251379153585,-37.30703191093021,-32.71427240608559,-37.81695752974495,-43.2183070051905,-38.03511212041826,-38.07220399389297,-43.92870904882953,-38.75499178425147,-30.23701563219185,-28.638622786526177,-22.383001170739103,-15.230759916508188,-24.521892948216088-38.192037509049875,-38.288909366077704,-34.698135430973366,-30.9904969209863,-18.266536533650402,-11.161629126621948,-21.876309169841793,-30.63591647435276,-29.376207517682893,-31.307417206376634,-30.21612943650654,-20.85679574882291,-21.56900036471604,-30.98876024451264,-29.607155740110247,-25.081715370226668,-28.015634145312525,-25.32516408209173,-19.055874108543865,-24.042898115516895,-28.477065095204715,-21.498193819064802,-18.459689479446624,-21.6967748917825,-18.551037625294498,-17.58900225983239,-26.2830394913424,-28.213945553207385,-21.34228979993425,-21.138179630420193,-22.401027132854736,-17.48447323740082,-19.268814848371353,-26.08678968857434,-20.886766808657057,-11.6460431777252,-11.629736654435646,-11.109819219433298,-9.821135036205469,-18.621300002932106,-24.884133440296182,-17.14976408638819,-10.978803313206711,-11.258633783147614,-5.772594715029005,-1.8887298012424325,-8.640175276336869,-11.925874696513615,-10.040248274115662,-16.58453207800485,-22.56195472367544,-17.951400939760703,-15.651970051099722,-15.10791667891105,-2.70950628516837,10.539799563826985,11.363327994084209,9.409292279265044,5.170745901810253,-9.000840877639101,-17.598909221336378,-9.436799781895065,0.08814008013485775,6.404861729178835,16.801925305324197,18.287744012991972,3.795672265739967,-7.698752128807124,-11.446707740245213,-17.69196960327304,-17.122850056762907,-5.176622137690583,-0.2645678006196079,-1.8694251958967039,5.806998262815059,12.469195292803617,7.944146801410195,6.179578447278952,6.571054915599381,-2.745608257273279,-8.087527193318564,1.0189456745834269,8.209654142302002,8.821492611682809,10.982420489948543,4.536764392854822,-13.210372392858122,-20.07786469648995,-11.564957062337625,-4.1038115293211614,2.5303381263680125,10.775445049123324,8.492469307759672,1.4878904046021837,7.391544098465277,16.262405279524927,14.34236436286211,12.536950158709997,13.705736632790558,8.529435698987292,6.610218881214435,14.063973783867027,14.75721881782166,9.366416825209221,13.695249095030295,19.61226888205973,17.34121727938709,17.90196824653742,19.182204651690387,10.703441016634155,6.205625015393209,13.243692932120648,14.327658606563142,9.178112125342892,11.329442315731567,11.802898746100787,5.591908791738282,8.903024805968885,18.207074663536286,16.482127228331258,12.629370088070702,15.455300698894295,12.597997505553757,7.7277606247907995,14.837633198689204,21.375363788770642,15.481023265009444,9.802737817429222,6.641422136849066,-2.3484663695157004,-4.858724603574839,6.547279062051462,13.769602977890116,13.459060643845746,18.16081735162324,19.686317698293387,12.23840322442802,11.839155333832661,17.06333611162566,12.836735967421895,9.149140560334455,14.443820484853843,13.164200605581662,6.124586786811687,8.329028803184155,10.79727234421036,6.832816088683705,12.083217806229106,22.75025207989928,20.655227810807663,14.203297728596741,13.059123834675743,7.305570635567357,3.141433423435831,13.460414719975397,21.8988244925033,15.983096523597922,11.207036093019509,10.534384690439204,4.30597393915314,2.947555542799053,10.264029500150459,8.37779606625792,0.45852639311851284,4.47006067306504,11.20394452988548,8.761156717349426,8.0378407708643,8.173187707547626,-1.47644353652866,-6.975885636630838,1.9382409150358821,9.7443092824053,16.972686338871565,39.251894020518336,67.47382879881224,92.5342327486617,127.48717379800705,169.26084381507414,202.78171674195755,234.47965535056127,263.2697762439176,266.74074672236054,246.0712792676983,222.1117310332172,196.2408282486398,167.51277408734467,145.04588735951776,116.89655063027811,67.74170499098125,17.38956569683484,-15.287307721543364,-40.35373635158989,-59.8273687434066,-70.56833259144543,-90.33771231389932,-121.34807830643351,-140.31594751450862,-148.61641546211433,-163.43186827311362,-176.9914575912986,-182.57629873384786,-192.50924890977333,-201.54278082473874,-195.7159823355471,-189.33856175162913,-194.11505801952424,-195.25684732352053,-192.09502241297247,-197.0644610905764,-199.22931976884547,-190.11448505415282,-183.6450021538566,-178.27993409292918,-162.16242753959602,-148.60561457186208,-147.66681770170328,-144.54666974692557,-137.17349372265983,-133.4688099183467,-121.00929896349106,-96.20154169159518,-79.19409109353029,-72.38080138066705,-63.85571536086614,-60.82512706744891,-64.97801544873455,-58.299321807675895,-44.048077401872575,-40.173871847642175,-39.29396470441539,-32.91781204099195,-30.76391554461993,-26.637839176684768,-8.923993049562075,5.940636368549437,7.1469993047750435,9.716063381373019,13.566371008477716,8.743749913289019,8.953552509936964,20.550622540081736,26.96185563563145,30.116217107174148,41.20398821246971,47.25173792403224,43.534412852249176,47.59091056292385,55.780045381174226,53.1279065009195,51.294917122604026,58.272394736809886,59.805287236951,58.93570102288567,67.87200773544645,72.86185854128408,66.39045278136068,65.5011356226915,68.5329617348405,61.99726723927671,58.10978471941744,64.16065291087958,64.4901846277261,61.95816191274464,69.13003965615874,72.1076304045403,63.33265495154238,60.651051654066976,64.44556359918408,63.25556022776114,67.8723973730921,80.21825155884946,80.5862054124978,72.53723376402439,73.01846050887967,74.0011597350447,69.87043650600361,72.98776788863516,77.10203822900611,68.39983408480629,59.54556766956743,59.578616077624446,56.04089096782292,52.3152318086946,59.67186498026176,64.29758029733506,58.75611480639452,58.48231827012383,61.15264387736069,55.14630885487033,52.30696330713808,57.17548926528652,54.158446264935165,47.989173375793435,51.96009824471899,53.32362228587167,45.48213688155852,43.319964122393436,42.915319302015455,32.49818504923491,25.592439439712532,27.788196926494273,24.062397179607686,20.11855608706791,28.133490046104487,32.90931578789662,26.774498658382658,24.56725216295102,23.756103670219474,15.05500567633953,12.599997481647458,20.099500893796904,19.82078627147116,15.540123482531314,20.136318129803275,21.290590995085218,14.161582684031846,15.220818088242273,20.376840025919456,14.77942060502402,8.391889885606862,6.890642710001788,-2.717656252424991,-12.767355098103357,-7.497415793820211,-0.4631171405939192,-2.863665325956828,-2.6191482900770655,-2.019066191799424,-11.487878419941207,-16.749830272974833,-9.755896000672132,-6.904198197308234,-8.86557590876959,-5.032324644712259,-5.191009360344711,-12.124354064543036,-9.827414036002065,-3.7537975377746338,-9.657062162521113,-17.09254200099579,-18.283373602832373,-24.885535694971015,-32.01952722048884,-28.317790878309182,-26.321696428859184,-30.498581465199237,-25.235752074971828,-17.334277970631362,-23.338292365020283,-30.813013729640836,-29.850132725030083,-31.895775597291863,-32.25909067650739,-20.79218376282254,-13.31159435359297,-17.011193388199928,-15.807412273030959,-13.096969096077865,-21.995784653975935,-29.15213017676974,-25.4424702361258,-24.174288763955474,-23.964379805424663,-17.02398315898284,-18.485956413530214,-32.72043525619351,-39.645751657371775,-38.5713518184988,-41.798943400760024,-41.005614685772734,-34.132820902327325,-36.08120161749228,-39.94499663846352,-31.415668996259186,-23.83589065935095,-25.271265926755646,-22.93675788791805,-21.986526339703136,-32.67500769925357,-38.77856172714049,-33.50890276876554,-32.82612330709181,-33.55091995904397,-25.373606861814658,-22.35513828020959,-28.528185188984157,-26.234170436730835,-19.730572934268437,-23.428892728132436,-26.48671890965651,-25.1775168590889,-33.96200601727877,-42.279493135814135,-33.429696145701115,-22.85612349871122,-20.582870076171425,-15.757671510494628,-15.439707710216764,-27.937055512951364-33.41359840041379,-24.56026639509378,-19.91671471671767,-18.85422540943165,-11.010620461606461,-8.354997735539975,-13.75932237366498,-10.74233878074709,-5.274380450859866,-12.39097889563376,-19.168589082806495,-15.893371531985046,-14.657510365927884,-12.859271249615002,-2.3133741283635705,1.0930817755780768,-8.206486747636147,-11.232643256578434,-8.283264045474018,-12.171076610532456,-14.745971439789828,-13.308247623040085,-20.101241338118754,-26.46818919859578,-19.259661345706384,-12.313444426055149,-13.931151041460618,-12.454966290648835,-11.241485807922702,-17.721414136936833,-16.780461297953277,-5.227439457475706,-1.9537834174204765,-4.616432273990349,-0.7810232867019069,0.0831086194089774,-3.284569323019054,3.458009282180787,11.029299572522996,4.514675204952359,-2.1132378658885367,-0.6814007542387261,-4.070749913222027,-7.266320522662665,0.23925157543555953,3.9351792972330033,-0.37826835326401076,3.7563870293100585,9.678118368742133,3.0863092104818675,-2.4712290663486893,-0.21039700900798275,-2.4750749016871803,-2.0317294306286025,10.281947727347955,15.858435366461004,8.064060263250447,4.313508807950146,3.540492672231626,-2.081994520755718,0.7012315528001181,11.55558531068393,10.738836587910118,3.707851043299364,5.913648260534047,7.777985898878935,5.549952017438305,12.041025552673466,18.19716629603084,10.071413469260357,2.8943734228606512,4.092225282442133,-1.1437227845838684,-6.702050007393792,0.49165874332742376,6.460575373959932,5.81214032932054,12.757217089900536,19.081884305181948,11.192841401790695,4.426946412706069,6.744281132337312,4.829001490408624,4.530345986057905,16.375116783651617,23.643286349234728,19.550828456356786,19.824536270572008,20.298624640698574,10.74471448037177,5.6432224716350765,8.969280482933826,5.321822289451824,0.9816492873017699,7.23661325591029,9.682422112479696,4.465291915280737,6.542153240688144,8.954834865119421,1.7453715878961908,1.1158961036749109,10.255628957878308,11.566599959326759,9.675622939370419,15.126413315219326,14.579473809074816,7.021872584404244,9.48515679257046,13.472666470760013,5.272141919157957,-0.46205945116764124,1.8918088697179694,-1.086424591765226,-2.9935597127371723,5.447988420988766,9.232324033002788,5.456021857396755,10.47706378712637,17.838954342791883,14.31227014319319,12.2612434563147,16.01005939117439,12.317777941591832,9.220649515644306,18.073694278873884,22.515213143576318,16.067238234018742,13.891032809866548,12.108410309050642,2.030217020370149,-1.2124939549743103,5.60027775838783,5.111966617932916,1.0471550034705914,4.989295775971975,6.541369270315531,4.298829162353268,12.45438732159975,22.0947761106784,19.01641417847312,15.963259158803101,18.845844534057843,15.698112721110732,13.675842057647927,22.66254976629969,27.27289458425086,22.851819111334066,23.70727542209784,23.18698901904351,11.067563380531023,3.5976816238891822,6.14307387303122,2.9064968051121376,-1.487580121917414,3.01945342374323,2.603872516086451,-4.424589802664341,-1.1126312987462035,5.202265583575013,0.8902272811473262,-1.620262685242097,1.0669292945855742,-4.192651670308239,-7.867104085242832,1.0846590498072568,5.070368999376717,-2.504430099967013,-6.559589297550678,-9.340399662104923,-15.526136135683256,-10.397162265778302,2.438957075897963,1.8948453069544318,-5.184165255451858,-3.8180917946443227,-2.833921413336389,-3.5735062112106912,3.974644299031953,7.264775541255929,-4.199736387660863,-12.61798247854742,-12.165505893345099,-15.796257156312548,-16.72640922868947,-7.867747275662998,-5.792223203008008,-11.884130602652942,-9.484727809623312,-5.159316557955184,-9.287219087133424,-8.81642204856319,-3.028763847230168,-7.2350195767292105,-12.665916044841488,-7.127135783454566,-4.4754525621124115,-6.998179996511452,0.35034925240249715,8.832014906329176,7.134419529121076,10.070394272839637,19.05376779803063,16.70940777978597,9.180031812018136,8.270339123915143,3.590533388208507,-3.6377152011331324,0.8581486957496192,3.974675906682759,-9.879977811648192,-24.13052702547938,-28.442099174970487,-31.78155954976294,-27.34176485753351,-11.192843058977262,-3.691573420935845,-6.735763222417265,-1.3298846443692303,6.153640207932895,2.9894414853366076,0.6710786454506582,0.608154049290205,-8.354467331732584,-12.94649697164159,-2.5129656853042412,3.69193953924126,0.1607779123602988,1.9531526442234517,3.9656457345782155,-0.809392415686172,1.6142142476081232,9.465704714460529,5.707709866833211,-0.7560570721098363,3.839749304940433,7.165113664963403,4.05215679473921,5.151412058751097,3.0096563224045436,-8.424949409924755,-10.619254858252486,-1.6629691600218135,-0.5076483435455077,-2.9982361287452197,0.3972603833994288,-2.339641377394689,-9.725742955794912,-5.896444726006493,-0.08431623024961699,-3.6594070294874235,-2.484791371519063,4.6238338347680115,1.3073113089510429,-5.184209486405214,-3.1543124739073467,-3.8054497811377326,-5.991312521068475,4.4957999339649355,14.590193880787606,8.981426649352837,1.2955895596033438,-3.3689589000075673,-14.49898455320023,-20.092506989756163,-10.782335145553464,-4.330314636944208,-4.3597503833135125,2.7888570984304657,8.180937632231057,1.9597441350721438,-1.0126163889090345,1.9627347311565317,-1.215691758545098,-1.1997372450486388,9.665914026071206,14.070426620054636,8.987121061510944,8.634903073628465,7.094146756632359,-1.8693785164480108,-3.8288131257037596,0.14176347857076554,-4.508209103053536,-8.199277568069668,-1.248408252154245,1.269242915616345,-3.739675135558903,-3.088099609342196,-2.8188655723302496,-9.865649140914302,-10.08892244450187,-4.296566222496204,-9.225593228340673,-16.27254263612364,-11.589908599556122,-6.656019102605233,-4.7509416112211,5.223158210182746,12.46205365776511,5.659974516541255,0.6478123548064706,1.9434520892191667,-3.731511099745018,-8.273206925254154,-2.336328489084871,-0.46048971552094803,-3.2032547796362656,4.117355354117776,12.389117547628521,10.890047254050575,11.600293652052164,13.985433712953114,5.987460925566673,-0.9310799552363547,3.291247853275316,4.9834472819952715,3.492564585459869,10.851449938151548,15.801758341478608,7.438840705426632,0.3425338300391352,-1.0866343246566736,-6.023850752115234,-3.8734925487374388,11.43195181335372,19.159941086910912,14.29821574331742,12.758709581785272,11.289389953126058,4.745625354706507,7.074094143377466,14.569284470814377,9.591839793758357,1.660783681231486,2.788271844532625,0.7756115739344203,-4.211698691329435,0.6587108371884907,3.8169666451645154,-4.249927865477437,-6.628046169397253,-2.0119108985592815,-5.339094499424199,-7.293279947677884,0.3153783732701765,0.27343199426616294,-7.739294754993825,-6.559478862344141,-3.5788383348649044,-7.778855922410953,-5.348500902589336,1.0764815846935996,-4.847167008756827,