241.90987075537066,251.042581868959,255.53738968606314,236.85439150898597,229.42203797900694,214.80386080536493,162.42456103954953,118.24113103750472,111.20782917547686,106.5418832942295,105.741234651348,126.21066725876399,127.95752055171346,99.72366260415899,90.58045516900258,97.27483667011803,85.42837641810078,80.93688264833708,95.69709301553209,88.63283339633408,69.48826071227364,76.34200837292755,84.60675887627426,80.81834435402358,100.1468140661782,124.16559680458924,112.2836755725306,98.23947546206234,107.48537185965782,107.55969106598373,106.71193680469663,130.6905142443175,142.22990799703064,128.58798170164363,136.90471772796786,159.2992852184364,157.63503675431753,158.96019980298374,174.98727890147018,164.30470719320635,143.36450056638932,152.75168633250178,157.94215776145376,141.738250870878,148.4871907869837,165.3409985390839,153.36757731513364,147.1720975636003,159.71199247639646,143.7137607100173,115.15410293630944,114.56516253186372,103.86108847251128,67.52710775042824,54.32079613318172,52.17365635417813,25.913311838818466,16.88170890586595,33.906031960193204,19.73839712783792,-4.58109776020475,10.581991586214812,24.319086162842083,26.57037949068899,69.60574578444039,113.39360755080884,103.16531937324439,95.31050064175969,106.51558868153323,82.20632401213433,61.19511071374682,89.03317174183604,96.61751013726115,68.10909740142708,71.6079573885388,80.71050499198044,55.67754163707626,63.070329482977364,105.45393957824814,102.17133938595117,81.13047075582371,94.09576724979573,85.34678263809126,51.27767013189168,60.41893543363852,73.60448349198184,39.17844828510022,26.671985737105594,54.991405848356784,59.47186392246959,70.7920954972932,124.11311114129798,135.05515444001747,82.80290648092452,45.35328991264791,10.147035808489587,-50.62354294817142,-65.20845477840561,-36.49225689050046,-50.75293890814691,-76.34849298912715,-58.015633583285506,-54.7524439352234,-71.75587892659102,-43.51833796611963,-16.977801364358477,-42.32695372862684,-46.39056357672305,-21.32554622356875,-38.631578049153475,-56.486547432421304,-30.53567542539826,-36.2615306409199,-73.12897951103217,-59.898484452854476,-39.20723281873664,-61.843603703143614,-58.40433498908615,-33.1245332000491,-61.46566705338869,-90.22440284722505,-66.94169225370791,-66.92977721086218,-90.52757123391629,-64.21160703523066,-41.93170976219039,-74.18068347186342,-80.5257002069979,-55.35751350946512,-72.53282722968208,-88.60777704793487,-65.85485611651171,-84.2914937460051,-135.82644562210854,-132.52178954546227,-113.02211854304659,-126.33717061394755,-111.24641470294264,-79.80191130574104,-108.8463559152074,-149.3128694486261,-146.31241398502874,-161.77322793745108,-195.17048503859795,-181.70006181106345,-167.85417336519504,-196.59591759670934,-197.25739765920596,-167.19808300427647,-178.10721798127392,-197.17389526106382,-183.82114232693252,-200.11984060561954,-247.5854996576372,-260.9284319607935,-273.0707563147938,-317.65689414999935,-326.35158741155266,-296.0398825026494,-299.8027134777549,-316.72529738105163,-310.6914542492096,-333.1851957954493,-377.79074041930824,-377.7205611992465,-364.7901079071961,-379.05722467795874,-363.5623807993369,-316.5843817290317,-303.52465572244205,-297.4950974810059,-260.7110348103236,-247.70226900366268,-260.9380173589193,-241.39457244242095,-221.82470539061453,-240.0014597048368,-232.8524089581731,-187.37009015525206,-163.91490452826469,-142.72721807413336,-92.59496097226608,-68.66553592739614,-72.3351201326256,-36.05198220789939,17.773513338091643,43.272657987736345,84.20073473588407,147.10582127471287,174.87043317789008,190.1513555295038,232.1259636102991,248.58922883420072,223.62801010083618,214.3316312639161,206.4530543281397,161.4685405933558,125.85331425227193,115.6991560336638,76.873931344543,24.50103114972092,2.916034214518025,-23.56625209561175,-65.0509467911372,-64.86224874576658,-34.00507803166283,-21.433067346600467,-4.4624241555441095,26.977623171060984,25.945437518456465,3.7356999932752872,5.667728193861954,4.398513077277217,-23.020468407008135,-36.23884561863558,-35.939698207827384,-55.51375076176353,-65.29191111596472,-48.14499393198308,-57.769933619654054,-102.66467127358418,-137.43179427120077,-164.51107526267242,-187.3411070188735,-166.9865227235197,-120.40851050438852,-104.29350508282756,-99.80942742048757,-70.3964500122254,-46.335236225279544,-44.020894430570024,-44.08058320119312,-68.38816925791525,-127.28567134470714,-163.83308563624564,-151.17163347685207,-115.77272593994121,-53.07104623511499,43.38472104522768,129.94423175918402,187.03314781532788,245.46343588128846,305.3743341206647,344.5524471434426,375.0646280698387,391.3758425226274,355.01854182948335,283.6887878769199,233.04681975173867,208.5086979409635,203.2846651580993,233.0942882789311,269.43935242480813,263.6079302952264,233.89330591061952,217.4612368302719,206.17436996870794,198.20714217863753,205.4352100201599,199.84914122695477,160.48104891723455,124.18737002917759,113.36688734354158,106.97358041844498,106.94291304409316,124.06362484419395,131.4333828293443,117.76839092618476,107.95005458926863,98.92318978490296,75.59544228073838,62.38596755032121,69.8591297540507,65.78426886013558,45.59319915101269,30.782979321308723,12.276741858340799,-10.932618613118187,-7.244228649631758,19.11120385411523,33.596021461622804,41.893611869183324,58.4698748802419,63.40348507151471,56.507345079788465,59.6555671447709,54.78517185586759,22.662463054972115,-7.162127263412093,-19.501781425107666,-31.045896281302944,-30.224443413317395,-6.625417270260254,8.577122660493611,6.594054710664304,12.045487249406317,15.707376188426318,0.40795843938691334,-12.243215236872164,-17.46768807735828,-39.71708585139913,-66.69076958644031,-75.17074445597822,-83.06899213852493,-94.98118301460254,-87.45386907226782,-74.70505292825668,-79.35302384574868,-76.80780848698949,-54.60802338054831,-36.890675146224226,-19.699164219167812,9.435793925636247,24.688596267378074,22.228744154833734,34.700333677198785,51.03277122868242,38.60480773140945,13.377604810055129,-9.485757265251525,-42.38110126795181,-63.73479768305484,-51.33807066759182,-41.51474692463652,-54.12082456759845,-57.50298466887503,-49.0749503435451,-46.44798246015596,-31.981622810725362,-5.4696699793031645,1.7184835968690626,0.21359599304515298,15.059121920566664,24.805259236093967,19.493116339180204,23.85740259580996,30.322178489069703,19.758369645669845,10.544364025236616,2.5255638075476368,-34.95701146200855,-90.74720330833182,-136.3998145413709,-182.16030063810277,-223.95575838424438,-228.17285032630843,-199.2963733193357,-159.07161946610353,-99.7526723214025,-33.65205208225764,6.342272960970141,41.06971765854199,111.15426556227806,198.94797784978147,268.576314974121,307.5317012301177,297.15598392672615,246.77807920780714,225.90774722243296,263.7732238102635,305.3632368460309,315.9865746825924,303.71360201518996,262.65464880441374,209.59523032368088,188.14934982361592,184.54532700276397,159.6019854376836,132.67558550804193,124.02541996726235,110.95973623422526,98.47059933687842,106.50771488756102,107.74722453805654,87.81891423134708,75.93898094111488,67.43175433952513,39.80071827527392,16.153476599371892,8.479080165105097,-8.810712803758985,-24.822802243694923,-13.35059014783577,1.2879817541338534,2.4647676234913183,13.58192813496414,26.18613266578727,17.051414131051565,10.035527020227196,15.992964124140007,3.9860971031836154,-18.349428463110076,-21.983241178238508,-27.288326390970973,-47.074251756664395,-53.28830451427271,-53.17557895863358,-72.80751173610565,-89.41490211540403,-89.15775956976219,-99.35044032480516,-111.30562537433275,-97.19743784131396,-80.97071348273987,-80.87857783738679,-70.20093346146987,-52.164439262709024,-50.424509476934645,-44.09043171032742,-24.147384847280883,-23.916430601604247,-37.02354632857908,-32.48310857882434,-30.307552602848357,-45.87347444018329,-49.47478799410709,-43.891241853802086,-54.094666879096486,-55.85792009402129,-34.522844216822904,-22.59056343408413,-14.1610989987127,22.4078330798768,65.32630031353746,100.77334078142245,158.31995745761003,204.5323895222593,163.01424527909066,43.95757485812341,-99.80517399586363,-241.5349081715409,-320.95577327098715,-297.31746409245216,-246.22510776793337,-239.37214237036025,-245.97127603423314,-242.2657946260461,-244.97235585280134,-235.649148444041,-208.64674035811365,-205.97736446586532,-219.35901994963743,-205.2530013876323,-185.21352271661658,-185.4664890653665,-177.16817720825406,-161.45349779273005,-168.64135857113956,-178.4187524455577,-173.78811648706358,-184.17756925757192,-201.68741591303888,-193.68446408271336,-185.5603156362064,-197.1997935294362,-193.9601983515014,-176.7327518792539,-177.1040251408601,-175.27620646070736,-156.23565201098324,-151.759858901629,-154.6207687378928,-131.46456781787984,-106.04949769594865,-99.71104446898988,-84.29201224534714,-64.64559435431075,-68.38845490992729,-70.09744986088839,-54.28412643770953,-55.85440925104706,-71.66728741964945,-71.53508606491533,-76.23232188518372,-98.84067827599438,-105.90108420184694,-98.22388182091035,-98.44532636368183,-85.5201252064477,-52.49740175903851,-32.65033430763026,-22.934355464464204,-0.2181761288397972,18.51588111386895,25.00963784249115,41.37493143228903,58.880046726693664,58.730752430405786,61.6786676974501,78.5479114916232,91.72127646722709,108.28571961195303,137.8663720991617,154.6992727751064,151.02142728452657,151.37982848733895,154.59906990030044,148.2677041957011,146.46078490256673,149.22213663260183,137.4490584500674,125.43742582493697,133.43368516247966,142.38136486121883,142.32732470894075,150.03141462982575,156.7706261813173,149.24793350451026,148.59462112544847,159.02404238191295,156.30855128723164,147.97788145496492,151.45634819296353,149.1576241207158,136.6974820089059,135.21316174991483,134.99887124675735,120.13674620897436,111.80319292983613,116.62288510714629,112.51723597920937,106.01532403251154,110.47923394037112,105.8496962622152,89.64381545706487,86.6942967179693,89.35860459317423,80.44205840412563,76.54580905277712,80.31588059956793,71.10002613288052,61.337939299788374,69.62698110566345,75.16591214490654,68.6988981351181,69.50516988085145,69.34845239145417,53.514429167028304,44.14601243238642,48.454724833316256,42.371719507974866,32.073110116952954,36.204840248001304,37.27318506887811,28.229753120002705,30.608565380636172,35.389086886712974,22.330630347729418,10.956362780322955,12.581576080355493,7.025590068548682,-0.26623290932528176,6.978829196630871,9.93441427287948,1.327632189723837,3.7891012697027406,10.567806263752553,2.153255938929032,-4.511113083326341,-1.2570245297561917,-8.40051354580902,-17.96036475951105,-11.666433216528205,-8.595707371220222,-16.921147053869507,-14.106790259106901,-7.3039294078991635,-16.002147556936603,-21.5520037961971,-15.448974433891198,-19.871047620192748,-27.06051248163348,-17.811773139215028,-12.308053893676437,-20.46652624610913,-20.17724690581109,-17.60227728839097,-30.005283313454797,-37.44054448865526,-30.756203569168115,-29.073437173530085,-22.243148112219764,7.514997234882067,37.95633847707189,55.74253047576261,77.16096464030649,93.57266673751137,89.66008636120065,86.92082111937097,94.11595344160898,90.10290251872749,82.14083534719924,86.96339006173832,85.76979964289126,73.24871086965074,73.65174140290056,80.37332445402751,74.23566798840129,72.2161596377046,82.21367222321078,86.35452400622366,96.5941630678245,130.19387263506147,161.7853204483717,177.80986391864565,197.89998409364128,214.4534473630891,210.0629435067512,202.05554303641384,194.10561153703745,165.4407198613751,131.3346306843879,115.91927305287768,100.2595276049545,74.08017480408941,56.92432464137338,40.068148112060655,6.779841956987517,-22.37710541678569,-41.63667346982901,-73.20575019839563,-104.09186577555589,-112.22685660220557,-119.67407943748836,-140.83603607086863,-159.26972872876314,-182.94659100184413,-223.62686959948343,-253.35115340053054,-260.9916410733111,-271.2765925582124,-279.5272692134418,-269.7303213141464,-264.2590846846576,-272.4318331114354,-270.931679985288,-266.5251799280244,-277.81419203179195,-284.85874298160473,-278.2923461205797,-279.19960600289875,-279.20338014653476,-260.50881414720243,-246.09461596001714,-247.85630978542,-242.99416741322958,-235.04174695625906,-239.84932810489502,-238.090720597987,-223.29210829859778,-219.59032552593405,-218.88694828040477,-199.96199666931076,-181.42991110914446,-173.22416046055758,-155.2838994111995,-137.39777321870628,-139.44010747256857,-140.0868926384042,-127.51897948767083,-122.59458701167833,-118.85908696860653,-99.71923818906751,-86.74634922279483,-88.4484025143907,-80.25662223176789,-67.43892714409697,-68.76604476808006,-66.58727205690018,-53.13464333928234,-49.42156276784015,-47.018216808683626,-27.409997469086328,-11.0338986851967,-8.089497111664114,2.61806415254859,15.299881108256809,13.723699487010602,17.347211214341073,33.20445284270523,37.53888741897666,36.04454661302486,47.47642962206535,54.68395946998441,50.80520066086899,57.97679532378033,68.28192361997145,62.5716960527864,60.26414888910566,70.86632319795766,72.37657604851802,70.3630627746376,82.18439258960944,89.82391796570644,87.15747985948815,96.61950462669755,108.9822512787846,103.4965724597844,98.1713318675,102.57670834997037,98.16919439014436,94.28146539176771,107.76421227327012,116.70634347960855,111.72262206281778,115.52522557018553,122.02955348914665,114.00827800166674,111.10768155115642,119.42998525138023,114.24645201344792,103.6378553479463,108.40762389301545,111.10258542153609,105.51083990864002,114.01731641440469,126.46294482708913,121.99325406516562,118.76980151801794,123.4575034186385,114.27313271537463,102.22443775517482,108.98627677796824,115.90378851219572,113.57572309912769,121.66496539225771,130.20205391928798,120.07435489974716,111.56531577314642,113.70861622414469,105.44285283827276,95.81314029916507,103.884731025833,109.32357180460033,101.66399695233392,101.41796561751192,102.24757389420978,88.16284262783638,79.85475942077392,85.01055348352443,79.8043827212863,70.92379483595847,77.68261082684111,80.7583033717979,70.23406243736194,68.25763605734005,70.07628912623028,59.309163271271636,56.1377781014107,68.15714753049836,69.44298833128373,63.76866153102657,70.06269294160967,71.38241271857655,60.68188874786672,60.57493539097722,63.83391418774818,50.604317967214925,38.791811784607155,38.41009205807455,30.319421033652198,22.553479538052265,32.871574110536365,40.28833555048642,33.386440126276526,33.35791071508275,34.60799429237401,19.255583863772472,6.6372832438162845,6.607680682179022,-1.2300376220769036,-9.234250715932722,0.6038958941861345,7.972095332234087,2.1446215751127147,4.315514440678648,9.286081675247098,-0.4720235642008719,-6.656191286332553,-1.344184263046023,-6.917017054104282,-15.524312906824715,-6.39841723775603,1.9527782247864154,-1.4792497017184734,2.4171457485676844,5.096025800897348,-11.04638949742062,-22.68007123446598,-17.5837672817382,-18.832659541423162,-22.98553146374499,-15.0382311011872,-15.797556099092267,-31.058707749902783,-33.751799246818514,-28.437694953188874,-34.65907971386226,-36.3626649496169,-27.691140917622885,-30.957207262762875,-37.57472243203945,-27.780734232651128,-20.68423042177169,-25.45918542334126,-21.36885616359259,-16.970528850072956,-30.087261891555645,-38.6938920360692,-32.10883328825081,-32.42146883427837,-34.9539071729139,-25.407482038423005,-24.991201129770822,-38.754260359423554,-39.07074543946818,-30.988688644585558,-35.27244240545825,-36.7233540244267,-29.610116346213317,-35.577963741588285,-44.852070038602186,-36.66578411032077,-30.029412120767702,-35.806130727422115,-34.47167955932724,-32.499175674637684,-45.42174494795329,-51.669155908630984,-42.033621149334415,-40.58711019011591,-44.89379353198277,-39.45125828237386,-40.85630718757693,-52.99874842918099,-51.96599751414088,-44.2457691621306,-47.79594926418232,-45.40706516415674,-31.452401372210716,-28.903807080941498,-31.988239970826857,-23.863919792672636,-21.933295714591928,-31.677430972540193,-30.432881475891136,-25.421062692492995,-34.533754249993734,-39.11393449742661,-32.57789949760568,-37.88948681555847,-47.27724119576672,-41.09378248636222,-37.34829366261062,-44.47972603881959,-41.09673310466429,-34.232708061795094,-42.21988933861718,-45.685129084759026,-35.86042508720631,-35.72634375307784,-39.06892684928122,-27.2610994113872,-20.467430000818133,-29.05885647858689,-30.231124417834604,-27.572670022187552,-36.59884555842061,-38.22502433571796,-27.58541815006604,-30.34219945855867,-38.73882524313449,-30.74440449741921,-23.166501601867623,-25.556870561416314,-19.134348417210674,-12.803928617512636,-24.23656708006619,-32.419505292589115,-27.478695771806446,-31.695551823880372,-38.08308895398955,-26.60037991504953,-16.747067807306788,-20.220394711903523,-16.338871790213513,-10.98413029479902,-21.248910418337235,-26.25103938834557,-17.45441296031858,-20.073536350080467,-27.87946360397642,-18.791187361695087,-10.058941527134378,-12.494973033034267,-6.838266550300469,-1.133164100445612,-12.547724433603221,-18.152015091660918,-7.4390974152853575,-6.443512318846404,-12.746921669595809,-6.803267789147964,-3.299684512137647,-7.410485549727304,2.6049249642406442,15.064161398983382,6.756247610858269,-2.219345881193694,2.2819334669795026,1.152294810114003,-1.7344856545512002,7.3695909219327,7.879186292754994,-5.938619016892581,-6.359510063400403,2.699084925830901,-0.909355404621178,-3.1542466071257205,3.9474464458322758,0.5757042610197214,-4.195152985223343,8.485397577378688,17.704504391444996,13.178866068560426,17.48512061090091,25.429214248324975,18.69169780464903,15.105303658987602,22.872777191235667,19.62409694313891,11.959743827431168,19.63980036350239,23.922575261247182,14.855205703790473,14.889115035212821,18.742746157607044,9.013247748248306,5.516625501333235,16.258314617038906,16.999729628685515,12.408320209303174,20.407641191571138,23.495951748672216,15.167805065998689,18.75791594130266,26.937296620171434,18.950374067514414,12.764689080439709,18.434101897717674,15.036493045841492,9.674105580112203,21.115921288965716,28.877952989540066,22.302213466728755,24.5965368987071,30.5540465828815,19.77188195082222,9.392238302081864,9.777986947446873,1.9402992101323528,-5.881065301167071,4.095262371375693,11.01143270381469,4.474139054557103,6.509564035975365,12.472975052473156,5.491972730717018,3.3866800707602214,12.534297966436714,9.882342796520344,2.40565400965394,9.634314178857522,13.821824699040688,6.540988643480114,9.775691134479162,16.351580868846565,6.349484592932937,-0.5493478731213599,6.919042410998457,5.775962965970807,-0.4549276759947407,6.138226505018963,7.894194855213122,-2.5736673627707187,-0.7312984412578847,8.689028595745105,4.365989316969589,1.3507633633145153,8.885983592731302,6.2067437919002675,0.3191197390668328,11.83621067261443,21.785517168402496,16.962927352505073,16.833642659817553,16.209038880121696,-0.939736294771703,-11.778957097613228,-4.103183622024212,-2.316498324361823,-5.177332059924639,4.359103738689576,7.868018295045482,-3.5129796182668622,-4.378010373499606,2.7006609926650653,-2.1114603597646098,-2.066790508905836,11.198230602847865,12.149255152762695,4.253842533608136,9.312973304277156,12.27466764660896,3.5399519858574795,4.633551913957644,9.954109854156073,-0.02634130051425032,-6.682279071387978,0.9451730429979888,0.2687006567739303,-5.619579591232363,1.2456607682263687,3.716315951316708,-6.7427985506402575,-6.920280416113908,-0.9840045000497861,-8.285111485179932,-12.466321327620378,-4.996164517880508,-7.9771840797227815,-15.02597229401418,-4.967180999226165,4.866898689621509,2.6189915653864557,8.257633327564593,16.017720467775142,7.607006098773336,2.6866076788701982,11.132160808646162,9.130384717795621,1.247084797912013,7.643877011643562,11.452107556457122,2.8374556620207576,3.519181693348169,8.829077001052422,0.3420208230069317,-3.843958348577794,5.284555648005075,3.345780024726846,-6.1349752540077525,-2.1381979448892503,0.4538350315611036,-7.752967123635781,-5.722397733521276,0.6768541305344593,-8.254493546044472,-14.513006842915502,-7.176193957548912,-7.230245528441307,-10.000686195401785,2.113272814141448,10.353914369936145,3.987945530639199,4.205838598727027,7.745123430163291,-1.0635726723076901,-3.6749401249276445,7.616956840224798,8.458386170497588,2.143021008492417,7.704804004966404,9.561744426917459,-0.1522993082086419,0.581883092068719,6.099968406625154,-2.3279043247862896,-5.894604814801627,5.110395768652955,6.6873613837013535,1.789839547879685,9.851879709432344,15.483016966162186,10.35249024069936,15.16862842104291,21.24736997565972,7.151148676925832,-6.592141190520726,-4.5587012450752455,-6.021411801761863,-7.991334774475377,4.471493312561577,10.916282970650533,1.9310418479007536,1.9956105830286557,7.734754949989712,-0.2792845563088342,-4.460577554917397,5.403920113482702,6.597773543401786,2.64515211654586,11.093704549231706,13.310460109884168,0.8365424044425627,-1.254264658711384,4.072806109171742,-2.525274086949914,-5.161575790385523,3.5419908195236833,0.043105875785264036,-9.544276884756183,-3.207345201364196,2.718349021621861,-3.1320354614758745,-1.4512933629473994,1.7702179591264382,-10.467464790958278,-17.221841675615032,-7.5052360118963435,-5.185083797912646,-8.263501971842201,0.9790232642438124,5.647443299479571,-2.4113865851231044,-0.34208641839219744,6.289642591896758,-2.1186616733174617,-7.463735367347573,-0.25840717133756996,-3.9280930513252685,-13.791184818777229,-9.242752255510966,-6.282719285581777,-13.29553862539277,-7.828872234850622,2.6485742112459385,-4.332191077073033,-11.24371421077527,-6.175272191076559,-9.429617847636255,-14.905856924817432,-3.5671235455661012,4.940343747791166,-1.0700361177685522,0.8662093594204174,7.252288611397561,-0.7268570541343591,-5.2346388433067474,3.22974861416807,-8.007200201269004,-58.51540597883563,-129.72355366657908,-192.94906696837182,-226.3115585192987,-216.26804624759467,-169.60537436345317,-128.63841925231765,-127.96718594512328,-139.18251352946194,-125.2151571393814,-103.79349533204676,-92.41514898150157,-76.65835830988928,-63.42968303806964,-65.79112134350711,-60.00489263274803,-39.501473095220845,-34.086720866255355,-39.380254965607705,-30.36717795844706,-22.151374215495135,-26.929224386271876,-22.791407762530053,-10.300423033541223,-6.5134498907016765,2.5791846957906177,21.923835765245684,27.01944828282714,22.550047078711298,28.960551571927986,31.74185207268659,25.3001234466637,34.055578633354244,51.48866820458346,54.16151064028301,55.771654925687066,64.81508969340584,61.14231063845992,52.99059214204303,61.33792213862949,68.30616515463363,63.18890886504294,67.34215791065904,76.11557836484984,64.17591120658253,32.94003015436317,-0.7664247466559999,-25.07289627491829,-32.39348302078701,-17.68340609100797,11.284748603729396,24.878666771997096,13.507836236594946,19.19039296529796,75.28496048523354,161.97679411744014,253.27507490545491,330.09528666578797,351.39929212545337,310.0047953510722,262.8005531771331,240.40646837672693,225.36410991295367,216.8176944970554,214.22600412720203,196.58689866868596,174.54087905677054,173.42289866112696,175.01081810401723,161.1809105515595,149.01940152296712,138.39915367820402,117.38698835906939,104.98589264089064,107.54085815219193,100.54683174697415,89.54929590000967,93.97753716651056,93.57811375644441,75.79155341216253,63.631754022967186,55.19694347309051,32.612488098018986,14.410259079314955,12.505262715509264,5.44967268563302,-3.1580240785516502,4.415521501308801,8.577941174533459,-2.581574499876191,-6.84258724776838,-6.67611686322226,-19.283355634846007,-27.5913720188439,-24.136846929538628,-32.260940265702764,-45.66783533967597,-42.8130987490012,-40.45700952047795,-49.41951511846477,-49.01328811779124,-45.16204891295189,-57.344076521632005,-67.06980857479323,-63.92283537362172,-70.45745562006687,-81.04494873033957,-74.41946627720482,-67.92959406176597,-73.56453192990335,-71.1575026359699,-65.77403461923707,-75.78832955755622,-82.41417724626545,-75.38727639257267,-78.26328488319588,-87.10974455894825,-80.58969589048776,-74.0915602524746,-78.54914294767849,-74.82313257648086,-70.30887453453403,-84.43359396734385,-96.20329896378962,-91.85935337409269,-93.19187277502455,-97.73354296919217,-88.27975454173182,-83.31007871006996,-92.4428994727129,-91.62928799477667,-83.72500225383395,-88.06829623220011,-87.99743454148941,-74.7311516537317,-72.85741235250904,-79.13585147864579,-72.25835609606753,-66.74557620545589,-71.7353828927931,-65.50841281366813,-54.082267351717235,-59.11270614457296,-62.43770572394544,-49.8205972627801,-40.49035229739425,-28.822199083808478,4.88268723243597,41.51881100151045,67.92711429079448,102.37247063177409,133.56505835905702,135.25725801071263,124.27775438768306,116.94428885803767,99.54110721352558,82.02416925235443,82.95413199105828,79.21567814391516,55.87819846427733,36.465161222421195,21.781087434150674,-4.272405257334313,-24.902291569652935,-33.2488572989231,-54.74125878275134,-85.116520960207,-101.513284264963,-116.46973129806807,-137.2142261627249,-142.55402745819907,-141.0985849048035,-156.68744739860716,-173.77491202543132,-179.99643491639532,-193.13428832101053,-206.44181373191628,-201.16644496586633,-196.62538758572384,-204.96854515327473,-203.4257945274045,-194.70311771267157,-199.23307806141986,-200.65387514841942,-188.07108437708868,-183.99174983932093,-183.9051866216196,-167.19084233400304,-152.96170718760237,-154.2431837833439,-147.4475109529391,-134.55446832937213,-135.10425287157787,-131.22441663480288,-112.56370972460402,-104.15091431882061,-102.78183946760498,-86.89395322872285,-73.42082486219249,-73.70315350774541,-63.964416867092275,-46.09625146555162,-40.16125612535132,-31.06888563108808,-10.743271863681056,-3.9610763066158214,-6.256172134380493,6.252347106038925,19.13774886651399,20.18915511061035,28.888943882767272,40.35909503791938,35.94151347990377,34.75675863754478,48.391289641110724,53.64185502273173,53.790978673227904,68.57769200831241,79.8650129611823,76.21444163442467,80.62705287496338,89.74001180746743,84.15423079430724,81.82453420282815,92.90194397873093,93.97510663735041,89.87451246491207,101.55378482857208,110.93010240000511,105.79543049863216,108.38501794651326,115.69557971334808,108.6799809241489,104.35163308188424,112.25572496655766,109.23394120681787,100.43039968305791,108.25848185309111,116.63850202117747,113.11604268606203,117.4872223312631,124.40968282710816,113.82637898166244,103.70348413888942,106.7842783041865,102.77045627144552,95.81209556356949,105.27345481184216,113.63074516182056,108.04233367335719,108.84939493663869,113.36831661055678,103.83865019656615,98.090121003295,106.83563924380242,105.87683235923343,96.38429858277038,98.49228972224768,97.90492141654158,86.17106354082726,86.3184362665672,92.79711212120966,82.32539802986382,71.07133864434776,72.97569349250567,68.99302801268507,63.15698248364477,72.7256529381391,78.20430792582214,68.6935092027718,67.67420083632464,72.86326360787108,64.7858263796544,58.84070965771669,65.12842967594105,62.01121121394956,52.66583295522824,56.34094804763474,56.503337695471714,43.04821549878997,39.96040890206078,44.410658498465246,34.650939453830276,26.177466099665367,30.866610563706402,27.824580262611004,20.676780403093012,28.168912764839646,32.25748961070592,21.518194661809552,19.16179483213437,23.687837725295825,16.048868329797298,11.930873771801362,20.3599121656475,17.933466263933475,8.758093467532756,14.470843541037864,19.44225690719498,12.039886856066058,12.736273140439028,16.651158096986908,3.2708159169573854,-9.605258969435772,-8.611460896931568,-14.371824350048865,-22.778490047857275,-13.89319844360673,-5.983262175334064,-12.253708710456328,-12.061133926006065,-9.529640710824062,-23.295545316821237,-32.87905882002867,-24.18608098252577,-19.75266644625687,-18.338012280422937,-3.259540406152262,5.465266554821011,-3.2455827591934145,-5.057885244385096,-2.675109148605865,-16.697375976935557,-29.919732744757294,-28.69007245672131,-32.62307986184983,-37.59705091401843,-25.31520142984085,-16.173900750346025,-23.902791943032916,-26.08825687912489,-24.77197749395881,-38.11674056044315,-47.246790496034635,-39.90031059532893,-38.384897725507145,-40.57257197068852,-29.372263158049734,-24.31325752693763,-36.33404790121191,-40.33843451684281,-36.59369521811456,-43.6483440506984,-46.403102887517996,-36.728902672326704,-37.25294813663667,-42.89857665689496,-32.908876801811644,-24.583840620831545,-30.456593733153234,-29.895727993242186,-25.864114310732862,-35.40180160254978,-39.99926300311032,-30.32612041739229,-30.803669716697335,-37.82685883024724,-30.219476136252673,-23.941037888204797,-29.748727886243447,-26.22403279697246,-18.286554795545836,-26.346276146783357,-32.849985130361,-25.80348092971283,-27.28194661025588,-34.19274535626117,-26.452677134452184,-21.11938092108766,-30.393289938203363,-31.508599674392496,-25.51812170741494,-31.163283965722492,-31.914132335295335,-18.085765304817446,-14.997211777201654,-21.581247022864233,-17.204361625126747,-15.68326776749022,-25.302194542489836,-23.40718923901342,-14.954945112176627,-21.9118485153521,-28.816076456179154,-24.25850879216599,-29.09279579915516,-38.228358005961404,-30.236793563137653,-21.962964414424874,-25.937560018913484,-21.947867743306148,-15.902931978822469,-28.062669227588966,-37.926194515827085,-30.371240813950166,-27.371430028971957,-28.44100829130562,-16.541899123973906,-9.503915683050897,-17.431658886990103,-16.13338121035022,-8.747762925148319,-16.840580747382308,-23.723074791611847,-16.361388969463597,-16.20816420978158,-20.96415621893478,-12.082736561230362,-7.596888110106136,-18.334168451883883,-19.781355941150444,-14.169131638221092,-21.963408926321534,-26.441273411709897,-16.615612336788594,-15.586032794457335,-20.51349241986519,-11.263518226406974,-4.539803026071866,-11.174316112965366,-7.894058739691063,1.4903298146897495,-5.099012822891299,-11.919963871473946,-7.482813844936658,-13.094355560448818,-24.049174833470847,-18.59835496969793,-11.604852207049891,-13.659431236383302,-3.8610906730116623,11.690361307326251,9.25024593784778,2.709886519876706,4.354017265106425,-2.599718782174456,-9.983134529036073,1.9926937118070054,13.080863541059713,8.701423984602894,9.501414599737133,13.353500480065504,2.871095503873333,-4.151599075261306,2.585053348917796,0.26215357806943507,-7.187258664298655,0.775778619225008,7.068716765345805,-0.10938618252556243,1.4911313281493102,9.174441959581303,3.377607140308559,0.5309619547537919,10.38257836705673,9.17878979300979,0.4568913022197485,5.389538530303103,8.48784868881013,0.6468329428028361,5.286805912131008,17.2511205366437,13.692180284221148,9.803587056219632,16.195686994265056,11.499535956225339,2.1831103612416793,10.76337712617873,19.24401558447809,13.705461945469224,15.182031593930922,20.45667015195112,11.101430461132427,5.991414434006661,16.327949011567483,18.307658309149623,13.748362440342435,21.480214895189718,24.645457058363753,12.950085400670272,10.100923182817104,14.586252530092782,7.459433083099922,5.101205631776506,16.75464159424769,17.24128319173015,8.377128929010107,11.797954653570324,14.322918176312495,7.298821478708528,12.53482656325133,24.195391177871745,19.050098769504814,11.207358818632782,12.585302328666005,5.252629933991395,-3.2231631301601738,8.675946426795228,22.28175537756761,22.207551382849392,26.99333436918195,31.88614482029201,18.76887412253011,8.427970035195951,13.32184960231996,9.035550667887005,-1.5691983620599506,3.787937376091091,10.122331798494725,6.122899487789667,12.464911107213105,22.983964364877863,14.99065623912743,6.155432148943829,10.927695884389866,7.964856543732546,-0.049087959860467656,6.997737549220041,12.543635312338031,5.3876878980851135,7.1032220823895065,13.315465171422971,4.676289161678812,-0.2659421699677854,9.789443222693448,10.814853874074469,4.161149118848806,8.77188892909112,9.084590291849395,-2.462268647011763,-1.242746397759713,7.891713697581465,2.452027922997452,-2.002737350644605,5.0527408247462215,1.8006882809543,-7.124093627703507,-0.4067978524257083,6.102694026139819,0.2608906933580255,2.3559085471243524,8.312478324289827,-1.5521719901304944,-9.20637397328357,-1.4579243609280654,0.06126886642851437,-2.8101256730865813,8.026948258389893,14.570943315564604,5.526874250588672,4.2479836236078885,8.736039989117856,0.08481835856429765,-4.39375145481347,5.083780834585881,3.9167686631498295,-4.698913149828468,0.8804702994390223,5.241010320940432,-1.6036631996429689,2.678713535117654,11.793676040215185,2.5033580821314363,-7.227772719474669,-2.772308153935887,-5.310357630327823,-11.872573320922527,-3.0032339628027245,3.54887358551015,-2.805775006212679,1.9139905883750132,13.020963339336232,6.456629311087304,-2.298435157059856,0.95712350294396,-2.456568085488705,-7.695258297993736,4.217675479492358,13.76353058411863,8.285509731609682,10.509826836042317,16.75979081117746,6.100697720232473,-3.628465906925249,1.221970207870338,-0.13619829389332305,-4.754411333742422,5.186314350236829,10.55204995345785,0.13564404986233303,-2.1178887644567737,1.9110331332694146,-6.585321847150903,-10.612098999656753,-0.4009181241938471,0.4022029008655781,-5.977288189418991,-0.7490388556329854,0.43821725008784734,-10.300982736495774,-9.3482779007401,-1.009681826158428,-5.751434466303889,-7.592339201321346,2.136239981281478,0.20006205033977675,-8.134438204053172,-1.166588281657138,4.88272310833017,-1.1096918097651103,2.028057970011974,10.179219640254203,4.58604256935801,2.4500681142332414,12.215163529207926,8.425717717159108,-5.413578505104794,-4.698772741876528,-0.790338369015608,-4.260873598982094,2.224890601713641,9.678942735474564,-3.6596095807044504,-17.440165837931634,-14.396905711729968,-14.213337118215753,-16.43835354175646,-4.979450389499154,1.8833577278792502,-6.95877165461205,-8.327040182412555,-3.552329999835934,-11.49952881989855,-16.34771880870999,-7.541973588467809,-6.892074084553901,-11.436410294462327,-1.6572443576829623,6.643448154247839,2.275811469525186,4.1790730141527,6.039665939598119,-10.209176747444987,-22.63591166804241,-16.69084559557269,-14.590598314997365,-15.322995737930377,-3.3123433645509723,1.8459459823591617,-8.444886862862674,-8.103896368200648,0.21892296653112453,-3.9935609447131246,-4.603287196713994,6.976037268197951,5.648827364190458,-4.162939052546539,1.2994595132110982,7.0106798406621715,0.6939972930324565,2.5152838596232594,8.085995801893263,-0.8570255548334194,-4.831867154609184,6.886558913411427,7.833997417690654,-2.0568897834181765,-1.2244973632563287,-1.9355925663487223,-12.2250776896724,-9.276318096646559,2.0209098608175498,-0.6445401781699931,-1.8818592050482699,8.476059529918821,6.432961672512434,-4.807481726536708,-1.5067403672245283,3.481320104337983,-1.355462715992116,2.901770356358911,9.90318902657817,-0.47385081160308484,-8.112074070772435,1.4507430941770147,4.827544457094079,0.2658445975853958,4.408438892589206,3.170713561250693,-8.917881224784901,-7.370508882860478,1.4197504461921606,-6.898568156017675,-15.94474948032921,-9.687501792422973,-5.600062969011537,-1.5543800267387031,16.149467520565278,24.64200077831672,11.44706191964165,3.719225180422247,4.387528293432171,-4.688833047808163,-8.308769020939158,2.563855066029692,3.7636109836020215,-2.1099653419093922,5.287141825577256,9.460197160950086,-0.9845546681363793,-3.4077874253662355,0.9247268080427045,-6.501159162169165,-10.207941487259063,-1.1339776376479964,-2.857383007622028,-12.41576218523948,-7.946905915109786,-3.203900282037443,-8.495318178026775,-2.8029904542225172,8.358886091202503,2.2150221376241053,-5.521247221860679,-1.7385704381097635,-5.6630190952890365,-12.27048855904434,-2.3462441432652064,4.968198038473752,-3.076543424670576,-3.132315526220534,3.450176177639063,-3.729595743289937,-9.897112673202756,-4.4524183113254026,-8.55968361584099,-17.470868311868074,-10.42506811366027,-5.3847244513476635,-15.197549198993624,-16.197240703985177,-8.388789005821952,-10.27281253112019,-6.631565355408867,9.450535475678517,11.06965645832937,0.19690015048131038,-0.4050616587747107,-2.5317424031550484,-13.07274524534483,-9.146413655631871,2.656121396795358,-1.7336414127002029,-7.070755083284294,-0.7301618585790068,-2.3315062048638207,-6.349670709180957,6.91983467729396,17.716959724192332,12.30959982443117,12.027864164130614,12.97267332891074,-3.1481418435391433,-14.594716835372441,-6.688021965584501,-1.952344759070482,0.4282825366928335,15.348756721287124,20.893837870040397,6.246975001371149,-0.8999019791812299,1.2643520206634693,-5.64805895779585,-6.875168027436423,4.84474365824509,4.147246625426588,-5.350703119773452,0.02683080099672397,6.3077590412933136,1.051446091299023,3.539726675164234,8.51995873604334,-3.7121997522790737,-13.168467261379412,-5.22071288628207,-1.9004439591815263,-2.551843537928367,9.099650034166823,13.740400155212692,1.4341147606549507,-1.6943721418636033,3.155919884735033,-4.005647044600975,-6.5597350600072115,5.534351214643176,7.973081696437687,2.6417992525792955,8.921884039654966,11.091612801372698,1.0426187618678768,3.7966670374809652,15.685064810653165,13.115222269829022,8.995418229850841,13.354854212425808,6.171419192484748,-5.276722820509214,1.2019085576888964,8.511646408478612,4.784399009389133,10.439478734650079,18.797043635142646,8.303834105138037,-3.1526756972121484,-1.7736943701881283,-5.9278520532027965,-9.697382553357832,5.143946780981376,16.975513759611506,10.177234494213394,5.795553376611596,3.76205600747016,-10.153170626031645,-15.398682724659672,-1.845834334595767,3.940563334834347,1.012292151874274,7.101175682066424,6.2593482118743715,-8.912641401493596,-11.851253031898967,-4.252125564149046,-7.636202935214162,-7.956975769082613,3.4496223178670107,3.275194346171505,-4.134820570130639,2.521570515792905,6.747384159472496,-2.85530669214121,-3.877130012644704,1.5014703175109672,-5.9066175231824065,-10.680331938249985,-3.42705574197315,-6.225671788031399,-14.51809268019803,-7.1655801597056925,0.38814304009214373,-2.804269795579189,3.2352762664816885,12.04968259798591,2.568011640328742,-6.7773234102518165,-2.225347178874788,-4.077822729658596,-8.312433597774543,3.380002646336415,10.89698639648836,1.5196306344523682,-1.0758141645761736,1.8105227508137118,-8.295200921485469,-13.27095621425001,-1.9757269763971759,1.5808436999826017,-0.6996325212486667,9.95071665556225,14.592610040360631,1.593814935188461,-3.7310213595846,-0.387934554480283,-5.579369004536469,-4.06791563224013,9.469989841242535,7.790480942494526,-4.752524182147596,-2.202794740978467,3.3185232296072527,0.2380550553599856,6.632818096952441,14.278271498336133,1.888817699090195,-9.700591913107267,-4.869982457987865,-5.271792983166037,-8.354541850621233,5.288484705107243,17.023123392854906,13.906430476839894,17.59180661876345,23.661845199385613,11.813495267211346,1.123200874994414,5.170011801633037,2.0351610897951518,-6.150854927275852,-0.7561282609682429,1.8796368873456033,-7.604840892346263,-6.337473078738929,0.9680195441579706,-7.131745689259521,-13.346019711946326,-4.84231328867374,-2.629637995151537,-3.407465412396903,10.320529223671604,18.594609129553888,10.068468561529588,9.009695405966841,13.283681702908371,3.65160514761868,-2.478464352171227,5.345225808226143,3.3307775003943716,-6.199184187148282,-2.9316237752046623,-1.9121226523959338,-12.61376888650308,-11.700774964855318,-2.0303336948756963,-5.223733353470088,-7.507905517223652,0.46097688680268245,-3.894311116134782,-15.43659725607412,-10.567690076413111,-3.211045244455455,-3.8083262397860715,6.821008302944442,19.507948527575643,11.763806771989984,3.1311111762700046,8.672778149605186,7.70607739948546,2.5028532713799847,10.230382362163853,11.731822186331861,-2.0984780927804625,-4.338738510110665,1.7068935798122773,-7.632560979204294,-16.3964971359632,-11.138192009626508,-12.215105003258119,-16.090367006321866,-4.309957823247581,4.127041840943459,-2.4781986819835877,-0.048071243587014756,9.688429395467283,6.651235226546872,7.8486244562519385,26.476965506218498,42.38505045247088,59.480476290901585,97.58177388571242,139.01766039653108,169.35829383254054,204.1825431704019,231.06649373140883,224.73172374973493,205.59695864719234,193.96344268757525,175.9603339955681,156.1499047570281,147.33976032524276,126.96065615292989,86.76979375118177,56.66043785249796,38.58564406224542,11.640007574651301,-13.218333167124895,-29.21644782727046,-56.58509767149417,-86.87973881581908,-98.94180386776202,-111.71965864467656,-137.091444399971,-151.949596410557,-158.70597139147213,-176.56068803054913,-188.65315185580363,-184.71812040574895,-187.52000690740792,-193.26975126513707,-183.147055225039,-176.42186891879388,-183.27593010986712,-177.6195432206259,-162.3586158092448,-160.8534356595884,-159.06031540118758,-146.78072132454605,-145.6186829934129,-149.37993866894675,-135.41159343160564,-121.25823555279544,-120.77340037191294,-113.27297433726488,-102.62890233234646,-107.6516431470719,-108.1791855076574,-91.01011478126881,-79.85887048793185,-74.70894088104944,-58.07034281620848,-46.266044160220325,-48.56824224340274,-41.65740979800137,-28.82868944698862,-30.980186214398554,-31.213404844934846,-16.537025591839956,-9.23969928567769,-7.991292244781496,6.328121060319236,16.682159248630928,11.766576039422112,15.08740445880025,23.82255470829115,16.967562737251978,12.26079781846311,22.613679733006283,25.350714195521444,23.46554791265261,36.518334296546726,45.83000585929923,39.80629975870474,41.64359589826913,47.70051927112505,38.69574029797906,34.11816473360439,45.80019552313988,48.94331992426109,44.01654568591972,49.91317396124685,51.717853561178,42.564947706908015,47.38754732870066,61.33839250220164,61.21168270080421,61.19406010739253,71.4085552241403,70.43797105341763,62.56142517308223,68.27030297441249,71.94217649025443,63.15248350882027,63.91898889983386,70.86666300812755,64.04352860412887,59.72081665476062,67.9241593854102,65.07212609014296,54.68690057818857,59.0871436303546,63.61335912555238,56.62040958275131,58.46297449753931,64.88580731635024,56.21617482606838,49.72981165781857,56.622257947839785,54.733452099117436,47.93642647099231,56.3454404884953,62.88770598737489,55.89434754165957,56.197516915302984,59.550434852731335,47.88033938624807,40.06705330087789,46.46814768615541,44.25158898122915,37.819716539302505,46.44319359042727,51.62688620498791,42.245367830672386,41.26231527991878,45.478470148250494,35.0753710051502,26.88589342431279,31.59918005386116,27.088201942178344,18.552621325849234,27.51629807594598,35.450695736848914,28.384189396335767,28.30563312456721,33.01121590507149,23.44290542838246,16.776468696301166,23.27772209052812,19.87493847653289,11.338927581815874,19.74685836186534,27.764097554356994,20.966730801159645,19.66434605270169,22.16569520516713,11.394270656781153,5.635365442447863,14.475385141348134,11.708984297700136,-1.0626603240607055,-0.4669099580008016,1.7259431718465543,-4.462280160870202,-0.01682750420047885,7.448340689893922,-3.6873394293388397,-14.360723887010032,-9.389415839514669,-9.063933455323088,-12.222228503120078,-2.6567125038216806,1.591071367285601,-9.322860374072325,-11.693822304926805,-7.819649954227714,-16.522466368551918,-21.14469898664111,-12.234749715819909,-12.904426949081422,-19.911681883403723,-13.909245153987085,-11.231168565213713,-21.33503490281364,-21.2807936651249,-15.146037398363012,-23.352206447092613,-28.733486320544895,-20.15426730318373,-20.38869897273354,-26.70558339370817,-20.020578057582963,-17.2512024614461,-28.335537589781808,-29.671977934885096,-24.09184394778896,-32.209753457768585,-38.438161995636364,-31.444603091288478,-31.718136485332316,-34.9716981524153,-23.01607288651951,-15.488929795046161,-23.933927882893272,-24.317439022340793,-18.444523661371353,-25.449398322518945,-29.473074685371216,-22.016379149136256,-25.92424739617632,-35.02447304884367,-27.03457140922025,-18.959739706244726,-22.685786681609038,-17.21548225469231,-8.81720665978597,-19.479034139146968,-31.10408351860208,-29.1659023010489,-32.469292032089434,-35.88387407041049,-21.348610823154672,-10.845695001107316,-19.2302858454376,-22.62643062257781,-19.890121343282523,-27.64521481034892,-28.482773494089738,-13.86341436716484,-9.888721080049978,-15.090644543201698,-9.4675127567287,-8.697773093730289,-21.065329213681313,-21.48759861151418,-13.050551866299152,-17.189238773074063,-19.444339566819046,-10.84399401318575,-13.058907355581297,-19.935567220258907,-10.020708901172991,-1.1346940057419213,-6.0538386499452335,-3.4919029043525778,2.2879381361735014,-8.75063610648797,-18.806614170303195,-16.24681511385401,-21.95118400605141,-29.863216897191094,-19.47416630180154,-9.428190088842964,-13.139148835123455,-10.367287676678458,-4.538653461766147,-13.499252042331168,-18.92129413640925,-10.093652581725035,-10.117813089081185,-15.118646621902517,-4.16911807056149,5.623656139466165,2.0512073788049876,5.544035515127131,10.313838872566347,-3.279710649057387,-15.264186703373767,-12.30215210549726,-15.033403678159722,-18.641779573667254,-4.85168536376378,5.38691544195922,-2.5403362641352807,-7.058472321661824,-7.834783567725502,-18.80320267470208,-20.729088007275784,-6.247587501862984,-3.519750995788783,-12.095555500875735,-10.036920172408202,-8.759035142911957,-15.097602463849114,-7.499193947713891,5.83879377970986,0.6837042451900439,-6.542390856039437,-2.3464858155718784,-6.318976227136305,-13.048153823174719,-2.2925369434726313,7.436095707270959,3.274497463574485,7.006570212184652,14.9023717658715,6.035812682383099,-2.878944294344371,0.720251974615993,-3.1569826046932903,-9.03879099039132,2.5279151017786816,11.377675131485265,3.8367632494592296,2.9301092283336696,8.58581666127031,4.019683852660932,5.638844627616435,19.45448799225018,18.361537642820128,6.8961963598823735,10.085789041729948,14.907818491243637,10.199323236831463,14.348641484314447,19.866694998996525,6.348518652550672,-6.322720500743301,-3.9641130513051124,-7.9255730113315686,-14.778205317060854,-4.859239406736065,4.278049956352033,0.8623818709447377,5.7196567627528205,13.705605923287541,5.633932124073442,0.5881339154819697,9.834991760860314,9.99556171005926,4.184670061233858,12.48660040471781,18.534337746033536,11.87626911650932,14.22590994396504,20.393486764747948,10.406915782240741,3.834921745059586,13.270641425118447,14.735928116039448,9.437363255081127,16.216578736905007,18.421328718446656,6.921949302195992,5.939091498857222,12.108654972140263,4.956659377287142,0.44633629061500235,7.820590904904623,4.444452586886073,-3.987022862536842,4.8429833017983,14.843588365265228,13.539940315969094,19.191267987353125,24.641502574343058,11.437290625704465,1.7934517785456574,9.774097349755724,12.175301095005254,9.745134110414071,18.653286565939993,20.071050834921177,6.046410097247291,3.6434532522768515,10.588632059494689,4.6768662184988115,-0.007324780763303562,5.982409745824534,1.3041615935880069,-7.227567727339951,2.1584784464262627,10.658390498671508,4.124236579277599,3.6519853645798115,7.29240984477557,-1.9920507643045644,-5.335670229717913,8.045130195295469,13.200244603608665,9.891753358461628,16.00687404224008,15.933985097814713,2.1105471139896714,-0.7317631262109585,3.617868770669629,-6.373739640075383,-14.647023248572022,-8.731112158442588,-8.550492916596294,-10.627585251680173,2.3196892277373022,10.843334942706718,3.7560131504860452,5.405230558241021,14.102278262758963,9.529518366370997,6.67310703192022,15.308927313097298,13.461605035333905,5.753268087123639,13.022177542765231,18.41354029275444,9.650806397666,7.176246484700915,6.975441283329677,-9.083122973803565,-21.042958776764692,-15.303339322453915,-13.291060015087,-13.556976992903934,-0.7731409470279642,5.139930056351549,-6.154600648659004,-9.991972631156933,-6.802690522256489,-13.881158512880354,-14.598527087842502,-0.9930121018473255,2.360544167604799,-0.7266311776537919,9.691043087557473,16.092012054671716,8.109179243608724,8.036169802127494,12.132410136252206,2.949912936979313,-0.7641458051595064,9.445333040789441,8.411193151834372,-0.23805136060000187,4.100257228940679,5.9036573177047655,-3.8906901965832725,-4.567647360269982,-2.5101275410263213,-15.730256228554868,-23.056864093134973,-12.267962736673962,-7.344549100322173,-8.194518320736544,1.1134208735056461,3.3535705079826608,-7.7910847297617,-5.683899469121801,5.382732491274655,1.808888638899048,-2.1200604500358966,3.9762173374024075,0.037463640531591125,-7.081026929902111,3.1078700366618612,12.227820214024963,7.381037372255287,9.026105110719621,13.7074507188822,2.9163885361640824,-5.313798942110869,1.6338304212534784,2.4095822120058084,-1.8656185330602062,5.1793076531696824,6.825897023297735,-4.9015094167723126,-6.2672085923501095,-1.0592450614663091,-10.220850015071955,-18.46544586795055,-13.636058530624586,-13.83881332386641,-14.521716803542924,0.25662688576970005,10.442352677878201,5.3895024923004975,8.142752944202332,15.859383888265924,10.050411169457238,6.481328832848828,12.816599495216554,7.5147782179400835,-1.6320183229717862,6.504864355384328,13.191487110164042,6.048643018522659,5.564340124138443,6.561878363099171,-7.907462632348379,-15.983615468599186,-7.212692760921432,-7.737134385023723,-14.883048261016347,-7.3299371911453886,-0.4633640251756417,-4.007313741614338,3.1473679978268,13.497815518805679,5.093349941168995,-3.0859354500535847,3.1129952076463323,3.357707788379781,0.308498645442143,10.311867315162257,14.157453285804392,1.6061774640889404,-2.6811312717859175,0.22726057423007262,-8.861768352595139,-14.60428185156843,-7.708396944531117,-9.91039687982894,-15.941581795053475,-5.5779927282952695,3.391115220018157,-1.0193520799523168,2.3733755198030515,9.633786671491892,1.6514580751132537,-4.8055576570845275,0.23117537843932334,-4.09163784129633,-11.348710809716772,-1.0038156326472096,8.435150394373268,3.115666825550329,1.9512863882418852,1.4821747212022975,-13.016117603020458,-20.50169933054716,-11.085420599875928,-9.966037691130925,-15.967475992579383,-10.384511643160142,-7.9376723264693485,-15.897891954709099,-11.634838278985828,-1.0401115184489358,-5.222005526828975,-7.815273818774551,1.3662815612252501,1.1306435328278188,-3.31921379599974,7.324134970162852,15.31592689234538,9.181673932237935,9.091511272570104,10.501943536316642,-3.9800164630640955,-14.96642201099154,-10.628341639197313,-12.042724573030208,-16.308703324715186,-7.195050046262089,-2.3752734065376684,-9.869531933425923,-6.935829892294475,1.315856232562489,-5.165008791812837,-10.014661355569263,-3.0349040838727555,-4.547014916591511,-8.750994378284291,2.6096659570469303,10.010099992113055,1.9980386357023279,-0.009349260806720716,-0.36805193885955845,-16.566380077055662,-27.135174986211496,-17.690081128722184,-10.522012363770305,-6.242546054325626,8.986111694491179,15.381936701037352,4.841377918553312,4.603300109700395,12.92161449126368,7.879316644085234,7.814343802207391,40.20214672593882,97.20497994574635,155.12937107551102,193.52544625394495,195.94695295272487,158.835116082269,111.12911257952314,95.92954536865614,107.47426461263532,104.4181553011895,88.29737812703948,83.35602884849519,78.2063227750961,65.95809477989674,64.16444979355565,61.09218669099325,39.04534739205246,24.4694374788353,30.499930046060463,28.22687046366435,16.3742395932154,16.296133797003463,14.79271969575871,1.9801611606467193,-1.84408309006111,-1.2223810298670048,-14.54064254238635,-24.030177283556355,-19.838891906113997,-24.888991923849026,-35.50252394719657,-32.85469329850777,-33.355754903324964,-44.36225792578,-42.68220776283441,-34.982849354238894,-43.40004651443924,-52.06190045248836,-50.05845124882944,-55.757577822210365,-61.235177602776865,-48.19966364594423,-37.598380054810946,-42.47938463991567,-43.31990607135421,-44.96098990595975,-62.948765060929745,-74.73816833599149,-67.01413232084457,-62.31655759974538,-60.69856279369985,-48.974721696516525,-46.79383907381473,-60.40724800010447,-62.23118189068066,-54.62975431338475,-59.07332969145416,-62.71921722595327,-58.65660621193959,-67.36080587761391,-79.03524596613182,-71.22643171198607,-62.45060246876801,-64.71541983608552,-58.035382596205736,-49.56903431977707,-58.252300696203505,-63.56660770929617,-54.862644360229424,-56.300128438905254,-63.16007974586291,-53.99564563095369,-45.28013125995193,-46.65730283122985,-37.26678829434998,-26.634894150461818,-37.17730777969897,-47.758373832948436,-42.92310329748253,-43.40971333458533,-46.96848602728135,-38.00286178195042,-35.16961169256521,-45.009569827492236,-41.33663210412482,-29.052239656521948,-31.4045621869957,-34.52189564821864,-29.277920608626196,-35.98491913323265,-46.92183305239531,-40.700304350640685,-34.228202339532665,-37.86457854009375,-31.36815254855032,-21.847776573561653,-28.957614604860012,-33.62353150477521,-24.63734101336889,-23.862121804934464,-26.796459619444878,-14.639667909915225,-5.234588390296446,-8.497324718083973,-2.711279341906963,5.7163180192265495,-3.228936216592234,-9.7015540530826,-2.1645510366768153,-3.892496969033833,-10.456975617131835,-1.8546785488696451,4.346134370502832,-2.056641463396731,0.2830416841646328,6.063225646455394,-2.20369133298306,-4.3901398513780405,9.242508084079525,13.16038006674164,8.601504577454541,14.67283925410404,18.06559557293178,14.07204040349453,24.76435106200595,39.234485266692694,32.88948286726843,22.978483832684127,22.464978754674373,14.446306752436811,7.791464762853468,19.771977713271824,28.199093672467264,21.99781466645343,23.835101382240627,24.576492305008788,-5.824542323595757,-53.185737889384036,-94.35339660092941,-132.7122475290391,-148.4796199913602,-120.85965076279658,-87.37040261459885,-80.1344423274484,-77.6534523252136,-70.3526296933571,-68.7560059545077,-57.84421428878606,-35.507952257135024,-30.2119639126279,-36.65517385753823,-30.157249970507728,-24.5483498336666,-28.696307226073397,-19.72369445327564,-1.2575927505193416,7.283046612202232,18.594711267991872,36.09671005783505,37.51524171079704,32.38944235407601,42.59069724392299,50.66504245127129,47.05679114160738,53.8366883198008,65.44135534569718,63.4551513722007,65.302329616315,76.61844876302979,73.22396356344927,62.806582516392496,66.3973974848899,67.5588563489941,59.788949572904144,65.80055117038258,77.24173377544729,73.34647494698066,71.93888545957313,81.60747491565016,80.97018628556054,78.00816841651258,91.27671631449081,99.4617425861305,91.57683330004352,90.41488583139576,92.13951908542529,80.56453367665013,76.44007679337165,89.21626403593301,94.11925964040117,93.61866586964963,103.5919052820348,103.70255407663433,86.29166164430453,78.81831638054396,80.38253115752084,72.72882786437255,70.89263845801096,80.81761337748004,80.35911930600119,78.37804959877451,96.65787840624864,117.7068435112266,132.4072927213661,163.3194528674832,203.79789883542628,231.746246462851,259.7860662246278,289.4250913486179,293.46937487928477,279.6216820359694,271.89474101442363,256.75170782732243,229.1013893841681,212.31888910118425,199.19474871400573,170.5659491864632,146.35515933248217,136.65042427224753,117.6291024874231,91.97089471879129,76.2560357417946,53.604313085394644,20.066181979890914,1.2720560514631805,-10.383744749608638,-37.42012202154539,-63.2599451734594,-77.70113268986138,-100.40186556032128,-123.98245227851405,-130.27893888298087,-139.24522004135,-160.2214487734534,-170.0177796565973,-174.632111700568,-193.31884716441175,-206.562661192985,-204.19984782017627,-208.6697594141957,-215.35280161272254,-207.75149936627008,-205.2728328433689,-215.22725595520143,-213.18325213850179,-203.40930201325543,-203.5647718166443,-197.28712964094643,-180.40849170463747,-177.114874816695,-179.3845974519057,-166.30161059531622,-154.3278284245054,-150.99768804953536,-135.9615662140655,-118.36747650477238,-117.93348712826123,-116.12328430501884,-103.92599660082402,-102.37838624623456,-102.88371938944623,-84.9935884979228,-68.73342330294521,-66.47283214305683,-57.86451889343136,-48.19547280353909,-53.00116308146317,-50.324724097987456,-31.859526426065237,-23.685452390568415,-22.121497288814666,-9.043381078469592,-1.9854716209889434,-7.103834069274096,-1.1979655987002897,8.881095984558785,5.474051558579845,7.543863088847164,22.044662293976984,25.489290093846506,23.276492260659577,33.39151612853773,38.52479801823426,31.894264550495596,36.98969133440996,48.250971693385075,46.09678328841609,46.2995705595374,54.69284516790092,48.572355489186556,37.18654263237035,42.95240018023114,48.70290287550446,44.79724194466819,51.45567728254987,60.76417831620751,54.137622398910906,50.01589539617278,55.48903985927709,48.788289736811286,39.46354670286185,47.854117725031486,54.49290543409075,48.944452183066026,51.2253825878996,54.48359240350705,42.920788139010014,37.57134908125191,45.90044453007796,43.925024068538875,38.34940209036388,48.31643903367247,54.80198715954954,48.508545853909006,50.317070410250274,52.7782178273339,39.439801921268334,32.724690096364235,41.07348465848046,38.971230744649674,31.799386099938985,38.639308856803424,40.932181359563856,30.887588648105016,29.582975163344436,27.46215957140562,7.966709672819866,-3.102510868946206,6.423429255554831,11.603416778021604,13.4814041816814,25.08610603588395,25.776979007711645,11.688504078006417,11.144318847630721,18.84620491784586,14.425650316438528,14.322172065242004,24.20193590807419,20.762280175071467,12.156113761222548,18.66121920375704,22.169102240991425,13.932009076853443,14.808678709516373,16.75442394496135,2.3084529547856096,-6.997793980043353,-2.172311946836718,-6.997784146884154,-15.910992374083605,-10.57256668073422,-8.286252192158475,-14.419964422116703,-6.463101959558538,4.261811593906473,-5.055739103256661,-14.87335053273926,-13.20164601701256,-18.907071316611894,-23.624342044599274,-11.174390785227564,-4.5936328501503265,-12.64569403114024,-10.650014375085028,-4.530407234052064,-13.497154914856509,-20.021845200283575,-17.08465179930542,-25.58204548919204,-35.0730063060293,-25.881978548364167,-19.103315438002433,-24.930738847964694,-21.90105002490364,-17.01547547374444,-26.98967201212972,-31.602943100688748,-24.636312173674646,-30.163248747354704,-40.179170848957185,-34.78183119028584,-31.66311769275442,-37.515288382809146,-30.906409469478767,-21.32522587655727,-27.85277941834907,-31.51750135834289,-25.02350439574704,-29.723786640942826,-36.434427569981395,-26.741379594680602,-21.06097815683751,-27.29264355483857,-21.967548667934533,-12.09528721363402,-16.514494130634535,-17.496697689208844,-10.504783568874839,-19.457803593104426,-33.2079880762243,-28.306167387269586,-22.91051966371181,-27.01958225287238,-20.946901292492353,-13.954294505253866,-24.284166517892587,-31.087815978825653,-25.079658616214317,-27.75700162871218,-31.517623415200845,-18.547091877477243,-8.973290233318181,-11.98634999737261,-7.045662908062102,-2.0575419489868607,-13.154144602462981,-18.96731150102317,-12.094218367139607,-15.00107335536386,-19.93323413701111,-10.439829223225631,-6.800751642113242,-14.93368841977898,-11.254419540392963,-3.723222380545756,-11.336518905349434,-15.694322274454436,-9.999769987045374,-16.19563884234545,-24.721685354854223,-15.68226658569615,-8.810570253751688,-13.437456816895358,-8.754692902424837,-2.8626145419465563,-12.586145509920982,-16.320076633129087,-6.123787273089025,-6.212128839993145,-11.250651684662476,-4.718444155673238,-5.408805836689003,-17.115411863789227,-14.15105574171012,-4.972610486045161,-10.735874576649556,-13.768874276041675,-6.535526570004506,-10.029303001466346,-14.758264436255278,-3.3045757540795355,2.0207076005803737,-6.661132458326246,-4.370049876373631,3.4179355055789467,-1.1165699774283175,-0.8929264143871094,7.4089155880656605,-0.24808109341810614,-13.535597091050006,-10.745107981787307,-8.993438232209822,-14.92795984566236,-7.538192662712232,2.873846951712915,-3.496112547255256,-7.425813922822087,-0.5845657026424873,-3.927531122993055,-8.958967159640272,1.9303283661386486,8.821467287905817,4.646054004763772,11.721926562830694,21.50438388674357,15.529881478310735,12.478958982788901,18.53074113190763,12.41608915354789,4.050454271238568,11.408244240840924,14.552111138744,6.726956756614271,9.9776985093122,15.56744682065041,5.4264316409968565,-1.4860267922819097,1.0490812536229104,-8.17055091937078,-18.257547849005455,-9.244074803203134,-0.26534479011994727,-0.35805748375890323,8.391604582747554,14.835319739938985,2.977051849153694,-2.7628420357874255,6.997772935851215,8.415855491316647,6.850343602220779,17.306848272873385,19.898391436038896,11.5956786628524,17.20337907125975,26.406833763241526,18.462819322222906,11.853586691664777,15.044018735962691,9.04952263287154,3.3261970258114566,13.641859694136489,17.895191512833026,8.315888392969939,8.06832718278631,11.435348666294313,2.9772148425515303,1.1705790829510003,9.48290481932301,5.196523183714918,-1.180909115023894,8.992660543442524,16.282605337460986,13.718625036547365,20.586897925969843,25.8760520445011,13.409145549514575,5.197896660164886,8.603077065156754,2.1676742422051136,-4.695825260314112,5.967114044620946,13.712933950043416,10.079091032662014,15.505420323902447,20.781551945518956,9.91577945493846,5.436432400905227,14.328671537768297,12.978417736315187,9.150596701803549,19.568712838996753,23.391704867990985,14.304938778555247,15.473877937936429,19.027830526839182,9.265429489309911,7.2949341683350575,16.85662830296836,12.505879607391805,3.9784342122711824,10.987392431099094,14.407399158954874,8.367434371951944,14.199759665832282,21.255735809103214,12.633282746592949,10.052489297944126,19.011231411032764,15.16252639115462,7.258464696541553,13.34129495699308,14.076255211054661,5.107940567154513,9.706528186238508,18.240510421274294,12.679236791234795,11.511577307337994,18.518098626288023,11.307269402862977,1.0447752380181154,7.08960620937531,10.15443852095768,3.2043450565653915,6.519889985566429,10.089860194097557,-1.861295745330736,-7.018108517516053,0.4065399196308408,-3.226205504770596,-9.050746976672608,-0.17053326731328955,3.2098550765992453,-3.957417693545123,0.29755711544385477,6.143818041646464,-2.1459469919174694,-3.5777190729275388,5.209878991251358,-0.6575289666112902,-11.244028340266034,-6.1638314288786535,-1.8401884367345567,-2.4242656116211876,10.605592240318689,21.46739380075165,11.226616401254217,3.7542352603972766,8.380735221626018,3.820594660250257,-1.7322096933883973,6.255014305740646,6.449841085931357,-4.669661907871708,-2.6670749129916747,2.8831368843515914,-5.177267805384528,-6.19866274810016,3.61628663225456,-0.21631475913600573,-8.162512691898955,-2.2386228173257527,-0.927644595656044,-7.693762306991635,-1.0482719033246832,7.019497252307577,-1.211380713922602,-4.805873326183625,2.0666175172985333,-2.6314754985992526,-9.233882297643095,-0.5507620361480923,4.48492833731638,0.8771199249028148,8.37781246866042,14.995803455615231,3.695367028570721,-4.2095235642951,-1.3626573595228486,-7.726022742683152,-13.79517073207004,-4.498839172540837,-0.6917198724902097,-7.489276325075941,-3.0768797958239187,3.1318295721861444,-4.437517800116169,-5.714129731389052,1.993112147504958,-5.506358885371517,-18.171695375526497,-16.694342689905515,-16.853959018388288,-20.448127333242883,-7.685128847634253,5.636219138320968,-0.9280375540501424,-6.9429932413382085,-4.156068001341575,-10.403595196510498,-14.671543122407524,-2.681821916952011,2.8518384351900714,-4.228600646396478,-1.7496961568460712,2.2352371784188305,-6.441911531097581,-6.338453695992477,5.778551945710396,4.169981293412162,-3.1719483111697233,1.3721613868633886,-0.44392528406650555,-10.78027429809282,-5.821802682731116,2.265379284213033,-5.900483050785563,-9.784174104177872,-4.203008115892729,-11.111220862750118,-18.634617077555305,-9.025866074294708,-3.200504101556338,-6.447111571459015,1.8655882049762162,8.88586854587882,-2.6208774657116765,-10.00087534266078,-6.591703307123807,-12.932713533855958,-16.67527345541347,-2.559878938480132,4.39441399758477,-2.5119199675728465,-0.7569496003376128,0.3097959995176175,-12.978598410023016,-17.0639793192366,-8.09370252345298,-11.51889051580489,-18.38303444662562,-11.07320734377601,-8.70991959568596,-14.438774786516422,-5.610040065133326,5.017540546434849,-2.8249861165266115,-9.843632414074456,-9.515145208974452,-20.426602151720704,-28.097196452477696,-14.026676930477358,-1.9982049138774491,-1.811252541666431,6.798142129904875,14.181832746647501,5.409848852148258,3.0268636668874063,10.782785323007063,3.2054718104757676,-10.334078035617637,-10.48455073840571,-13.461012380831521,-21.19288698460245,-12.575458814241529,-2.1816872127287508,-11.232627281673931,-19.749593328163293,-18.712260745610177,-25.46041359120135,-27.644713055291877,-10.957834524626108,-1.1277805748418512,-5.408618265652555,-0.20283769254825224,7.030586360813012,2.277119418892052,6.178870729490575,20.305294662184135,19.726435807816713,15.010075453197324,24.083679613338106,27.101192980408253,19.735688341796497,23.268751117917336,25.727573026371218,10.646358620263749,0.3703012403654422,0.9857632381988111,-8.319310860787649,-16.094603284246578,-6.488791943031458,-1.617503975982015,-7.138934372513858,-1.8728239377131102,3.8252291162831633,-4.697144164081915,-5.620472375842162,4.58358819290479,3.124431703415044,0.924838009004548,14.118390486355269,21.44126984945656,18.317910754554042,26.104944289796304,32.84656583784862,22.694718326875645,18.786086448864147,25.279287866025427,17.606456080510256,6.324842586215819,9.656289880920655,9.26806550485508,3.5886338425082696,14.164864820968479,25.17330873737202,15.688946794435006,6.700813766242845,6.1179239266501595,-4.782963938511054,-14.27430699411001,-7.594384082985242,-5.807890285603717,-9.912584396988906,3.042257411930798,17.702553346118716,12.663099233103917,7.0589185362850895,8.498522705830203,1.8082424162289925,0.5926887134315186,15.154786148939591,17.447851740745,3.6913088814349,1.7622671664015692,5.5471152201366065,-0.5412834773451385,0.32191009919342606,7.040860186384858,-3.206996590492098,-15.932866791923436,-11.590067306442759,-9.116507842384554,-11.541689809975537,1.2733016581643097,13.49812758809215,5.525185386367378,-1.2274077061287914,0.004454415821947055,-9.283688301571855,-15.39593641929982,-3.8982095056519803,0.30040569414529095,-7.005174133522624,-2.2158069126128837,2.924583946636999,-7.595505505600422,-11.391202838577767,-4.817406704447753,-9.972322030034695,-15.13050462137492,-5.641623947175451,-3.2273409380759084,-9.77979646031669,-2.657901631071787,5.0296863761112425,-3.776385094306633,-7.368004861502083,-0.9399387638692209,-5.117087672488759,-8.777125880587622,0.4188056187543756,-1.063538891508348,-14.035218037308134,-12.267629695248068,-6.056114628341257,-12.71701335612224,-13.791713361645499,-7.777052394623974,-15.183599513174507,-21.291172834865385,-9.622066141960879,-3.0840310405651223,-6.993100740947663,-1.0759326900499904,2.735403057435104,-8.643957055660803,-11.075887886139029,-1.4959979633390752,-3.8072773348931768,-7.948604683624428,0.5504118164149894,1.7138776095196613,-4.27007376881238,4.60619384268478,12.726968304299218,2.488812749668387,-2.927087660314459,2.1919000985455552,-3.1136326199632403,-7.235432582902337,4.202669578174776,8.845121219265257,4.168053043656492,12.094192942994354,18.49788317234136,6.033775870571545,-2.514548527923055,-0.33942959211401913,-6.603491204696377,-9.957847865375985,1.641053334154087,3.8933197179654666,-5.975893963684312,-3.506253778926637,2.277128299349582,-2.8849876310676916,0.11737851799214116,9.994047794869413,2.9280577848338565,-7.29265519325566,-2.3023450761950635,-0.8045051654967952,-3.9753087987085918,7.9772501434907515,18.294621958924477,9.910754719806492,5.218973915028768,7.505874434499269,-3.3225777914087393,-12.063274377028451,-2.8913599181430647,1.248302923758152,-2.446480018357889,7.5992279050800295,16.477132385742465,6.978425392069125,1.4968432148007311,4.172857003094853,-4.910300978040736,-10.401327134166127,3.559371312867425,11.864450206820553,7.829588557352537,12.006065375665665,14.22065081238207,3.267803522963947,2.577992393867418,12.467461745170464,7.675874344543997,-1.246652775320194,1.4347941800824509,-2.1677708979114696,-11.050016289259046,-4.3353704904759836,2.7617833918661274,-5.778839418912567,-8.427136946474942,-2.5040262568013723,-8.210229188858742,-12.329186913625893,-1.6233219837745647,1.2595824681673198,-4.651441470562427,3.2278235199800056,11.674141679778739,5.298199076011117,5.296959742505353,12.50332793234237,4.732109180813698,-3.8941342298303403,2.201093444741475,1.411274573583225,-6.566979516008091,0.6558940878818387,7.903946113017227,-1.2301255015399821,-4.4748761841050975,0.895110676292465,-5.699383831841049,-10.617939305993893,-0.5993540699455346,1.0564664435804245,-5.790331549607182,3.2259270773115505,14.099262384670455,8.399165295831247,5.828991133702543,8.730177121566935,-1.685404983702357,-8.388824792693356,3.7969763639650207,9.204544402053092,2.784181878971439,5.948728535546191,7.568836452782083,-4.010298757803499,-4.808199676410545,6.046224339603654,3.4310768938862073,-2.414844860279416,2.5038276799590595,-1.7878499763016946,-12.379018795818581,-4.350133030506887,7.137103447035369,3.030539043068151,2.2720880648615367,6.190324989295558,-3.818612448211299,-9.970619031380533,3.3049272424293754,10.486478142524591,5.920601400669765,9.660331954450072,9.889805140718595,-4.284523595807418,-8.264823537221424,-1.5731700965675928,-7.912867423829221,-13.462923688816659,-2.8215129313516414,0.6842809054053979,-6.422784647508351,-2.8290589166300704,-0.30604772235734023,-10.406569515432732,-9.009972591573426,3.0649850847656266,-0.6513269214802455,-8.072550923675884,-1.9524016539739657,-1.602498552203382,-8.407528209143376,-2.3974041729952074,2.4190630923129395,-7.200188486658869,-7.919848298918999,1.7720880238133674,-0.8927346915299839,-4.445222926489074,3.6618851803128796,1.7156906770825628,-9.576056194008146,-7.697440239382519,-4.871313497905872,-12.575911466231805,-8.836562586616791,3.7886774896174895,0.9508771274793082,-4.660031048538703,1.1289688693865303,-0.998410626546091,-7.786979167406271,2.6193584898968414,12.709235978372313,5.618658993605488,3.211504858999814,7.70555265224459,0.671132505540839,-1.9887051432246572,12.87991245085272,22.989474421878366,30.30158315257308,59.78330825192754,98.89683787039365,130.86326553430095,170.5476887507732,209.1618623764365,218.44886860868908,211.17627906121757,205.35186802436306,187.404714917079,164.4088613353398,158.0714261467449,149.16125642645986,119.24181818051068,90.53902577872033,69.0778750795117,39.439418978960674,15.521527278267058,4.712950744183496,-20.330136896416356,-57.8443927431738,-79.54998449982075,-94.2039387420862,-115.94770890287978,-128.99210753340088,-138.42737017953925,-163.9990113456723,-186.13269191580068,-188.2371732044489,-192.68942181325187,-201.033347651985,-193.88641324915224,-187.01617221469849,-193.9165982969366,-192.43638773214076,-183.458608523067,-187.4281318126352,-188.11962588976644,-173.37704303414426,-167.1622222844266,-167.26645497972893,-149.63571927701832,-129.32999174919811,-123.89159482116894,-116.76654885425106,-109.91534306822203,-119.19023154671598,-122.66468983332538,-104.40027181451609,-89.23959064334284,-81.34225285384491,-62.37719099194578,-47.184462491717966,-48.35873033092844,-43.31726741058676,-31.809385452200804,-33.46178220682529,-31.70170969887703,-13.448582327518066,-3.5740671092058944,-3.8179952924362244,6.858960059714629,14.668946944025972,7.7282550419946565,9.661955577221656,20.701750935512568,19.31140233351799,19.04375086795549,31.91489845034572,36.01779623407677,33.50148259341472,45.73668175406057,56.05256536957951,50.13990832226994,51.16499249610071,60.51822753318089,58.695825417676964,59.376117578939386,71.09401769411387,68.61964489733852,55.89997993821642,60.1022825056241,68.48187597816673,66.12186368416677,72.40255054857428,83.54142427374725,77.91950644042942,72.78128917892415,81.15226736134589,79.54172785314933,70.71799936107378,77.61556227580792,84.16243382671468,75.83896696320517,73.72804853434668,76.96342561141176,66.96638251957181,61.33743362495985,72.63223812363093,76.13761195292568,71.20335893260071,78.77022801720997,83.76045189505858,73.03768593629117,69.07286887150671,72.31981415757829,63.444676514656734,57.415559524276894,65.74731908867724,65.48471223096902,57.50378167480794,62.455680567330724,64.96632007272268,52.808553785154146,49.223021407195915,53.86178849598854,46.267278956747994,40.89464452502382,48.443749536879125,46.55174804342424,38.90295270651464,46.8630542474936,52.774831846184426,42.295322891100085,37.49423477748357,38.668356002547895,27.594872097377085,20.24223543246022,27.999623954230255,28.059719151248686,22.477315462242117,32.23893724874164,39.822840677545884,30.35209821558493,26.29220612590518,28.34337194407785,18.354698697437932,12.805901675126087,21.59958718692916,18.056960617951155,2.845832286709604,1.2065269252543878,1.5246526778227723,-8.827227670415677,-9.330602820195647,-3.9663167258652687,-14.36604428467487,-21.64790268956912,-10.392070524277129,-4.6609749398600036,-6.564020650303709,2.7582681150463704,8.219285828578503,-1.2763172049297502,-2.887691996521979,1.561752347364981,-8.622035752428896,-17.02887323852208,-10.509095196624104,-12.191995324251499,-21.85821195268144,-18.525096141454107,-16.518911002725503,-26.724085224051414,-25.726850125527513,-16.91756662385165,-23.600487637771568,-29.95635909069537,-23.308521734490085,-26.11353405555961,-34.58823691557907,-26.359127410236205,-18.07779686472389,-23.509321549148844,-21.285656566459682,-14.007550939994957,-22.005634086261907,-28.049194470653234,-19.67199953316506,-20.162807792273913,-27.876284761493093,-22.59216324784498,-20.465856651053414,-32.52817545647465,-35.895853454747844,-32.74844926075946,-42.041521200520975,-46.49664077136238,-35.43339345042423,-32.64468853929825,-36.42308799253685,-27.21577491229462,-20.748876988315388,-27.074787787606205,-23.275269990083764,-12.657426145654807,-17.450971734417458,-23.346245595264936,-18.6649636078141,-23.94656842199229,-34.08555424257619,-26.95336818602439,-19.132727973943865,-24.072379134304608,-21.425533325005752,-15.248978799251033,-25.273715132173194,-32.598614968718394,-24.25893117526426,-23.301090277135973,-27.631755551218752,-18.264747093808538,-13.57044147604714,-24.193655873685728,-24.49742348078267,-16.252806042410533,-21.271703427878915,-24.735407732324063,-16.52570530438024,-19.65430159091425,-29.838169869777353,-24.657068976633212,-19.747782510144397,-26.51477520380812,-22.80293407337406,-12.671362655350904,-18.16726231054986,-23.821544393421448,-17.3592083506852,-19.348112951736564,-25.55092033471253,-15.50468643041613,-6.764973671815155,-12.078453390450823,-9.38205936092808,-1.7580020464581163,-9.672379320508144,-16.01754216002013,-8.742168258293402,-9.754345877839992,-15.86732212442377,-7.9840456211876205,-3.0859271979801903,-10.801317343604854,-8.635048008060831,-2.0820367299204365,-11.484092707848363,-18.029474763409993,-9.81018694515472,-9.347074466143912,-13.504368522370406,-3.8651232848096946,1.9551763131553317,-4.756611990450386,0.16358037929414948,10.925796887984905,3.898619377000701,-4.704390206537593,-1.9537133603460326,-7.3428400513204855,-14.489286290197807,-3.2063727134929887,7.101681139482281,2.594478757679205,3.243859118208854,5.5861448007970465,-6.639462935263262,-12.56975226330811,-1.0312485244106,2.411915345234327,-2.004494938346328,4.302140222717883,6.227635872172572,-3.1353174704319287,-0.06078874091605968,9.20889230278424,2.5807497346607744,-2.7771382430314486,4.173033644733688,0.85669889001599,-8.038271805902646,-1.9366261628318338,2.117189842281203,-4.667088853584955,1.6910982420346516,14.592760143593493,10.273783355171526,4.831869284237941,10.035713885605858,6.097104642721406,0.18024913547953458,12.352483084144275,22.099052459004824,15.881260237819482,16.050344357778826,20.269593651576457,10.003570719627021,2.1723047027179976,6.801376119547339,2.969544207591697,-2.9842435221848165,8.659197223594212,18.423776792023915,13.10054040648076,12.741685664919958,13.27737007144306,-1.519125077119833,-10.907023128685797,-3.423700246773798,-0.9925744770991151,-0.009115795204316046,15.50012877173551,24.492782184987057,16.54201586055659,15.699509157581598,18.80016908188413,7.777518354191358,0.7100746056320524,5.85252361182479,0.7797600720003226,-6.274702761702964,5.627524224657282,16.61868122105707,13.769247316291828,16.185956683599027,17.8003349915628,3.1965083294139447,-4.544953287892379,5.139501918123479,6.837868848503097,2.3196307830190905,9.720841509776708,13.542000300540035,7.041149929380965,11.995836260636354,20.431926748523043,11.092339571266006,2.016724117766987,5.247292725439632,1.358774846255871,-3.9232014437041105,6.688045502378289,13.866452185169981,7.930365252547883,10.619881966101417,16.438165374983065,7.7663353242429,3.5674621810939082,12.235054219606333,9.844623929874498,0.24551186501264644,2.4865953639798795,1.860395762742481,-7.0315468504673095,-1.1913306463527746,10.84877560491293,5.423670876751547,-1.416451388973124,2.088124680683782,-2.2590425637740914,-6.477155020030158,7.808405006200438,19.24756172376368,15.097422125421893,16.10406467365723,17.567648425063926,3.502229621459593,-4.5295595525982675,3.6906284506073694,4.41105595024743,1.0697549040204368,10.504761460565623,14.043189978105833,4.120876081410088,4.926721750344136,11.038950087617517,2.3584147442597083,-3.088990603103916,4.311927083327528,1.8454811051008835,-5.148531028953592,1.8713181875138334,4.517344817434346,-4.619180933188124,-0.9365741221985564,9.285605536044642,3.9426979180479433,-1.1072225505067195,3.1069054656674835,-3.324385086121637,-11.084816590785984,-0.9830385749361605,6.068651946025769,-0.021754436903232754,3.038191593417551,8.591058296570004,-1.9241190748366765,-8.989805183129171,-3.7216670876353426,-8.172807650475933,-14.748014700257572,-4.516838526324579,2.7480264124319667,-1.918007694774925,3.8787624370828375,12.20909301933093,2.851922212593339,-4.6083087827490745,0.16374566946551017,-4.2298015275618575,-10.796745874256201,-1.0634983107259917,5.168811274795435,-1.847267312195969,0.08538011496862286,5.472826362219107,-3.8499957864262204,-9.209557366066658,-1.8221642863132357,-4.68836125429539,-11.72274640506216,-2.3560336807830073,5.789557176481013,2.175287837114774,6.661525253700477,11.610362763955795,-0.044961431363303106,-5.4962006348873675,4.877897165675735,5.136087384479206,-1.489816801967737,3.283906794510029,3.5860382681018805,-4.764862574582061,1.028719929272171,10.621984733726652,2.9338119691824978,-2.688741006060725,3.671894323145279,1.26272611542478,-3.280191379057057,5.692723020851886,7.365605662722961,-4.731829647046747,-5.29902191084205,0.8450027132312554,-4.163785644255514,-3.6928983905552575,6.446419247750351,2.8472619938483605,-5.044287977997905,3.5073051508860127,9.552989246767325,2.996726722223075,3.9585418582825143,6.176369311227051,-5.224980397113642,-8.862489716752231,1.997291296492162,1.4498005461146724,-5.351691765653285,1.5348692908563648,6.051481247331903,1.766653937119473,9.286440567895303,17.63384522306065,6.29088450909425,-4.309472193820763,-2.8114572738286774,-8.449756116881709,-12.861903368912664,0.5252235430720908,8.544885460643544,0.21921595099162516,-2.448068322895079,-4.650901389651036,-20.4376188724867,-26.48146650390993,-14.070907294144607,-7.74956008475693,-4.034975937407889,10.703902533690462,15.118607013905784,3.942285866026172,2.927986011200347,6.537419143591155,-2.268574018070889,-5.326815428017106,2.510319395067091,-6.640030519621483,-44.76299528509135,-105.66558053670148,-173.09741881756517,-211.78956826745963,-201.75085412566105,-158.62450904185903,-113.88673004518512,-100.24974889302942,-116.68671708152858,-121.77764102046956,-104.0955072626451,-92.31059496971339,-86.96255905335765,-74.3129031729367,-68.33141937804066,-67.59403928354905,-51.39714043684131,-36.713125258165114,-42.61844927170226,-42.030166316352854,-24.97247766488565,-18.931110440455107,-19.75936076715426,-7.253546246438944,2.7754188634859727,3.248121160758272,13.589310320075121,23.535744374235943,16.092104964084275,14.049190594438734,26.13497101297319,33.90218398842899,57.4877471470017,118.86462260091996,182.13294668834342,218.74068158892555,234.36725924934785,217.77083537951282,173.86849118714645,150.96064770034255,159.61909611071115,161.54232738561575,153.10911192431087,151.9197179844524,145.49007699047834,133.8803465234603,137.65865765861446,140.8523336918646,122.93825451170432,107.68306555116592,105.66616797317405,94.23044086172078,80.26859636973305,81.81411698152635,80.24868781176914,69.1312644302718,69.1394641956563,69.68571971355442,54.20397060917138,45.52673504643215,50.45173252082486,44.33223353361437,34.532583010822826,39.205050868612744,39.61116186361589,30.516056925955734,34.27581131300546,40.10537655826954,28.32364823960596,18.4828638736142,17.843545068654297,6.2570717047604365,-5.148667037132473,1.0533722297334833,3.8157708544737368,-3.90581372169767,-1.5698922702910063,1.1641020153664676,-11.686220201827524,-19.588877751840958,-16.666271767449373,-23.515423186933795,-30.022850769860884,-21.13771541416022,-18.403704240688125,-26.739595963061483,-23.603969506042645,-18.26682217490678,-27.776453495635756,-33.43557248079386,-30.785310625004904,-39.89758778355888,-47.74954347416767,-37.057893928863926,-30.933809898328846,-37.12840079713413,-33.91162547390992,-30.18345681132469,-41.16825656066071,-45.48225829349295,-39.124658461284085,-45.31151891744947,-52.89744999547232,-44.551224557902486,-42.16849034205344,-51.20528567216459,-48.36336834633747,-42.847407725054715,-50.80114201992308,-51.99986972003984,-43.20227553027888,-47.6624736222204,-54.198761985181285,-44.11896387625958,-37.50281389969025,-41.40903700616631,-35.94734254594363,-30.98153244322451,-42.063986752619556,-48.641183884707964,-45.31263195142629,-52.58232204964195,-58.474991419968546,-45.082757459850704,-34.280896750234504,-35.904822917647515,-32.90630101789624,-35.55491430179589,-54.74641515210918,-63.116570825150546,-53.19464439498471,-49.794560081325486,-47.97424888641478,-35.26988760831333,-32.816837827116466,-42.79162618322331,-39.93176658405105,-33.24509844182932,-40.9007331613718,-45.1304502330919,-41.9772785708857,-51.17635206076591,-58.25973732092942,-44.3560910160886,-32.52273560304553,-32.34905456767353,-24.942082444472156,-20.2716144531922,-31.11743508999445,-33.4859013179652,-23.261030848446417,-24.882819968840757,-29.3232095318567,-20.876494693975715,-19.391060671305937,-27.32777347570112,-22.106110790888422,-14.42970896176022,-20.105453864421715,-19.538339320344665,-10.931232945132702,-16.70370635303764,-24.452367541147296,-16.708530673879363,-13.340574422957856,-17.876962762231038,-9.951145628586627,-3.1960504904961824,-13.744618736738976,-18.482548903066828,-11.624164038549559,-14.412907013917403,-17.108414768800277,-6.24028742067309,-3.5299464452900824,-11.556764443613568,-6.223434848899367,2.5199885554681525,-2.549948574878923,-2.350580890685934,6.213409908395864,1.4705157606909194,-4.578410829469248,4.365464783878393,7.345185319169012,0.8917768893515969,6.812106344350992,13.478359463750655,4.802648757483722,2.220351130326748,10.597788387356944,7.930238158961305,3.7289642258928004,12.751686008570601,14.529971844812467,6.92087163608754,13.256720171418516,22.08060185020625,15.533566517289179,12.932994011592829,18.35452358302172,11.849394703730045,6.662819038498709,18.606449907049956,24.36426016676223,18.614682812521693,23.444475969932128,27.993888229941806,17.249029414821887,13.382041084595908,19.635125837197705,13.115670766781033,5.818557616491334,14.598289978939537,18.211425175624598,12.533180394339727,19.284695284400247,27.08620969594225,20.320824815506892,19.367826086985943,26.026999810322827,18.57265614120722,10.750786348859595,19.764928550875762,24.978544232152892,21.343928139695947,26.37643308603518,26.702363728032708,10.139179377180458,2.5784988789791194,9.482278331285869,8.119134788692978,7.502703101735703,20.14181754231401,23.526477504116762,15.749425431871224,19.981875055580367,24.96989106781419,16.52942177754459,16.9959275080127,28.152450585983246,25.389884117010716,18.40736858004339,22.53429434951977,19.49928900678253,10.539801244006032,18.325767682450692,27.612203140479167,19.691308736914813,15.399723054838118,19.39527131341964,12.580332287696322,8.287519430913592,19.745684792777396,22.84172488536296,15.156739743576164,20.28564704978102,26.529049086700063,18.612346474283306,17.494332731725525,23.96943599772786,15.249141060389789,5.158093966171025,10.622366599368533,10.657043324806079,3.6282651642496555,11.472991556698652,19.685116696877582,12.10435854560841,11.123528722350736,18.801374706289074,12.37650722007851,4.331320445417916,10.160064755834407,9.71245149216226,2.8496197020732885,11.372744596583672,19.608520207031788,9.42389590189569,2.6627797312735195,4.728071868549199,-2.726636144530066,-5.850791006547627,7.307298998198817,10.197444526881442,-0.0005872530092023709,2.3565998759610585,7.513407161848166,0.47705264788388924,0.7389994665638713,7.105329157664873,-3.033721215910642,-13.698317111232605,-6.998098468039897,-4.635444979015477,-9.792480760834303,-1.0423005879531524,9.416914845594007,6.286077831816712,8.502455835870528,15.145114316744717,4.305549839269421,-8.42552046760458,-4.5038082501989525,-3.0735418236596295,-6.962212787865668,1.1621289666131558,5.795033892171344,-5.60549535934848,-8.759068095491441,-2.163302969650397,-8.364308163024798,-13.902103578884049,-2.246335873463271,8.295161011214528,18.38953583292296,47.864000290569564,81.57560986688647,105.85728643582921,142.80534443678653,190.59469143016327,218.9137999591849,230.67118073330494,237.65914779879841,224.49556636014813,198.4846818843598,186.19700069126526,174.3342683773741,146.9771276134484,126.45168498527414,116.12599738267674,95.22432489266231,74.20302960559866,62.11815231867135,35.59299623118359,-1.3455019371416572,-20.544863273542784,-33.391346028653416,-57.12937426122988,-75.76596324139292,-92.40860635710587,-125.57692616795734,-154.23128204472243,-161.1427278346068,-170.8622046131516,-186.98491203196448,-189.01005529639858,-190.92492710976472,-205.81807326107617,-211.41315147125945,-209.43655347935425,-222.4006493961624,-233.14096656281674,-224.40165185114452,-217.95022866294434,-215.7396422109491,-199.143709383444,-186.18019967912792,-192.6475173340569,-194.3873963962772,-187.0414259588425,-188.46822152698704,-182.93691047312217,-159.15070963118296,-144.0571642277715,-139.678070531611,-122.84734029997371,-106.42796824130093,-103.56952691352001,-92.39021782179701,-75.1692546083439,-74.74276961890884,-74.98448457682775,-60.28834446692802,-52.064255656342326,-50.16257306732845,-33.737454231737885,-17.89256917027282,-16.89304996344108,-10.077646280342135,0.8174283391447359,-4.923776697513497,-9.574976784811806,3.505671542269556,12.810473465825803,16.117334831682825,31.11466767417862,42.46439629813529,38.95506673775062,44.140432598447155,57.13567742073059,55.24228018941328,52.4991124869227,63.70444708082907,67.63524159506599,63.42015659240364,71.62648045293005,78.56721173733973,71.88243815296093,74.00352976996052,83.415297492208,77.83972723837937,72.71385675830527,81.22564152165707,79.99663498745684,70.0009517389756,73.36479482614786,76.4945708053178,68.41597991362357,70.79672306462425,79.34652237206564,72.05846692207211,66.81872080977334,78.69652405409232,84.82912184357377,84.26154272706437,95.4731494405143,101.43411067076921,89.92104531924983,85.36479840649093,88.05260282083245,77.49071721635192,69.3406965109155,76.10071169067857,74.4038052251228,64.80950740520485,68.07422759334546,69.51453645652042,58.25385976620371,57.601186766726784,65.73917936602852,60.894230807254445,57.65357612833096,67.7166646156591,67.65041828452529,58.83689735137894,63.37263499081603,66.63236393278352,57.12049685601263,58.268120252065714,67.2076520133592,60.185168836474034,51.783856495036524,55.6909572269676,50.78331021428548,39.45741047985848,42.78533852767826,43.86754105511288,29.055432011417203,22.38005806659127,25.041530043117213,17.013475811794677,12.8876124656694,22.998180150440774,22.674292558270984,13.196677361509606,17.074259354934426,20.88007368554216,13.348935599213423,15.772533977027978,24.252895384673778,16.743145952746318,9.194132913827737,14.613575109778248,11.027986345516295,0.9383308909427646,5.339536464534886,8.532137986676767,-0.23795252904386022,1.776819112252836,9.820943033828751,0.9290830156503977,-8.17593260587406,-3.460749330350337,-6.172781428126489,-13.304568326870376,-4.407442162448172,2.3397772502451826,-6.555740708269531,-8.264281297528276,-4.957007140581128,-17.26090425596693,-27.99832193351642,-24.6929289298197,-30.175634082546154,-40.91836710607578,-33.974062393068394,-24.59625854163682,-25.671110338420203,-17.45159905686362,-6.357703616363233,-15.00529835641046,-24.99719617438481,-21.41188363492484,-25.406208401864106,-33.153874247846694,-23.915109495443,-16.314516633932612,-23.560762046135075,-23.191044316403815,-18.451068290405193,-29.3684621963221,-38.05901999219689,-32.4783574120654,-34.44584537913228,-39.6401919221714,-28.059101030117194,-19.19845195879054,-27.45994838984005,-30.72836205471484,-29.276265345574803,-39.14736710800676,-41.757459058789095,-28.725889447980265,-27.280872258354492,-35.565234350485646,-30.918184849590162,-27.383703883696022,-35.05564173191477,-31.972911441886488,-23.156014656084956,-29.81166366116417,-35.07240284208691,-27.993416797000847,-30.5295690969199,-37.63045105060069,-28.67286040160169,-21.42147366138045,-27.67962925137208,-25.89980333420267,-20.6514859677553,-31.776295264329345,-41.070437918284206,-36.01490577144215,-36.84302955577511,-38.48983762873344,-22.931264558800535,-12.302409883689547,-21.247856632258987,-25.37731095639631,-23.367822077702,-32.26456393481637,-35.15495089087603,-24.158249406834273,-25.037778875787566,-33.568412594525526,-26.787661198361896,-20.01005284187735,-24.0113435830493,-17.97441529388587,-9.091234240209673,-19.470331359866332,-29.740982102650424,-24.7369712439519,-25.010499990751008,-27.507582483441126,-14.765098437124578,-7.7101741290707935,-17.781469695145315,-18.547768949924617,-11.505397487955992,-18.40060877407754,-23.774050736086803,-16.369666730086678,-17.294396015912294,-21.57378121386496,-9.91237036556474,-1.9114102530208612,-9.393355508361434,-8.313530931507449,-0.835845017630366,-6.626331539120307,-9.83685124163912,-1.7646685840221736,-4.5747044183867125,-11.81257737674094,-2.752266006735156,4.387401070429679,-1.6368676298048195,1.3540947784006336,9.139004977018597,2.393969028453063,-1.42161814561516,7.180313525063697,5.700344481640461,-0.26685948122758063,9.061794135162053,15.327967655063938,7.8603720168298015,8.37436181604247,11.74603146192435,-0.584871929724117,-9.110831622831645,-2.42002794024338,-2.813192667602891,-6.6866763437736525,3.7710446785368212,9.794696061769676,2.270932806001537,5.833459143905599,16.386365546013945,12.91696112591044,10.761350550300536,17.661451319827744,11.398854899611438,0.05951374867679471,6.217136913633302,13.05161513084975,9.13939797276716,13.626184765063682,19.057817566920573,6.215800266112646,-4.204387654096956,0.8459900920864247,-0.36634757521056494,-4.290756865472689,6.922365826951214,13.551409494250002,4.514552148145551,4.027612405872794,9.340346083394124,1.056958565284261,-2.9929521448707868,6.645711317581906,5.465311011357482,-2.337103694183211,4.488924844207473,9.96787046429969,4.504293544666777,9.258043747641338,17.098206207967593,7.536107953456722,-0.4819180336814881,4.807960830984689,2.607357660135779,-1.790596083043771,9.375616206538606,16.80003657936631,10.856114983873944,13.779743430703025,19.08227327154263,7.533572362011238,-0.32720424684913385,7.0281235046206465,6.9448919890221665,3.5267015237552797,13.552335341789043,16.72629523862428,5.1487712267324985,5.13718197514896,12.798437556107064,7.915217059061957,6.816196825230188,16.440437535924254,12.985356622184526,3.5036662026178504,9.417232916568324,13.164516333420345,5.445855450709574,8.47504045100102,14.675867594309171,3.315700542156909,-5.728878195672207,-0.81686129999275,-3.786766948267774,-8.457994325883114,4.46191184736755,15.167259813116592,13.130968489627097,20.05255799537036,28.195761781876033,17.017783438977084,6.346076692973522,8.177419496658992,2.5289371355230656,-3.205684399799444,8.391421455799426,15.584751304173913,8.535095818300082,10.284791642996133,15.136590190149805,5.274243055273146,0.22911496539086806,8.605838899302135,6.7669231071224605,-0.18039233441634117,6.757703099371746,9.902270775925642,1.6589489892803964,5.423565678805047,14.436519063338208,8.007006102348,3.080440455313896,8.424021410976758,3.183418544570234,-5.00402726507642,3.1576717606292024,9.14034005146934,4.17201420590547,9.97786521943312,18.30210402285629,8.516870913906574,-0.6579033608017082,1.6270668523446328,-3.293747429858435,-6.837185434138753,6.893395481065779,13.90167309146494,3.379568634263641,0.08972242112667639,1.9095941683817694,-6.998506033817487,-7.987067826157445,4.99993596360035,7.024785137257767,4.202507069880302,14.773155714290032,18.600325038963494,8.361338212094834,9.111414464842836,14.90572775035376,6.805850732423964,3.251101697458891,11.06313343935008,7.0354804888330555,-0.9453493243524451,5.595898738910135,6.727679877339497,-4.116369045772529,-2.4663451965828376,3.6887176637179926,-5.779047329050527,-11.55219047016911,-5.3400538935888475,-9.669174740314034,-16.330726153680942,-6.976338287250414,-2.294716630380729,-9.367603287791358,-3.778804239358267,6.524017765834705,1.0532718703566113,-1.849476966238823,5.380843381916682,0.49544278860790847,-7.494068683519571,0.9020777812060858,5.980324342978469,-0.21168858171970717,4.534728553241328,11.709894713835588,2.519838604896218,-3.2455663989211856,2.465076275860475,-2.592967574109828,-10.460547383509422,-2.5648934929941545,1.4456235748308253,-6.053036873642332,-2.130470217484044,5.199957267549243,-2.7281079289502363,-6.063712983307637,2.340773532546831,-0.8246029925403722,-7.6981464872286365,0.531733335191297,4.956449668787554,-1.0850743472566524,5.2804814049120985,15.296657782427394,8.636764719531978,2.8553266297501922,5.115108890067658,-5.050152666934499,-16.270738924115033,-7.634084687044448,0.5592440050650764,-2.7296340717184147,1.1189049457051619,2.945206104310763,-12.090559465127363,-19.54385340293689,-10.077566865320353,-7.023257455423414,-5.742396835084781,7.078055233038313,9.762911616750417,-2.5127032075904,-3.8582369306340705,-0.38333242124033085,-9.393687510400566,-12.217814779470064,-4.027268306977147,-8.146393027335742,-15.573112657345256,-8.27677490263553,-6.560898522562471,-16.369792992040512,-13.391305869656152,-5.437625444436369,-11.554550907282113,-13.61362313718116,-5.228311066078647,-7.675036403507217,-10.85225506207833,3.6735861707456383,14.023876597445073,9.842468352093249,11.787139119285388,12.620002198277502,-2.0558081773966297,-8.890628959203742,-1.1514013804053809,-4.14790969685556,-11.376199405931104,-5.5383812871048335,-4.588873399095649,-11.479985981492332,-3.5833173877475573,6.880811052874488,-0.1726128931387878,-4.879916990901035,0.29585106957317375,-4.9834215003160365,-10.400491717272917,0.37587231925058084,4.857759999362364,-3.498470038783245,-1.0947716696070702,4.023538199200888,-4.066094893447099,-4.4861939000518,6.23581652080056,1.9630838176185028,-8.85840483923889,-5.7500039846474005,-4.769359438629399,-9.663019090756395,0.7518433701553198,12.742970586629955,4.774515947444531,-3.161393082309268,-1.562516090100822,-8.412838607402962,-13.61421198835905,-2.455129472506384,3.134932841687202,-2.819238814964864,2.746478190709519,11.421094391022276,4.294698712303003,-1.2952075368628009,0.7238530999463086,-8.609834827337426,-15.472070181616349,-1.0131386945760363,9.216372015170801,2.7205468410628617,1.1977090388995564,-0.6148860147011754,-14.39140333260054,-15.731431109383085,-0.6918727690741493,1.8161327353256969,-2.8883990142616383,3.1298017790945525,2.7866920145002383,-6.164630149905604,-1.1095023023458062,5.798308973506977,-3.7498515657475773,-8.708919762292494,-2.7325675485136443,-6.817856068129874,-11.448152026117599,-2.185532463466321,0.37004990676564353,-6.28812030177995,0.9131021734085811,10.145063737507305,2.6046209076495086,-1.455840176432551,4.30568412796919,-1.2996546785826855,-8.066878434939497,0.5746115261290692,3.646460025415224,-3.3590091210507316,3.4395870084987745,13.307894956100915,6.050944598332029,0.9395143210472162,4.789228663016591,-3.201144616133484,-12.46693473080866,-5.6075347362122505,-2.9095648414094897,-10.025687278033867,-5.076421686505318,2.2596299761845975,-4.983040973487115,-6.955575077606346,1.1508239144043348,-2.9831074421554535,-9.826288012151828,-2.605642625083028,-0.34148394088648765,-7.0645790611064125,-1.9602599969250671,3.8351493886774026,-5.269599764696239,-8.009852425318233,-0.045263542239636134,-3.86319304067497,-9.472035117962617,-0.27518204537743696,4.575919248735315,1.665763592493192,11.21220863738889,19.469360145018225,9.245146270583968,2.588338093462904,5.223888186705351,-3.396257391558864,-10.831635179274443,0.07709636317646407,7.790023700485244,5.428543279459671,12.074546109229196,15.419920100266918,0.34056257007664303,-7.181694436807211,1.8295136926836184,3.5807884737075115,3.423317102905126,13.739459385588304,13.449302212595514,2.5029283183392623,8.511328995053667,21.409222345962387,19.164679941060065,16.426049294147713,16.98665156815454,3.4554351983018936,-8.287855831197373,-0.4205776791880611,3.9225189922845454,-2.4479302609061957,2.1220162038845296,8.249345251367298,0.12330560680891,-3.1423718488292183,0.6367094443899348,-8.831132361719703,-16.374269390145987,-4.626721469966635,3.0774353253119187,-0.7039811904910787,4.299701573708225,9.214665211766599,1.4859695308362397,2.6175486095012315,13.799151249197601,10.189238703819983,3.170755152923209,11.02640243888968,14.011710952432427,7.430943673788194,11.130429091486834,13.48092047798102,0.47229290900077636,-5.065893580056789,1.1233152944178997,-3.5507430703546774,-8.42715435265777,2.1874534974763336,6.19178296645074,-1.3096559946674646,1.2846644247771262,3.086608606998918,-8.963205431708225,-9.90631777551361,3.449642360641783,4.826764786227426,2.4028858849248853,10.50115387548418,8.266220460646736,-3.749160729759554,0.7939325407914279,9.099716720436897,0.9300132775121766,-4.216804788247374,-2.40447799966415,-14.124240700804679,-23.530904520877648,-11.169091172200359,-0.2983105600387206,0.2841136341878414,8.577517501474869,11.791896996253897,-3.726013659878662,-11.541499579918646,-3.5307945610442864,-2.136427202859185,-0.6548371365604702,12.053810688969627,12.699853741848699,-0.6971660530126433,-1.4660630087356634,2.190521159170103,-6.144556904376319,-7.185917580252597,0.4437356125674259,-6.719514315667478,-15.219655878699324,-6.143899780492305,-0.7366151775910061,-4.50463522476143,2.772720614934665,8.401319799588393,-3.085288233085186,-8.529167808847268,-1.9732511128508103,-4.469830400994999,-6.465837149332421,4.941907076670611,7.469142711309695,-1.1924051015479726,2.9406525532517676,9.82827139878805,3.5319368339393815,2.789049929520883,9.026058183282707,1.090559029616045,-7.90847514369109,-1.993057895315249,-2.4033990869569104,-11.721372078214333,-7.499788621898062,-1.5908739333267934,-9.535034631130069,-10.47523795421466,-2.317854718199077,-6.760014530414321,-10.956011963734108,0.32916579110290645,4.835041427109169,-1.2810625101310102,2.697902397505711,4.915624523019072,-7.582480085032836,-10.544588276176182,-0.32861545808720116,-1.093374663368671,-3.954413990241119,4.831693630430184,4.128228826356662,-6.59667109425439,-3.4009627829151894,1.0170869808638998,-9.122734828408637,-11.229908662528166,-2.9707118006542226,-7.418830323639299,-12.115511675841484,-1.7388966848202312,2.2800954394219364,-1.7882812702651871,6.798990069183363,13.067545467761205,2.122214867113836,-1.2987195595620193,7.02080970061529,3.7377187196306894,-1.5201948183177267,4.761547266797784,1.711349423590319,-10.221134187112217,-6.070693045988314,2.077626842667428,-3.601939971602803,-4.43043709205242,0.9100959984250636,-8.678662895993412,-18.18716428294526,-9.005307452439983,-1.9119857266304836,-2.887952053330345,5.277269603607023,7.862290350845425,-8.289779828439036,-16.066082712453415,-9.248167150028783,-10.5735610832368,-10.206326496442603,4.628790765247789,11.04692408602891,8.055087082997481,19.681581279605304,34.55632303203886,40.10294719983905,61.08161667657153,99.58506978091725,130.33806457238893,160.50910210493672,197.97094321343582,216.1607787248655,213.48984437714654,214.7308785635083,209.78984330438107,186.44970267446212,167.80734837966216,155.69666690182555,129.62953771770083,104.90854858817094,97.34536090106286,84.88481921907986,63.63386418453706,51.820580200043935,35.56993339823507,2.5340395412855585,-22.828870203638605,-36.39817981182288,-59.810706725581696,-83.29316703965725,-93.86164032621022,-111.22034622594524,-134.5661600084834,-141.9624241270975,-148.76565420075812,-171.89175510029665,-189.08242873150027,-196.2193846759798,-212.71013715869287,-224.9384869275704,-219.74622789505275,-220.1234521665338,-226.71049626791546,-216.31810601324767,-202.65182260671742,-202.7353066534529,-196.94616682087064,-185.2048923676857,-189.6125510979443,-194.1153997981649,-179.2240793008085,-165.17678446152303,-156.30129793882253,-134.70787283938674,-116.71993309914126,-118.24577495131535,-115.74215208503612,-105.02613892613577,-106.06097494519534,-103.89201066571715,-83.08518757342006,-67.17860652063928,-60.87520392168058,-45.228867188413695,-33.38869578471508,-36.607720903742084,-31.042890930117885,-16.668225871703395,-15.985362111333597,-14.598270007350205,2.6169281818781576,13.413629334756447,15.13864182017304,27.084057419302948,34.713510106868064,25.857392858964527,25.934517522126026,37.610255229748695,38.59076868632009,40.76666353310272,56.28318213922462,61.035159158871664,53.70742568819543,58.86697130703326,66.43674101843038,63.479657047457295,71.23543206388472,87.34530924995332,85.69156759025573,77.97619734579344,79.7153092868271,73.0590033770788,62.04567996070304,70.24909063802255,83.02533862766823,83.59416965312529,90.14487146087566,100.50229009032165,92.18126229118309,80.90240605976227,84.94642446434602,85.35725744764983,81.5199206003682,92.06051368398069,99.05002269707572,87.47836519222412,82.33480992488575,87.20999151359835,80.39036674272003,73.91797465162621,81.27719150712495,81.56627086944098,75.11445695130743,82.06546729735803,85.89008645898687,71.9287958024093,64.43716917808852,68.06786187354525,63.866407236856745,63.75092621679868,77.31302194630173,79.37193055556705,68.27351093609104,67.466823734996,67.43485540908318,56.80333589126694,56.69214922023837,64.65519665456148,55.82982895076235,43.37142850127257,43.612814979656825,38.345339250836254,30.53012823322379,41.72676640944007,53.96270666440331,48.921123909394794,46.53431419067034,47.43066535102019,32.78249296404921,21.503691550640898,30.78160509210422,37.24553694699169,37.15970795071401,48.78201472610962,55.06960529234905,42.15736660269748,35.43877533750323,37.605512482876165,26.3547812121483,13.631511933074812,13.156233645306195,6.671099841132978,-1.8501243526080673,8.36183966179582,17.98635550387625,8.541349489520776,1.4902927913606232,1.7361304246179414,-5.97798473580286,-7.23744504360169,5.867154884395208,7.510874613117829,-0.7510100710930767,5.4997509943721905,13.134529895223807,6.951524358793372,5.149598975007387,5.150164550610259,-12.174187532267325,-27.244278315746076,-22.945757792567214,-21.249335500311126,-24.13275569273495,-13.618678022255565,-7.74352232457627,-20.94504487452292,-27.997315636466812,-25.028093005693073,-31.157927566244144,-31.928474952402475,-16.953670914828574,-13.182944630517111,-22.177801717975257,-20.540482811002093,-19.809001339321824,-30.366134301724912,-29.085890117465254,-19.36119079220213,-25.937991887616136,-34.21500224286453,-27.96170369786247,-26.677700101761513,-30.15754339625344,-20.0035588095937,-14.316838224760755,-27.762445601941458,-35.38866423238189,-33.007810712688546,-39.99950586224733,-42.88854726168016,-30.49841808734208,-27.15278500453276,-33.32862651721489,-26.837295231974586,-21.08488317166116,-29.325673703146208,-29.883381648042537,-23.555611775195644,-31.877607257153056,-39.53806531362165,-32.951264884237304,-35.301506633113654,-45.89645518939238,-41.93969616528847,-36.83391914305675,-43.32099058198239,-40.49738289382874,-31.528168992338745,-39.405386238391216,-48.50407654114258,-42.99680246059011,-43.41301720570234,-49.12602211977716,-39.54951783110926,-30.220553509020434,-35.29318701577291,-33.67575781122914,-26.89810732056369,-36.063986597862225,-44.29738140695861,-36.18314551232017,-33.777433596711106,-37.64321251273958,-28.731193799150795,-23.83706779573724,-35.06030107960488,-36.9763261884365,-28.427525535940063,-31.48105660095432,-33.572856068145185,-23.197273997767578,-22.610461867270246,-29.764272248999653,-21.514098218676253,-12.109776374135105,-17.018439733870466,-16.68693000548252,-11.571414524575736,-21.4692581015868,-30.482161481862324,-23.95827817227898,-22.781461335042913,-26.10595329099158,-14.35298766198568,-5.0451941212458555,-12.912290160349691,-16.287167082889532,-15.523075289820335,-28.769815755461877,-37.39519141447186,-27.385006535476663,-21.60494266638896,-20.40935799198334,-5.659555508890065,5.135697766885917,-0.30929290312214297,1.3385762428588308,8.321314305710127,-0.8429856477504867,-10.33465232199288,-5.9596075134621,-7.007983155509419,-10.323947359393149,2.3293644915270866,10.645219882462968,-0.3106652491821764,-6.316576547022755,-4.937965526825204,-13.521619734073397,-14.781160306911195,1.3620796628554288,7.447693218345744,2.5309199819964263,8.040250634526345,10.369251799466225,0.2490449945633575,2.0900938574386014,12.589830932663084,7.835834362448944,2.5389490798474146,9.456404297644847,6.926614831486807,-1.368139392298659,6.1958118631302455,12.343945554991167,3.7439588665177683,2.8796971846090136,7.408101993909332,-3.0957907295508056,-10.3926410728674,-1.0249841199752083,0.8754044073980798,-3.888028406661544,5.8998334289280585,14.171488240838668,8.484724884405336,11.615498384892863,20.588264089545127,13.221114335027153,5.6661749558374215,11.077834873990264,7.60650077596952,-1.7740595312189202,4.824078078037909,11.872199028916961,6.8220905201076,11.078198197799432,21.09714885384752,15.0780493468922,8.979165516650848,15.842526353731824,14.221980270554662,7.1789689052064,16.266274338061,25.545773543013432,21.431725855386304,23.821224175140618,29.229399685567213,17.98792605009326,8.347006251530338,14.246229807580796,13.613563396635556,7.817084173517977,16.174884361674767,21.38221184219846,11.317649872911435,9.173673740521966,12.689326826913668,1.6759601197576925,-5.105725574208203,5.764832458168897,9.546718224833356,6.069108637773209,15.615312778844125,22.383816468414807,14.695670434888518,15.814318554446416,23.378425291212846,15.247332563906296,7.128946392452951,12.72618249526712,11.794495279335438,7.30516420440364,18.039773724964984,25.40476158313231,16.21357790093221,13.031190655313543,15.389651745291886,5.333730164981809,-0.43430315875281733,7.844840826925497,6.289305279339329,-0.8409902279607278,8.79137448151614,17.894010281928264,12.934432620442413,15.17659266832414,21.409037844737135,12.041335421564078,4.807697315819517,11.617629514839232,9.789777760183789,2.786200701027138,12.086445730806714,20.610334855167878,14.618702775374324,15.461344025206861,21.084353060019712,12.934657352590161,8.945839941024529,19.262522926037526,18.24897524453629,8.493441696229656,12.763297469292796,15.787234440911073,4.883214827421401,4.5979308629355025,22.269090921369656,36.95002063539552,47.01927721210603,60.52213067783015,58.657264811925785,33.38873410399364,19.157268482376484,28.977409717566225,33.608631523184776,30.837624529379053,37.144571873398064,35.208932387441614,18.85076705290443,16.95559197356614,26.46723580996977,21.136167786283217,13.143217184160616,14.511232629134083,6.487940351111089,-3.8549010477924828,5.08342623588322,13.33106634988938,3.1958717982654044,-5.819474398304829,-11.88177086140139,-27.215871302940013,-32.299332679816146,-20.12102823125322,-18.256996146911806,-23.51043545390144,-13.697639909035392,-5.602574495998931,-11.113627571596899,-8.817039324658852,-3.3555409247350565,-14.195465820497809,-22.357734182840844,-15.777069223970704,-17.31213303106282,-23.590696571982825,-14.247826097593036,-7.326117979994223,-15.149572879015402,-14.069260985313967,-6.615031582437249,-14.615481052026418,-22.724355915863004,-19.230533984425506,-24.40962756690046,-31.98715656439053,-20.59353033090823,-9.983184073532252,-16.252748188504707,-18.551916372213327,-17.623811846759367,-29.873232260415993,-35.56399808013758,-23.511508044739372,-19.271379433301945,-21.879105195704103,-11.550578599629254,-5.086339527873241,-12.783821325087901,-11.380827288840166,-5.19861140463102,-14.696037122067944,-21.641503432631577,-14.652691565146464,-16.951793784716287,-24.92248530132006,-18.072192750187547,-12.692119448606075,-18.58873466291245,-13.59235561995739,-3.396724699955079,-9.66936694044052,-15.550324727033402,-9.3888598316654,-12.56833206088524,-19.637768114566676,-9.021296164539745,1.3700248131100046,-2.3299939911468126,-0.739687245408233,1.452231723791288,-12.175859980373886,-19.16081614986329,-7.8886603979887,-4.973085022547031,-10.707484114389478,-5.842115091605299,-4.296511643720291,-12.80975335168951,-8.685490110929717,1.2510840542346404,-5.0979354958073575,-10.99429996052699,-5.319276921783077,-10.061998310434788,-20.28507654524018,-13.440580739706224,-4.36492606812935,-4.511141657243543,4.289149102001373,13.015280519379255,1.1111122278563057,-9.859668250227063,-5.168641255469786,-6.402531732342812,-10.782076658027888,-0.8260459493602772,4.69838970138595,-3.340744948175278,-1.349255128186162,4.616095277127021,-5.626547016308536,-11.60601490032678,-1.5195246869175199,0.38097971124943286,-3.2789489803241114,5.260902323497968,6.585586075452787,-7.0603755757133655,-7.948946576980557,0.14743522300394618,-5.562043541650799,-9.425622547796989,-2.043126115366634,-5.685116506303271,-13.105952745882174,-2.5571886722577384,6.63021537422549,1.5141429942541178,3.7234432069735357,8.775965172684963,-2.1893820484086053,-9.747015754585279,-2.3211553442773933,-2.689390307443195,-7.233108700282264,2.9947484718710706,9.08851303965849,0.25894532995239405,0.6511472513531342,6.765128048428608,-1.7501187356803252,-7.525809043472224,-0.2536242147274743,-2.203560982376258,-7.724035274057293,1.6176256626153087,3.1720263254942376,-15.40531308758015,-27.030990591480915,-29.956215130815952,-39.31705360581822,-36.983845384494145,-19.328154103397644,-16.419275876504674,-23.268162497793067,-15.582282122654231,-9.203381233466558,-14.884411838627646,-11.798455960927086,-5.672112156223601,-14.136905253047917,-17.342693072656175,-5.884509319282756,-3.733093556390899,-7.102483867761504,2.9292353376357374,9.318108876773039,3.589737870019498,8.325275662938575,17.433147653801548,11.16116428538492,7.5767511999156785,15.361143843820301,11.790445814022199,4.083327500712038,12.399169186306686,17.118177310039467,8.690403577208684,12.573004492641408,24.298842025674045,21.17582835904013,18.18028283649749,23.56510634112432,15.078394843500504,2.3575736984758415,9.226033887224464,16.053798016431124,9.887720882177728,13.805222278808909,24.106853222816916,20.932480725987347,20.464771423502253,29.66044871828776,24.570573089385704,13.050136595134658,19.336700540321345,27.547260984733676,25.79460583194284,32.900112741305826,40.864377357374714,29.38597220559586,18.941678187771167,23.841482896415116,24.138082076013816,23.37018679482853,36.75128589900122,42.95042132245,32.112566166192046,29.058402109293684,30.34451915489827,16.41836128763132,5.05631338034175,8.067069819271794,6.604738596504154,6.5251076845972165,22.57095546076594,30.80167336681061,20.311107734658272,17.665578497006326,22.458675892304157,17.159008988118604,16.818641653723063,25.385311423493285,19.035600873312447,7.681148891863877,14.4015295477323,21.38544004214388,17.309749884604706,20.49910244298645,22.726280752903612,7.468653587322759,-2.144106050639142,5.569139859794221,7.0609681786661955,4.979027095762062,15.169955980452361,18.0945304474028,6.691569468848559,6.430244505223211,12.5955824686667,5.846103886429775,3.2958375197830674,11.220799735839872,5.272194584406441,-6.845294883333294,-2.559054451777051,1.9387461502572854,-2.073037593645105,6.261270392623184,17.886749907457776,11.701585172477463,6.114697949698023,10.030838148811089,1.4361068797099033,-10.380619970730294,-3.239085567437459,3.982951893418925,-0.37258230574675943,2.7618390833071755,5.2286235499773595,-9.077106305981005,-16.079753288999846,-5.621882085501532,-3.4859562450229675,-6.817921954685713,1.0974711984435501,1.1889843490045238,-12.098859169344294,-11.899733739588072,-3.556389309727421,-7.289541125400648,-6.472611490777626,3.3894729440263553,-2.963057537082294,-16.070835712392146,-11.84355792721647,-6.410014593430413,-8.861704553574283,-0.15121313537940217,8.136539522810606,-4.682532449806765,-16.614340341681043,-15.395090198877334,-22.003542480556895,-28.41825055639964,-15.043834509886526,-3.363671938285222,-5.747429608111927,-1.0411895972613152,4.081319263784645,-8.427639321318871,-16.711538819024867,-10.551042247440787,-14.341221567058657,-22.140017761744563,-13.284169346771984,-6.316950019121936,-11.468722208058619,-7.771740299313997,-2.8995379234135537,-15.579003898927356,-24.93429237222,-20.214818829044958,-23.454278367056748,-28.8617404013499,-18.223106617092526,-10.74485619332852,-16.31100666370522,-13.528961252879746,-7.699528039633117,-15.266458097180358,-16.735251141311952,-4.793747638466471,-4.134286552250588,-10.831854191986029,-6.831759160872695,-7.83792644572706,-18.870758468811484,-17.159352705852903,-10.417455323233016,-18.136345665894254,-22.382974181075177,-14.614243765165053,-16.128296007294445,-20.72798618075873,-11.431896384631823,-7.077615464099259,-14.52129441139496,-10.816913194163963,-3.395214252442553,-10.820195286250135,-14.023394018680882,-5.574079277207898,-7.5076256597769495,-12.01122518393773,-1.8525707429150664,3.1875652884859864,-3.6847624092258244,-0.04055025745483576,5.686160424116222,-4.990184499700944,-11.553229440020413,-4.767892095021729,-6.948872572906364,-12.09581181954305,-3.3546966590914726,0.0559547257735905,-8.363308352530716,-5.5851752913353465,0.3769569172699234,-10.177223596311942,-19.28597958352654,-17.942990946549227,-24.90398730809418,-30.08157576812119,-14.576784214103679,0.8227820271221087,4.366205662502528,14.309395494219467,21.810412440213867,9.99433208570195,1.2700813779229523,5.53239647690091,-0.13615196102531701,-8.687282507130385,-0.8602092926767302,4.114161599291946,-2.352018767059743,1.7420860525672754,8.219068080270702,-1.7776612353158638,-7.269692506722557,0.9339117580707805,-1.1188921844508344,-7.575911053922459,-0.2457852029932326,1.6359621451519193,-8.057365836000532,-4.257363072162782,5.426807329995247,0.022167277652747508,-3.2263291243545025,2.813134572669095,-3.2748694744260414,-11.960803993608168,-4.005385796045636,0.6320780828444632,-6.161130507968715,-1.7025614365143444,6.310768202593968,-1.2355623353153993,-5.920982711132211,-0.32329338356537507,-5.72661816543077,-12.988582101443019,-2.954392618819538,4.905844546867347,1.7127082009113364,8.439125513443697,16.54570667375917,7.4311215472836025,0.9330697678481206,5.126081166093097,-2.0225180213022456,-11.682693488862343,-3.7235502411012424,4.111264302337458,3.9723659408048846,14.30679000122938,22.302789302254958,9.127811714127104,-1.4775747069034846,2.4991369903573952,0.6077640812548977,-1.0335199783767606,10.531604641680818,12.588780044536634,1.0099806264395657,2.2886121552793157,8.384273084574717,-0.1049152173098502,-4.893705487550128,0.02317671134410304,-5.62624431448485,-10.556844057794144,1.7867262876681975,8.190684277468144,1.0329533143891956,4.270007169052726,11.367712805046677,5.35705441666787,4.424250296928817,12.283478788990545,5.5791098989828996,-4.471751372057119,4.077209583934616,14.256447856578509,20.75187967759373,46.11601872735557,80.47065887821324,105.05063372045811,139.31291638998084,185.3768009223171,211.97032517179446,220.6149095646679,226.5729887383627,213.55824308462837,184.4635620108276,168.6602392861223,156.33638058158442,125.58631551175301,94.64165088883836,72.08850880605848,39.38940151068972,7.616226900909236,-5.449092696633643,-21.025481254186243,-46.42381289229826,-58.81115374190083,-67.83640970114925,-92.82232989650944,-113.42348920553064,-122.29341894854656,-140.99903234258724,-159.24794764224487,-159.13187151417364,-161.05463201013177,-171.02195316984051,-167.31210673041187,-160.89789500123914,-170.41526090901522,-174.39298127767464,-164.0704594942447,-161.2382049968153,-159.0088379772561,-142.625097635354,-133.93053071467807,-138.9685102945914,-132.85367896229462,-122.03353854674943,-123.49251563052445,-117.72068721288818,-99.8388530894708,-94.40459453165636,-93.92100855052387,-80.60573168215906,-72.30645850128116,-72.2728608827466,-57.91396979921639,-41.79059062201628,-43.94678745271187,-42.952137184370436,-30.84732576690361,-29.374654037635725,-29.731056464755632,-17.051484653904694,-12.774723846210819,-18.946195305525258,-9.296808986119355,5.310162852210069,4.068541904994113,5.963356515544721,16.168113860354286,12.436049562680843,6.741797568207825,17.946967511035954,24.745169306173793,21.082154621543076,29.567413295667798,39.51358372179363,33.023841130483106,31.74438644128626,41.988438065359034,40.02646365121315,34.182068549942684,42.64446865630788,47.58535708838754,44.47370083874088,54.407559077998116,66.17973944442879,62.09111396508135,63.01777857537991,74.27090457840352,71.67178153571089,63.69586343889161,68.73696737222126,69.91497664183731,64.7754740352002,74.10345293914213,83.05548745993646,71.62469584771402,62.56332530591202,65.34768165111845,58.700506280170984,51.50248304359641,59.81425995605016,61.90444278187252,52.927565927484046,57.06279274231166,63.880553487619736,54.06728955944464,48.02085736718007,53.43611650109915,50.07353909641604,48.27753911332919,63.484298655498534,71.60703396424164,64.45315449169794,65.3504758932144,68.20268510135989,57.75097338495773,52.74897907340755,56.34501146196088,45.53036518692831,31.908762426172352,36.47523535849286,40.5414214830045,35.780526618229416,40.20828569331227,41.91937908479894,25.36641661348588,15.179971260037956,19.9684795075713,17.839778120088866,16.693461753201706,30.112849088879074,35.25182893919633,27.398410652545664,30.612223768928615,35.173779661042644,23.064416358998916,14.839993390176236,17.260405400322785,10.09617348271848,4.8223478905888335,17.137345030640624,22.64395878659258,13.874002110008956,14.077219576753203,15.249615452505974,2.638889264725697,-1.8211615451544065,6.46454100857563,3.9696224271985012,-0.6941888433175123,7.398757433399396,6.977065821895075,-4.9763022300369615,-2.848631065039157,4.67675773427075,-1.222989611161918,-3.6335743593593737,0.2968047900082178,-9.960628326038346,-20.163914941377048,-11.759112321912768,-7.308030425347265,-14.655346764580221,-12.487168026131195,-8.924419966279007,-17.694014790387875,-18.234352467234046,-9.815501496774054,-17.959700772159643,-30.39188934231352,-25.58255523175864,-20.863068868940765,-21.261116670554443,-9.084066207951624,-0.3972535740447878,-12.707158438891199,-20.903728861626217,-16.586085473025168,-21.780886226214182,-27.397499774032106,-18.882691636849373,-18.387433406485663,-29.076806148598187,-26.683844417775795,-22.389107720771726,-33.666699751597385,-38.00417913444445,-29.080798861133243,-29.854801125939858,-31.74478914611063,-20.73944233724461,-19.698806247042604,-31.496479110308893,-29.50020947637386,-22.369528149537167,-27.949142569379894,-26.694505251303717,-15.15398087336703,-17.455151909884414,-23.603933642724282,-16.43853345482174,-16.91680911418084,-28.42194884510909,-25.61779976104141,-18.31259065542205,-25.10532030198505,-26.419482038910076,-18.333978860891094,-23.24705544199845,-29.006133866273384,-18.52232713622041,-13.898476884066953,-20.63645418119798,-17.524487124650555,-15.341179700283554,-28.50914284496756,-33.73390085699039,-25.354872925170042,-25.719041742839067,-26.018414036601,-12.676499059151004,-7.719556872160505,-14.260625622144746,-8.856194149086866,-2.317486426649371,-11.651564982396707,-16.180734249783583,-10.874479373399016,-16.599618035630915,-21.61676695558093,-9.70842036426725,-2.9995783041525494,-7.5048415566711055,-2.7488234786009587,-0.43750665345025563,-15.448463474381825,-23.583209221370492,-18.872839092681552,-23.90304004762982,-29.41375224452163,-21.727815940041857,-22.15163138351812,