-26.73001345170961,-25.55751195779601,-31.804961551353898,-41.50211485889041,-34.82816550753306,-25.893587771250168,-29.5846800949458,-28.506431722881416,-21.44459116002647,-25.81740378423739,-30.235503418591335,-23.44842549499549,-24.160454541108024,-32.03003065915935,-27.33579133501884,-21.41821198471339,-26.87119985987288,-25.607617473189396,-18.277285295685406,-24.8646377380546,-32.888897210987246,-27.95158083841489,-28.32931746139664,-35.366564381755104,-31.236416800077805,-29.315425806831875,-42.14452030320185,-47.81421490623628,-42.33301362143911,-45.170638250024304,-48.938291773425036,-44.72845645704858,-50.80262278726346,-63.57946282608962,-59.70841734921545,-50.52434210714836,-52.724712798773176,-52.39918074772621,-49.46041545959651,-58.64418648581672,-64.56930296355088,-55.28688150570328,-53.31251508841822,-62.291621576070476,-62.33635194288131,-62.25662411015227,-72.43505484420454,-72.16194919110981,-60.536605324642515,-59.84902389394163,-61.9325233112085,-54.829786256047115,-57.0096542352552,-68.37835916141039,-67.29868977075807,-63.98553976318522,-71.81851276471279,-71.25703177875012,-60.0136175675902,-58.74426256437763,-60.241406443629984,-55.35077496005711,-62.06851011375166,-75.02057905487293,-67.56695110112199,-49.470220126385186,-38.91862901028598,-24.41939198607231,-9.511935962418075,-13.396558864533418,-20.68379171528111,-15.51592946771231,-18.695695129887323,-32.97437071994912,-34.93897404549766,-30.18307920758484,-29.702853208960125,-17.206763903851737,1.9396834609400928,1.074622574853347,-9.513010270818283,-10.230763829631826,-13.91921891357175,-20.796425036351017,-11.993933637230937,0.06439987702247763,-0.4296056187620949,3.9998097473070904,14.667554262497784,10.55759201178789,2.4356503252198207,7.056867005709195,8.803845569978229,5.493170889242265,14.244314420271273,21.35942312526176,11.419251835467723,5.380337290381882,9.529723457001891,5.107774658692502,1.0216577272804999,9.990695985417453,13.060972292448337,8.473866925594251,17.108028305731217,27.88553658275543,24.28301990769487,24.102516698007143,31.4221073117094,27.73763035850009,24.5230359463351,36.8292698870795,44.39895122006726,41.14438291694358,44.45504062376638,44.209214790652766,29.79394792329728,24.980661260303098,34.70025403906391,35.79870476369692,32.64976957648268,36.65053895929092,30.7740004797473,15.84560465507102,15.845838403595671,22.84216881062792,20.759245911057583,24.91782136938468,36.19205178215644,33.398881409394264,26.875761485291015,33.49414237393381,35.86394795396263,28.860963076379893,31.079799213974415,34.13873293211098,24.993527770086203,22.069970792545554,28.220975551753806,22.249919482901596,12.329887811253624,14.338427299905675,11.750536636373187,-0.18622599221297786,-1.7229380400482222,0.9016136033066477,-4.752774110672197,-1.17462255030931,12.175704111382498,11.273540072895956,3.877924224049977,6.99295377922873,5.735908417702408,-2.143252568960061,2.2611393649058464,7.659921791734785,-1.7390586587648302,-7.148971687814132,-3.0938891454237036,-7.957353342592195,-12.618586391234315,-4.404351708479613,-4.346559537069231,-17.21913701212149,-19.415855338325954,-13.56866761255071,-11.191301553285657,2.3813248702792063,23.224629878105937,24.777101053483236,15.25145440208805,15.08489550546669,13.499227341416233,9.06236122604055,18.982502697982703,30.700079225090157,27.689574129252023,28.44768527429784,38.04839947235556,35.91126933266971,28.317166059702384,28.02528936876521,18.652954181328575,1.3428559235816495,0.3703049242873706,7.17964791843648,3.758541982391863,3.4204813759108927,7.0799341456283775,-4.382856989272284,-18.31141712931065,-15.767350974161157,-12.915322100466351,-14.890315938292876,-3.830715999433697,8.851173741129063,5.529246063085842,4.694445007396227,13.41131473792654,11.71079003926545,6.501907486906694,13.085161107334491,14.66167372844768,7.610742758078429,13.246973320084422,22.93303250284018,18.534730420604593,16.123966773844128,22.308613700235508,19.305688773364515,15.260736397644475,23.826816769782486,25.62162450405979,16.01853204960895,17.226046382180318,22.894112110659663,17.959148317774073,18.79363637047464,27.774267993498146,23.25805873390363,14.180137771614493,17.717597066005645,17.0601481139735,7.743445306692248,10.347200782533223,16.622875427924757,10.667292254107707,9.919471883223823,18.65067528422771,15.293014825474017,6.95897468240464,10.21286287182888,9.48995508857445,0.6780591358806212,3.643016473596038,9.634675697453819,1.7956440248146412,-2.6176097830873086,2.9217735520520876,-1.0019520070687804,-7.5882466539858795,-2.130783857756116,-2.2402113284037024,-12.846383154218113,-12.55956861679747,-7.610595056227502,-14.178576044431727,-16.681905505074678,-9.94280492836301,-13.04319769640638,-18.34199015574452,-10.659010731440512,-8.346594056245106,-17.86870742151275,-18.53623762253723,-16.304198003023643,-25.857548312789618,-29.449241595063523,-21.458848798196563,-21.60468788188377,-21.747987510959504,-6.253435235990807,5.493142513916635,5.019849840196615,11.363797429618844,18.27588730416235,11.379668151702216,9.38039729360389,18.762615629751068,17.31102308371294,9.37147361736243,11.264332955369513,8.781731814079333,-1.2752678002302718,2.434413001424727,11.868443628444982,7.272686164768869,2.830832851365405,5.916907736355445,-1.0802762544298439,-9.821571554011706,-3.3469326213952963,-0.1206897341514706,-8.816175247148706,-8.991838490910382,-5.154718421366425,-11.449959706896262,-10.209942656689892,2.623118106201475,2.44132012586308,-7.523057168416258,-9.806558604137873,-14.995607404418848,-23.84536863175524,-15.746369636243205,-0.9113888588138259,-1.7781570678928453,-6.155191190691476,-4.8541634280195485,-11.05403870390553,-15.71516600278892,-4.506723931551098,2.875630141258114,-2.9188578024482648,-1.3093259077627857,4.994712953727286,0.9421447855225589,0.9389239401431555,9.751003780914852,7.292185423722389,0.4288689803564236,6.767797971602498,10.731793020692393,5.076926250238289,9.125477760829504,16.54661713031162,10.006002880667475,4.878240388882,8.39178023898506,2.040014184811892,-6.820924907129159,-0.7778095805340985,3.4693030443841772,-3.0596934818281594,-1.727001278501053,2.1155294722798765,-7.412887401086165,-12.742651812826875,-5.314338011357011,-6.970347211442551,-15.546505142352341,-15.381186023570383,-21.32126551896942,-37.722767801057884,-40.609156248918005,-32.78234283946502,-31.72372917339454,-25.889825891082936,-13.799160512898116,-19.349094691425844,-36.643090946237585,-43.05835326813789,-46.89133105687519,-52.614227746690446,-43.655557538023515,-31.26850039392872,-36.54116069874598,-42.522915505781825,-36.735157653840645,-37.19330038357015,-41.4739053019448,-35.917695036340795,-37.5697611827947,-52.283199908437304,-55.620618727493635,-49.1754888840004,-50.567910041123255,-47.50846911184318,-34.87258815864489,-33.207392012701426,-37.59432573788405,-30.78164334046422,-27.445025611275998,-35.011060054081746,-33.100685261645836,-24.45462492069609,-25.978167455379463,-25.861485132842336,-18.738649087308744,-24.251184076437617,-36.38634835729996,-34.479943554367495,-31.268702461181334,-37.57940902458608,-37.52800843016951,-34.77822626237133,-39.07284156607112,-25.66699852483329,14.82222535200579,52.4236961273869,76.9133258246801,95.90841221080133,97.08591569310119,84.51925510461894,87.34196125495961,98.97800876336159,93.40877760614757,82.83260710095925,80.7040475006394,72.6533308950671,64.31594568643533,70.47498989769524,71.65822659666924,58.33682980423701,54.471972586323815,59.445646985570306,53.721259371979045,48.26266772695359,51.600708459307924,46.4051420254191,37.31411927719595,41.86005906379086,45.36935110072747,37.18208718283347,36.02861832037209,40.67417528018335,34.82100794270081,31.71917178355414,39.69775960542829,38.860508117563946,31.764710302430025,35.61410424424501,35.96833687989423,23.906224846491035,19.892906957842452,21.93726005920062,13.630094687671765,9.890062878536074,18.52314926971487,17.182572509491013,8.176099574692119,10.896486462616235,12.964254911213384,7.038264115517967,14.434316792797997,30.663143587628767,34.11261445372427,36.810097138013944,47.01848908062083,43.32920137685903,29.072713874402485,25.31188789927093,21.089633748083514,9.695554774609086,12.260206489576413,22.75015198903926,17.08838810940727,7.09935898302757,5.545205093518479,-2.800731864753171,-11.998502763819504,-4.297785676064154,1.3852697459280168,-8.871578878874605,-14.163162510222227,-13.455188984514493,-22.807597960933013,-27.972915368359384,-20.167494488395505,-21.05502140532337,-28.884027139190867,-24.106503124615465,-19.432158431077397,-25.58207520068788,-23.760801201557783,-16.16685201381177,-21.580063630980053,-27.233050363651902,-22.880620506873033,-27.797991257267668,-40.008932253140586,-40.393519746285634,-40.09113123339973,-48.03574060181286,-46.20768623411813,-38.22799236383611,-43.146800423618764,-48.58997474217492,-43.462441342598254,-45.26109506333469,-53.047677893520216,-50.239892504160636,-49.38446611630328,-59.82886959586229,-61.71300328854248,-55.56926924516057,-59.03812298459745,-59.517746480348436,-47.57485346901566,-45.15366675127706,-53.92871651882296,-54.517574094393886,-54.33561134891761,-59.77570099486981,-52.04631249419697,-36.91986986956337,-38.58528550487246,-46.01893586026744,-43.47083387747567,-44.30574345928235,-47.33165955730206,-37.83149996965941,-31.329907064364164,-39.46081158224653,-40.91647530794883,-33.26348009132842,-34.42950247073834,-34.132203431543346,-23.81012764894316,-23.40896950884988,-30.486422735857985,-25.242864950880694,-20.77162896960963,-26.244656321388202,-17.28183690596311,7.83116016929308,27.72568768717001,47.6824335179436,69.5423468123744,70.07803772677102,55.47479502202269,53.395291194443686,55.82879194261331,49.7877682062432,51.20379197623302,58.509742155106096,53.390969728047736,48.82753853622833,57.02324810248325,57.56165213299914,48.225701228828065,48.21476457027227,47.542295629714715,35.45524274782721,32.360681028526635,39.44579875533148,36.18425372666749,31.567247152030212,36.11699818833027,31.411892384540575,19.77791238415375,23.35537010090346,31.343808375282478,29.399956122645982,32.2394989893757,37.19331002997742,26.74224798819992,17.067710489267924,22.73431890822015,23.188342245453764,14.506892814973007,13.457676768905994,10.626038455622123,-0.16549894586286218,4.220599052316555,22.831399361749344,30.16481011118917,31.497286104145324,37.89288308935192,33.29001759564535,21.6900004207552,25.83777740299717,33.05510412282563,27.350348961918417,26.28545447455759,30.917707625052138,22.904916183594487,15.157326695919378,21.262172168161246,21.710702757597943,13.236305375271986,12.48242255610997,8.325294400967113,-8.295073903475679,-14.62426855144349,-7.671202877048641,-8.57186358055645,-11.976201425710999,-8.715980273104282,-14.600119170037608,-25.217003758699878,-18.449591321247965,-6.199528927614901,-4.442712271236244,1.239464233102777,10.17615586131956,6.3687500704765085,6.817008515935269,29.81041701554186,59.216078379291645,90.83731371460067,137.03560937572888,179.40660620179494,198.93996785053298,212.1285762647614,220.8756791358664,206.5071472920863,182.98684014263586,168.42398265945616,148.62243746309738,125.20387431722602,117.73528118943666,113.0906781437187,95.89334571286564,83.06385075385667,75.12992054047209,52.50495444275,24.9049245510111,3.975302548256443,-27.461589137574002,-67.60167374796987,-94.36982495702483,-115.8443095640002,-144.56497724227407,-165.5979284582591,-180.4528884949968,-208.18749287833876,-236.4192395965523,-248.94459876975785,-261.29105095665085,-275.6437818781425,-275.6205360368201,-273.9100862232059,-283.88924049767587,-285.97692126017455,-277.2500453042311,-277.8091885263975,-279.36287859316076,-269.6125238225542,-266.3819689136981,-270.35782701296733,-260.4650256667396,-246.3400786779349,-242.84756097106418,-233.86702004202542,-218.10581155061874,-214.10028477180816,-209.85164380324642,-190.26716513969927,-174.6097697350479,-168.36495475023838,-152.3805263952434,-131.94599431516306,-115.63874136315431,-84.89982651773451,-43.14044077837247,-19.81558949379869,-11.544115896917157,-1.4637406264286597,0.6340245317432093,-1.7695241409443345,12.618850868085929,31.61433624986758,37.33482728551676,46.96623212276103,64.26271803119744,68.79043467617143,68.8110090320547,78.06558938073822,79.09745833854643,71.29430686500787,77.16424345920646,87.40653043115739,85.80530514169365,88.8990675672375,99.6914817424257,99.08320190163596,97.16413197530754,108.53229790412644,114.69109762755005,111.57082750532246,118.75158159193471,127.06797586945055,121.86274731685141,120.56743806420108,125.86879221253025,117.7004518083769,106.75655946809424,110.53467030330026,113.11401525992369,110.72987335485898,121.00347590878981,131.39075044233064,125.18507934796655,121.53380363935437,126.79674685725834,122.60746767623101,118.00423362363998,126.92739214727015,130.08226610746323,122.44854324267114,123.61371999719555,125.42837900985363,115.12790947131506,112.55743555898485,121.42806364592742,118.81510586519947,109.45576728825307,106.94034302480449,97.02327268508418,81.22403209452602,82.73226842779638,91.93263221498982,89.13315963424539,86.74406382822336,87.80378942895003,75.91723452642029,63.99026598680593,69.56017344590461,74.13456494603952,69.28989150728957,71.46493267045156,72.65406415443977,60.94768206298782,56.793528363628205,64.09209755960688,58.69508430108557,45.44457766180375,40.723729061518824,31.57450124938898,17.848602719056935,20.891336483817483,29.55674742387178,23.385739195389597,17.2622716140444,17.923768494432085,8.759962427083321,-0.8053754702421663,4.449366874871789,5.937770112284477,-3.176768834600813,-3.2469782127216296,-0.20665446677481247,-7.784409571814329,-8.803826631490358,0.32385184123186095,-1.7303736827443679,-8.520236970248087,-5.3546207460512925,-8.260113429874048,-20.502428737463784,-21.152744297034033,-16.796133101331176,-22.387769202045767,-21.867552281154552,-12.585838256605385,-16.534295771190735,-25.70192158629468,-22.538546025520464,-22.801826142175365,-31.31481592308188,-28.674400656126608,-23.40146343464008,-30.32240934876091,-30.371751493378518,-19.04575347280945,-19.028647414115788,-24.043403821262686,-18.292055573174068,-18.11367141060037,-27.456117144158945,-25.370938188913524,-19.162390347949703,-24.784263672193454,-25.7818325670217,-16.687465201276105,-15.885547048150237,-15.070964673536313,0.4245021383187515,11.111447316507647,7.529702867550835,7.2395400052797605,6.05772808689506,-6.407151073131471,-10.778903507601175,-2.150456483833702,-2.5767052161625226,-7.703050413177324,-3.45927872688843,-5.878866413341284,-18.099646048065715,-18.140466321686695,-12.758803780231762,-19.051055997256356,-22.11318233928813,-17.221827416366807,-23.45457732859989,-32.38588187719001,-27.614016757808812,-26.329986398927474,-34.767155860390254,-33.04138822050254,-28.002424461231534,-35.168261642206225,-36.86437995210794,-26.584790797797094,-25.27304491342462,-29.064193661940546,-24.815478820845804,-29.687841163974152,-46.97325332687155,-51.506708091772595,-46.349380251893884,-48.422656764221244,-44.18240257085593,-30.892117098629562,-31.205785309287826,-38.831521225589036,-36.1452913595852,-37.947417530034215,-48.26582313572565,-44.89755458903707,-33.62162047868058,-31.899943441133352,-26.56207295402084,-15.813801972407523,-21.06184915500573,-32.605470025822974,-30.348411153712952,-29.271553224468896,-36.49105059104894,-34.22406160374734,-30.414905526253953,-40.581250691901204,-45.71966809252939,-37.74937623674975,-38.09672436763447,-42.949693146232846,-36.78381194200634,-36.19158309208529,-47.43594653139084,-48.140230169502175,-42.05822779058253,-45.75366453609143,-44.241030003467095,-32.22779772785345,-31.70070603484364,-38.19162614890004,-33.86993930969898,-31.62444884777223,-37.04459748175226,-31.408678979854116,-22.505065403706578,-29.58232882581494,-37.38232496192048,-35.60751528353373,-40.63975549757391,-46.632494495028226,-39.09167332451972,-36.26413102810818,-45.39584568083113,-43.74659489515424,-33.759561210968634,-32.18045308862186,-26.80617161838334,-15.232590266997317,-19.02125225616475,-28.387144434858158,-20.664785224210252,-11.30981569366547,-11.806338852598639,-6.637251661209799,-4.359489578101748,-20.074398491272575,-30.031365317113547,-21.104182884362572,-15.346502155240962,-13.05765027125542,-2.639545174038544,-2.8722623788634496,-18.040853243541527,-20.425443006963736,-11.547752562911608,-11.722711408642812,-9.955997152663167,-0.46027177178452616,-2.139685974783962,-7.641065620086511,1.586510867981187,8.994126819302133,4.442534259032202,8.372210766987621,18.941952763857064,18.812338280742583,20.023752360030283,28.504813147767326,24.64107651257983,14.968929124586463,19.533004745033892,24.252476505341345,19.48344524634725,23.205641729475985,31.256256016158886,28.71412708622713,32.19942755702849,47.55666744483128,50.34761789985751,42.700270183310394,43.777407453247726,42.99889247802648,36.23085353810428,43.16034261238417,54.99385185946756,49.82114131236242,41.97075667466446,42.884859776692686,36.39181462780945,28.55240233081989,35.9991103621686,40.783248093618624,32.21318359930561,30.232355348711483,32.14232551039839,22.38807653537051,17.28093976318678,24.834481480185513,23.52057058092111,16.249529864517502,21.218385782707834,25.18620188800098,19.69818030623329,23.50077156575499,31.803561168279614,26.12276536639584,21.36387450493808,27.773431517704317,25.406423539175087,15.636120010228163,14.860398883830731,10.41431719055507,-2.6184486495293706,-2.082207867237731,8.023261257578223,8.381010220518462,10.42648381955938,19.207122121618447,14.221174793846778,2.072308050574868,3.9945303452941765,7.632435433548455,4.090103694382483,9.611346009907951,15.755325160234374,5.157720182946411,-1.3944182437585488,8.403279756762053,11.961047864498877,8.838482412435624,13.610131905308831,11.089694347483986,-3.847239621910184,-7.190995040132901,-2.0790617873139055,-7.8454437322424315,-10.161159176432836,0.11723925297286719,1.6488132252145096,-3.6461937073471637,1.8760796805023365,4.443018521580068,-3.6170187211763287,-1.1264831583297217,8.144132016798743,3.710392059764679,-1.9568016958785317,1.5969272181139598,-2.4477080939159968,-8.564621097873573,0.6013475641431238,7.127477832261105,-0.5556575319103354,-1.4281836902274179,3.1027352179959506,-4.499058216424463,-10.534620236804443,-7.041093377851997,-13.87389950069105,-24.461847204776074,-17.388755620247707,-8.591523868850803,-11.354124373647268,-7.218769716129659,0.3917031213549276,-6.241402594182741,-10.046465014103822,-0.2580861370070222,0.2006510580441383,-8.675885376643045,-8.049256723321225,-8.621601059041483,-16.21095558103514,-10.047960397208314,3.4375757461467256,0.6327818801043419,-5.978281972184695,-2.4258766287016185,-3.4565850228414594,-6.189540210139025,3.666426487315097,8.277686941561857,-2.631992881509265,-4.962833802851987,3.8551494084232316,5.3233284827717045,8.709990734380748,19.897125653814665,17.620138313285068,6.187292939400898,8.32654240985823,12.773682852563306,8.23445390287973,12.08478658475649,20.577430968889505,15.348094709212653,11.723734819347607,21.750463637251418,25.88242191764564,24.253010799732508,33.03020840771376,37.39512472431156,26.764698258416797,22.401719099027254,25.566729758291174,20.40537759890557,20.724779168532844,34.54889528103875,37.970429290209545,29.01657073224617,26.17238305163237,20.436928365181736,6.58028303475531,6.641093058752517,16.986638537260617,15.117166773312185,11.812630557947575,16.846292793119797,11.076414709762885,-1.9015888007437507,-1.3784888425894752,0.22119673204725643,-7.5890054230876505,-5.26760040258438,3.675514869871674,-2.360991011540627,-10.012908449859635,-5.713868451534532,-7.504806308896798,-13.945020638596565,-7.342931418964925,-3.4519800150272735,-15.146666384275427,-20.822956885604633,-17.844517085535543,-24.030899830857603,-28.24531509482611,-21.277306406756104,-24.132033995385854,-36.09045673885204,-35.251039680148,-29.970723994726413,-30.375001735684116,-19.372894605554627,-2.0329329688682876,-2.609410117135283,-10.945003087660472,-11.522338821275635,-17.042495546582856,-24.5475713862646,-17.337052042917886,-10.988619192166446,-18.85783523382633,-20.61274496932576,-14.299820126716677,-18.283123745114594,-21.30013017902352,-12.86787106876638,-12.835610181825071,-21.03127414344615,-18.645034448569774,-17.437722298087387,-26.701841890361752,-24.354800412349654,-11.270787197344394,-10.787956382187469,-14.102167027346066,-9.10058296080927,-13.083152549093102,-23.276588222833038,-16.660656648527777,-4.129540865170931,-2.1920667180609774,2.412183148350843,7.413309809109342,-4.565538375722853,-16.65622189927026,-11.159746107328965,-6.78475074593031,-9.62151556191396,-4.66306126207593,-1.7331884651369682,-9.393867940830129,-7.97754787892482,0.603509664680451,-4.280351408509432,-9.666705376798552,-0.93370670129613,4.078850590127135,2.669943842223076,9.951147290437664,13.657548186318342,4.887234804669208,5.272551936635848,14.817694409038477,12.725370789764789,9.022713000278118,14.302183891647225,9.7983959830745,-2.007249795809284,0.8859371586315654,8.077385237316388,6.863216284429084,13.10096346903827,22.7698786352691,15.199463735164235,5.828104202366091,12.345254758674017,17.211416300006505,17.177455887532584,27.50143945854219,33.36738704221209,21.757986853730056,15.02458925066452,18.47889394034167,14.214329891058213,11.470068291366115,19.926008309351857,18.89203819850805,8.031125287620164,9.783484591929277,15.221432297231706,10.651069024991337,12.870363607800645,24.62489966413737,26.42703163581592,14.25355380950231,-4.055133875462342,-22.249144847999528,-34.90634493731829,-33.8740219594238,-15.695419031560881,-1.9024075959321336,-11.776928658200884,-23.64472413438756,-19.202346869805446,-17.568575637677803,-23.807587593050688,-18.16710356848769,-4.061037598746562,2.280747563298152,6.940603904328977,13.982117056225755,6.685426145915858,-10.100108365880713,-6.963645083489606,9.108587815144318,8.064383073124294,-0.4149967730471129,1.9083731054134327,0.25187525281277234,-7.053912155223541,-2.4475041223532457,1.9544888702040302,-6.151797188264301,-5.785664143349978,4.444820272730844,1.6601243645686352,-4.813525253738685,1.1000896586807238,2.7799878592888474,-3.674285969434966,-1.6291849647015453,-1.9733147538183655,-15.658454397853195,-19.970190843311883,-10.291066739110052,-7.955203431464679,-6.849967984651017,3.0189522184572524,1.3534085324998073,-12.610819069005357,-14.150013896753212,-9.14900618742331,-12.031166210400414,-8.479976366148005,0.3174157124784216,-6.141629213311237,-14.788409082339987,-7.396693139610019,-1.6572956186260765,-3.64136122574362,2.3181718040170387,4.250446508259937,-10.349668335180834,-18.19006523932197,-11.901945634433268,-11.430253649608504,-11.042226746891611,-0.8955011297392033,-2.4186100368352417,-17.81759853420594,-20.96698504862276,-15.85515765889905,-16.529122678135064,-7.134939390574519,11.46869748664109,14.088663833997646,8.463884816315002,11.898328691761183,9.816239883843007,1.9939153485206942,9.810448648485448,21.365089286146826,17.889144033492265,15.781767307604746,19.350645749587606,11.12227575508938,3.6304782353705733,12.674486057897052,18.435174907879812,14.979043376230438,20.596151261063273,25.913398294397957,17.551403260977594,15.09619807598872,23.280139406471733,21.60478785668686,16.858906238419078,22.6708202140073,21.612388202839437,10.2015881192095,9.399992363233121,12.175135633483638,4.421475206271639,4.058041301196687,15.148346375350442,16.36858302690092,13.726091349964182,20.400496850940137,19.094123918653366,7.905767704903459,9.996968549071996,19.653415660715307,21.861245896071917,29.95768553134066,42.01454338507152,34.39310175901944,16.446365471921744,8.93973875270977,1.7514960406080968,-6.5110369546070945,0.677946178978746,9.378025598094801,1.1328922328189845,-5.210295778661105,-1.0863496248095053,-3.9700468062745253,-6.568103433663123,2.9676318191355495,3.8992814124911614,-8.427020709032993,-10.59522902503016,-7.374527467149287,-13.316148477439148,-11.980105721661426,-1.1088847429516488,-3.2844470521526574,-10.455725414731056,-5.48208952557876,-4.7755155726473175,-14.09005234640546,-15.36320256058459,-16.137006641208753,-28.892648795411272,-33.42689147468869,-22.88733225483427,-18.823613214304494,-19.017750788753155,-11.174862919663429,-10.504379860102116,-18.729100925193503,-14.095901047527278,-4.792381565326631,-8.779385057595075,-10.753729619823714,-4.8178120078857445,-9.093955201730884,-16.156654440436903,-12.08583888305722,-14.294822787570782,-26.57747415054616,-27.047708736731813,-21.395104512969834,-24.75109543477945,-21.83859944512434,-10.149301923628428,-10.95178374262697,-16.565233761269848,-11.0393345989004,-10.606013068290848,-18.775326832789275,-14.500632783717467,-5.684799684114973,-8.683770523645547,-7.050803255611683,2.9400270444728056,-0.6951264275266049,-10.753953199230535,-9.64369131940051,-12.410163927600605,-22.995993374298333,-20.349296168057663,-12.262263791836945,-16.626770066340384,-18.032686884684857,-10.12299286763444,-11.15780300084957,-13.487070249642112,-1.7639581302639806,6.001104116916709,1.8663775730170187,4.29122083841286,8.498978025985616,2.398022015125228,4.300788621975953,18.937269322958777,21.867444090278234,14.058414474294487,10.688625876444583,0.6234897317160302,-15.186487206071025,-13.232243941479862,-2.4941621846325317,-5.110619792563705,-8.433484358430663,-5.581430120242199,-13.25848024948141,-22.221151015682842,-15.996221177337336,-11.876535609799847,-16.178085100064056,-8.890775192085476,3.226957258513956,3.2323946190011084,6.479401528924124,18.39965597298439,18.08653994938635,11.28009578689159,15.340485723117917,15.85521892186645,7.804991956766213,11.712592495539479,20.30225657548875,15.249120004487747,12.04848183332673,17.11479761261592,10.59858452389798,0.2557887867996773,4.349441812932863,7.271748149772231,2.3463249230213403,7.950934815226207,15.621069277896767,9.405110749176547,8.455819941992416,20.186959570269053,22.460665904915054,18.803602112284203,24.11205887494379,22.803763860000338,12.495429746189915,19.433631895772407,41.46664540642523,61.011018101343346,90.81330373850172,136.04456206028638,175.8930322275719,212.82368900106485,257.1456585730441,284.2797098353813,279.2730050272231,264.01996767484184,248.82028393015378,231.9004414740653,229.55515295251024,240.15167999868453,234.41148024011304,213.66452021819586,200.54440124591883,188.68082906725763,171.2708907764216,159.38474474074246,140.30313121803962,98.38294591572748,55.57745086447134,24.017399127234164,-14.536865735801697,-56.205639427629876,-86.63275259030577,-120.46579206158013,-160.19198338195872,-183.09647168631133,-197.41418168573995,-224.36518948619067,-249.22271323025228,-263.24936294869366,-284.40755108041037,-305.3836196226291,-308.909964319001,-312.0961188165144,-322.89105576086695,-320.7583925834026,-312.0731180530094,-316.8635621588392,-320.4239358371692,-312.5363232831743,-310.47629119451665,-308.6727436218828,-291.07476664137266,-275.7905143133779,-272.81919918019526,-261.22136559160543,-244.25205242080358,-239.85126028177834,-232.41622894101585,-212.43337132966974,-200.60945163548175,-194.19571336305262,-176.6340994720325,-163.17704204841806,-160.35856094557636,-145.09853107737575,-120.16714166375303,-105.46709656936427,-90.76021145470199,-69.98428233474898,-61.61290861259016,-58.91257948092179,-41.86574822499272,-24.775134275534754,-18.982585192292852,-7.283666346430989,7.418613155782124,9.869898883923677,15.22423861873825,30.903736539173217,35.44027911515165,32.06436235813318,40.95025552327425,51.03409588665198,53.33156055695835,64.24617018304244,77.60402421717741,75.53737741416714,74.79110080256419,87.35879119376527,93.84517753260208,94.90130462840779,105.8731107718033,112.20664944288615,106.38106669253966,110.42562365878199,122.38781793382407,123.40398256032381,125.1233638644552,135.3448763896568,135.53471426708813,130.1036985907512,136.82579023573214,141.40545724656576,134.07009792581934,133.55808598188415,137.41548070009338,129.98759068480496,127.32976853468982,138.74129603955237,142.173051654327,137.1246359958666,139.8876335902831,138.33737765132042,126.33159761161123,125.54563892742124,132.7242414484346,127.48709367848252,123.03480300913881,130.43531347320746,129.78080515357914,121.73061957372335,123.67475695448903,123.10601589500104,112.36161819458539,111.5678705726281,116.87384123218357,109.24155201308503,103.06505895027003,109.25743596421259,108.06293277033382,100.40604585534258,103.59780763478753,104.9432191017566,95.98658043148949,96.5474628828537,102.98246975434141,95.49735064583818,87.50868410254054,89.4412407306396,81.74293392788232,67.20591974252369,65.76466982934662,65.62755151105578,57.24971472687899,58.657746659446346,64.73706049007808,55.74292565970589,46.6833875605453,49.89087503777156,46.552815183761496,37.568794371926906,39.630137841313214,39.74389552542616,30.267349170010895,32.75162149228258,43.94685944491981,40.72018317675348,31.662713192801263,27.20012349068499,13.67918534876245,-0.9158486874976166,3.3153205967969925,10.16086192413458,4.204277469669945,1.2807340531018796,0.38843068642277506,-12.851010247267723,-22.414586982469487,-18.426438314717533,-21.762052970465177,-31.031273696688046,-27.653236947685414,-24.376602181779553,-31.26282064695414,-29.518151462538796,-22.311678259427755,-28.886733998408726,-35.1428042282529,-28.637286848318972,-28.109182515415966,-32.87190380158061,-25.16224210677225,-19.31389879868894,-28.41886660839184,-33.38072324466519,-33.25925126982457,-44.46358450529528,-52.62202499378391,-46.524344129033814,-47.68661372756275,-57.83365634817345,-58.12668846870075,-58.43404468049684,-67.74084300447629,-66.28031857788692,-55.39647729839627,-55.27293479555232,-55.54225322418438,-47.32014286993473,-50.96890362628643,-63.770782948314874,-62.50003027713905,-55.942310593126805,-56.294625934036674,-49.380395609152885,-39.6446755890904,-45.24510949826156,-50.75806343824804,-43.59328282145294,-44.89040044180777,-55.678312054421355,-55.93183953956964,-54.887417320529586,-61.237401144169404,-56.06953901661029,-43.24072552712725,-44.768757439576774,-48.852344327980276,-42.685650237250975,-43.99406346783999,-50.679717214354184,-43.08248361933467,-35.652808508543984,-42.86227503913614,-45.405380985955475,-41.17884610096299,-46.52984654669551,-48.37309588984968,-36.74304282712517,-33.77548221270115,-41.54656602195405,-41.03438683630921,-43.03356373158348,-58.573022845130325,-65.92868935662307,-60.817920177288215,-60.37787708311704,-54.24453006033337,-34.71296741307966,-26.450794549264593,-32.41664531692945,-30.87836014600029,-28.471734785722912,-34.18700890364118,-29.43526475010038,-16.785017076142275,-18.40619977121592,-23.117407803164483,-16.343959272141863,-15.310636775873302,-21.476035617767565,-17.01910731762468,-13.772595031274342,-23.54590680235086,-25.243131720459708,-16.785625158601025,-19.35377704126113,-23.691968069889246,-16.99002904415694,-16.92439710758069,-23.37305621604451,-16.191332407158775,-6.449872225679527,-8.296079259171735,-5.2010545965350055,2.7434846318385118,-3.4727589361773807,-11.378771314128226,-6.635448147955167,-7.84210408706646,-17.226963728588558,-16.117793682852128,-14.59058517010675,-23.13967342646752,-22.022447847395288,-11.877207205754004,-14.464795013557778,-19.445190291138374,-12.890614655923633,-11.959719012261797,-17.38021418246923,-10.785752266819319,-4.264420894360981,-10.508874429966113,-9.752383537724674,0.4765028371711093,1.5012464356184516,2.77893817498478,14.062053376938021,14.45612358470554,2.905990136417763,2.381854037142059,6.608834653183787,3.2802790483456934,7.974785431267606,19.25000229801731,16.270401593580278,10.196587050963602,15.957603169177986,15.858911812570636,7.7676533396768574,11.830843117921116,19.719688500771877,17.71216949750035,20.50139914554661,27.55809666926684,19.61544065476876,9.49464607199201,15.311079814261499,20.79289804306614,20.331720326480422,28.552224086686778,32.73616045672862,19.563401040124724,11.046101527569657,14.814096063581692,12.889035540060188,11.743250476131337,20.20428777212733,16.572086615656335,-0.957460733150862,-6.230813365164892,-1.7927813695401464,-0.38419647705679383,10.599082914159137,25.655791790219748,19.892099250080555,5.29977519896914,3.115002990185091,-0.038697106194721664,-7.320522171966444,-1.9605729704431176,3.6207774377113178,-5.415985068479731,-9.658560186080958,-5.327178180145141,-12.849056967377177,-22.2368289753346,-16.69364005579468,-12.472587087491661,-13.411841863791947,-2.6651710671705744,6.908952665156157,-0.9183556979355956,-7.253700344167839,-4.945446676434556,-9.668197377890454,-11.546800134801916,1.0389233579630925,6.404408728007839,-1.4840695939626372,-2.5076155018894704,-2.213939046898684,-11.016339583557295,-9.79797396891919,2.7191467864221774,3.5934200201364885,0.21779472108626274,6.680239055779351,5.232735225501201,-6.020464656694117,-4.095583152846819,3.784598997286196,2.3132199354772522,7.113494300550198,18.25984359038165,13.429994663071739,3.923079255116925,9.777790962473967,15.615769405111536,14.930354686007746,22.8073439668528,27.676682610983345,15.840841824916104,9.637426402942257,19.087983217397014,27.38438313744341,39.81765040991213,63.43661940246035,72.79151440673732,59.77422657545502,47.63212428913963,38.301308059286484,26.538772240514177,31.02964474633637,49.38943747958643,53.92157765513079,49.1041176018526,51.67331226059803,48.96956704656586,39.53875279691354,42.30235753688484,46.84749377259628,37.468202679605845,32.574820896512016,38.18718851017183,35.81455494755004,33.55763690646129,44.054389163661035,46.371934066043394,34.44310068770952,30.29445644158518,30.170290050856156,21.64780053106878,20.987372447183702,28.89021925161952,21.83741215351978,8.518895847608114,8.647062934294606,7.220521891023331,-1.453275122845894,2.0034478496096213,9.336305837452022,4.516404903023156,4.663939616374909,12.839295050026939,5.865952620247749,-8.279080448985486,-9.390183791073323,-10.473008125498804,-16.34944160575094,-9.476192156243021,-1.1714723402306602,-9.416752180227368,-15.108310647598678,-8.935595341472666,-9.30178215979722,-10.756467815659573,-1.1297743647124001,0.06401349711497173,-12.306271040299615,-14.90284737238697,-11.518834574773411,-17.772073909652182,-18.611422015413115,-9.840400893267454,-12.63915568471416,-20.976611436842084,-18.988586840388002,-22.38949453638933,-34.74431296216339,-33.237213773397855,-23.121639781764525,-21.96248073741997,-17.12761111599689,-5.694898555669118,-7.524066704312943,-14.20237764646377,-8.961279898194958,-8.595299080532815,-18.609515053826723,-18.152378505310512,-13.624159140864295,-20.81193509498369,-22.95941291336424,-14.776526132666014,-16.534024045230744,-21.01956896683382,-12.780169166861604,-10.603191700064556,-21.545774433882883,-23.310093829977497,-19.183652125068917,-24.04640923167981,-22.251836449541457,-10.018840822648592,-10.166618256858161,-16.869359395796746,-11.25934088909478,-7.0927927838949305,-10.786542802135305,-3.709564776214877,6.415514404470059,1.387108949971723,-3.0772874305451623,1.5876653718848721,-2.378597586168315,-8.874779292819909,-2.421206944745273,-0.20646223398223174,-9.995895908382009,-10.55002874806419,-4.557930275356545,-8.019513657788929,-7.258082533058868,1.8642248037030766,-2.665638918616286,-14.7188553629466,-14.323724592521634,-13.175285694890587,-15.529401986314124,-2.9407577527202906,13.398330109434282,10.906620050819049,3.148737451976557,1.4875544250596007,-5.591225474660218,-8.374230497276084,6.010458665357394,14.179521068126062,4.246048044291014,-2.826968371919152,-7.228863988625108,-19.648648381315507,-21.90996144164872,-9.839038316210008,-7.692043858808784,-12.206968221137931,-7.2975525213776535,-7.951800710549204,-18.122091653304025,-14.947863597325004,-4.613933419323317,-6.195633685382491,-4.769959250043383,6.251876225333427,5.855117567981741,-0.31719013478765845,5.822497752236953,8.799729856281775,1.2150361733117347,3.962216396545173,12.083369081665186,6.979788191764246,2.6870584487651374,6.308622088495304,-1.6646822743601,-13.855025519108947,-10.04293311399275,-4.886168805683971,-7.844373034006146,-1.799262952334547,6.654640000225913,2.155404456765805,3.174436483949636,17.568181789297295,22.68277030902439,19.650507318784538,23.06500105610617,18.908991045924633,4.572904199846631,5.269006996652059,17.272766331516653,20.22551457455434,25.169402603945073,36.19267748892813,31.702802824098335,18.109336440198284,15.894012105575047,12.240110781068548,1.122938655026822,3.6531492851108,13.71640318146671,10.280976498291874,5.336836662200866,6.433123848558358,-3.040945955252213,-13.801648536246047,-6.631902198044173,1.471111190406452,-1.7243338099695293,-0.420730688988884,0.6603689321969199,-12.097247238891018,-19.032536479008325,-8.93496132191536,-3.130876222367072,-2.9497401610595353,4.1788558639521725,1.9590713335874828,-14.538633273803903,-18.498500649567323,-10.790636657512056,-12.521459114899457,-13.462186638957405,-6.317383491179976,-9.676500111759788,-17.27254514817426,-9.8964629620889,-4.276596670509265,-12.21351542307099,-12.766977274469339,-6.449535417344783,-10.24293353526002,-11.001932463042763,-1.5257793026194735,-2.4819514982824495,-9.934063269221404,-4.514244747655523,0.35883542195739127,-5.723190904718573,-4.888979846999991,-0.5566632507009768,-9.29097027067586,-14.892893323084934,-6.650638466197041,-4.6527840859511205,-8.129822011418387,-1.716258292861089,0.4113109196328111,-8.22063385124304,-5.445799346308812,4.958279958110547,1.923133551644398,-2.7000639178791386,1.376456911877519,-1.9426898219445017,-7.3423878650316965,0.9321815937368463,4.506251289925261,-7.595177289333224,-12.268181636241211,-6.827788035173221,-7.44121395697539,-2.939120959626035,11.957658665073296,13.716010368729982,4.210303624652694,5.05684244739553,6.13116833736805,-1.357770040319458,2.2177969998628355,13.516562331875845,11.268151845549058,6.663423498524352,11.016943968370475,7.604556017743802,-0.19636222140882298,6.514777574006946,14.830403954826975,13.567824087790644,20.18729490437995,30.903117495691212,25.991719720045793,18.373411992856955,19.508642024506948,11.737543744552191,-1.6758100464816001,-0.7351443233696315,2.81826621994171,-1.676022848794143,3.295640239698497,13.547972338975077,9.062094000100297,3.7999039920099515,9.724159077648226,6.609403860182065,-4.984144285725995,-4.837343832878721,-2.637200927126152,-6.731633887931593,0.8815910923156949,13.752446887095372,9.64967211424533,2.7007351380578286,6.975602147700548,5.093226019961822,-1.2078416707775883,5.491445613933672,10.468077257566822,2.850235489477063,3.0557878903856,9.589027198435826,2.772254902205219,-5.053407487020692,-2.5486354168737977,-8.260756233632707,-20.442194907014994,-19.819821406263962,-18.852336420781555,-28.5322246882277,-28.607771353055128,-19.235574344562632,-20.16326814473681,-19.779314190804836,-6.770610567165718,-1.0984774334184557,-3.036072785980311,5.412189407106968,11.23640124359643,4.794600846676022,7.589414499517918,18.588926070011848,16.556497366195767,11.16515968719565,13.147621552665017,5.4143788616689745,-9.077207802080585,-9.946928951445571,-8.322129161617422,-15.639565747473002,-14.165377762469411,-5.586255425904796,-9.110608321915514,-12.484669916252749,-4.1714274272738905,-3.6731625214433263,-10.624751578316225,-5.5256859634384385,0.18458408903326107,-4.755875955703015,-2.3678642734623048,5.582075862594491,0.8119953717344175,-3.0138284210774384,5.437529529351282,4.922819393288554,-5.63555637270688,-5.948121777272808,-5.237096830216052,-13.211540305308937,-10.664852172517879,0.12312098619276046,-2.670462791344431,-7.8848962667332385,-3.0852343862787244,-6.19187352283299,-14.41547714655893,-6.788719733916084,3.0923265798954502,0.357724496674074,2.655096161996547,10.560847738098106,6.554833057470546,3.496232659401481,12.586131695863138,12.415739565760054,1.683069941615726,1.8407503079806862,4.785450844694866,0.2713821596581658,6.834145131688979,21.717955820140705,20.663968044637393,12.70634245398239,13.188167738558466,7.988170805457406,-1.2751577954145685,4.246443159334458,11.049320068344027,4.530185210756337,2.9331848188645515,7.463389524123604,0.031175562783139377,-6.966443097051813,-0.38860300854661034,1.6115426267128115,-2.5041785799498895,4.067336012703326,8.664875619035387,-0.04718954717774171,-1.359636681728462,6.022753143622575,2.4193334127969237,-1.3530368845695744,6.96659346163513,8.67207083452736,2.5084507461689696,6.574569128808482,9.295107141559777,-1.2028588749792242,-5.277153199944601,-0.1872762435855022,-3.25792342916863,-4.494271307177947,5.607728874716021,6.624953976456829,-2.626838986267868,-1.4958431614535763,1.6197730283670007,-4.578268669422972,-1.9872017757546865,9.10992119501544,8.2887105113518,6.625858978899273,17.16025253828651,20.169463279025443,13.400299705712264,16.866130405557332,20.760877109364213,12.091408749815661,9.969057637069788,17.309001743583714,14.64957393890846,11.108591311458063,18.23295433571236,16.373452718158397,3.8134474889829244,1.7329647910447017,2.1076836693392496,-7.5446242470761895,-9.580515895485345,-2.796889766696952,-7.467756800594644,-14.234972097344244,-9.967826007402584,-12.345135738347471,-21.960047694668962,-18.216598854431435,-11.893412492098964,-17.564331944934732,-16.590824057851048,-5.989143745160675,-5.033664713027596,-3.6154884693141787,11.703930376525065,25.133837344005922,39.86694197320693,77.17247891178786,123.97813050953422,163.07764172351148,205.9499051385285,245.42398707450542,256.5642480495897,248.09557688506644,236.00042726577067,211.4737224600549,183.5865852558864,175.7497713670922,173.51297581702946,157.26888363260315,143.6611407637514,136.15207769330817,114.53313363697654,87.43589105973766,68.64560207014098,40.478732319605264,2.674315668022029,-20.90221706935611,-39.161584865054564,-69.10842238192159,-93.84696901693691,-109.28512182338167,-134.15594103808155,-158.8309605068687,-169.82454887064745,-186.4810682837803,-212.68717034159917,-227.6432016082597,-238.3616343069403,-256.72548291612975,-263.5310310131667,-257.53906681382693,-262.3958564865201,-270.46449109793366,-266.4441960313417,-266.7596002180287,-272.8158839803462,-263.5001075947266,-248.86934006241438,-245.20424658820144,-236.13484328091005,-219.93238494119817,-217.27973218440994,-217.77482771595905,-204.57515277838894,-193.69966958194001,-188.25270713622754,-169.93480895397948,-149.49722770031312,-142.4653966729838,-132.13039281799382,-115.1069285925677,-110.03789267256394,-107.19922933965046,-91.41759020068189,-79.54678566829737,-75.20151196376537,-59.18111011672619,-40.814430534549906,-35.733667696941744,-27.465043100890355,-12.024093183999328,-7.937067182258282,-5.980182527224136,8.46326680863435,17.468794505716282,16.71920682872868,27.40786422322498,43.04042555313438,47.79810421065665,56.81729401219558,73.26409330697072,76.42395028975949,74.24136919313314,83.13703422099277,87.07915389426131,82.16856035602349,89.0181387806081,99.49819091527688,96.71499415424138,96.56638933242273,104.39382903016514,102.3248462587206,99.07247876797912,108.53295846670903,111.73093825576329,103.59063857704919,105.56216467429623,111.62482249240915,107.12439012034557,108.99312581523841,120.34775631606189,119.12495724883942,112.77906153838401,117.47555753208295,116.7645540858986,107.23956851432479,110.67488727152156,119.07779353714267,114.5382438876416,112.6487011579078,118.35649763336502,111.75941687866575,102.23953996906623,108.31566397801785,112.48716469693103,106.44171245408256,108.84394618992393,112.85953972472424,103.81132651010118,100.0781733382974,107.4932574927349,104.04887065848787,95.18354471504048,98.30464194479428,98.11309644726553,87.1957943613882,83.86210922361697,82.32155954933546,69.28545511488713,63.636354399043455,71.27576529263044,69.49467674627078,61.64827725532475,63.27514198014168,60.38539302068956,49.184130960857885,49.75505088091748,54.548536872602554,46.92292849010638,44.75385134303066,56.00169175532759,59.47946631306413,58.09936806596888,64.92532968798865,61.62115217718984,42.96962041234816,34.28618757221126,34.48842661267669,27.292777062177045,25.807958666144977,34.315656161499305,31.4936828748058,22.510812039726922,24.541763811656235,22.042201033876403,7.23811669003732,0.24405248275952054,-2.041830953881955,-13.273816560761668,-16.459502088827207,-6.30825938634477,-5.439994389178275,-9.668885571920898,-2.974929652384845,-1.1257457832680888,-9.445483314321926,-6.354904376603963,2.243498942944289,-1.61870196903177,-2.754798070813652,4.636261365431295,-1.1880997872880132,-14.022378845946156,-14.294389868326093,-16.13959770310365,-26.599059342509165,-25.75759499353086,-20.240613501542924,-29.072515500913322,-36.15330427773048,-32.1337079189976,-36.43602674435315,-43.72604625752946,-38.11729857404883,-37.7805883010985,-49.25595220716174,-48.31226172778151,-38.10898626521619,-36.73959961638944,-31.678181445280757,-19.860385758954706,-23.09968436937535,-33.77635859083581,-31.62542446644102,-31.010315849045707,-40.06411863924467,-39.68866250132223,-35.12868341356075,-43.129722708854686,-47.61911177793225,-40.28811733791121,-40.78917456913078,-44.7982396748115,-36.259559650864944,-31.654037971335548,-39.38065263367971,-38.74551351835618,-32.86444250082701,-37.69274978207494,-38.19845936185639,-28.50175660375936,-30.01459201038503,-37.47451221146661,-31.929555096732635,-27.577832146142377,-33.704611691038096,-32.83447606806921,-29.520036546548095,-38.10858205550487,-40.78012305880381,-29.57007111905735,-27.205266188058943,-32.71324757915227,-29.109197196134055,-28.84141549808934,-38.65036944882634,-39.15307638604151,-35.16715396540458,-43.34015190754179,-46.98566723882863,-37.73075493049331,-37.5869250921422,-44.122703856698635,-39.90563485425385,-38.71779682950154,-47.68892005965482,-46.826327355019544,-40.91127698548458,-46.75391875051414,-47.24369350422727,-33.63663688258043,-29.45773354037541,-35.05390950162779,-33.52742195332366,-36.42836494268348,-48.27023659736449,-46.033462798638624,-32.7081640425134,-29.230516645630793,-25.771416578070923,-15.874431888609326,-19.389960784874496,-31.564352915531536,-31.73238898306306,-30.82757410732046,-36.88584353693696,-31.397690541474603,-18.508211885872463,-17.20212018733589,-15.765397403809292,-7.383778693053809,-12.06552125663131,-24.548210147417763,-23.867116196747908,-21.357132900942723,-25.042661816260562,-17.223590067653024,-4.311141513698735,-6.209259778576911,-9.59709858819108,-4.062587174658988,-5.986769981473381,-10.214228156368872,0.1469663724482002,7.921256199836162,0.45213255243000017,-2.799818616706263,-1.1741344246218197,-9.31830871291033,-12.610056639297166,-2.7339232528278252,-1.3732016440012362,-7.648596131094738,-3.7957908927620103,-2.178641650223084,-10.739910986748418,-9.526730886525545,-1.679656498999998,-6.2221454770565305,-11.041220226523286,-6.9340403113170055,-11.548024295757587,-19.812557998999075,-12.515571227518869,-4.208313705947563,-6.243092574391574,-0.4722406377133832,9.061479097644389,3.0596731041447467,-3.829223723405173,0.7729659480950959,-1.428085029653854,-8.691877711181077,-3.9758729338013556,-1.3436446542313636,-9.74534645256847,-7.340937118353889,5.343871413819909,8.283992553257512,10.49536110774547,19.538780029762403,17.055366661392952,8.06979817469524,13.284490444189267,19.14065564103148,13.321482096565973,13.867385737756184,19.40623415382503,14.021931855319274,12.890139840674628,24.71666909596867,25.953931564737502,15.984963840158823,14.775975335486311,12.95800879191946,3.4802967635863267,7.330257386784946,21.75828341230628,25.26032035944803,27.572530365061265,36.5023291059292,32.25621833722879,20.064731715035858,23.556818056736617,31.53247784251048,30.56087456543248,35.09290720772843,40.826741484180204,30.922757132128293,22.253613813043252,27.452829035534112,25.60626336514727,15.50678865952112,15.55674911778122,15.256538164160464,6.3283213618491,9.295022242873895,22.216446479439146,24.159152308911946,25.08171238961942,33.89366340932056,30.982850241341986,18.711313670979216,18.08386130819494,18.823329156887475,11.443353665541451,15.960188921744063,29.69300347423528,29.682036785071496,25.89168437134282,29.13431960286868,20.473427327084238,3.836498362154142,2.9010312264293887,6.531012616647511,0.5180118766436443,1.0081332431982124,6.468837929852649,-0.5388821076236479,-4.377921834359629,8.394589357802166,15.419434048506192,11.46132187694101,13.254258775561425,11.567899455065785,0.2698286305209505,2.059291343374452,15.236840955366485,16.103245953334252,12.680463438980954,15.786262072714784,9.291348924857965,-2.053895682095358,2.160379361299719,7.4942920366432775,-0.3577037901689364,-2.839154230310551,1.547121815227025,-4.099385751818754,-7.820545883747497,0.8970270240049176,2.327354287795953,-3.1982848457931237,4.5469546389746665,13.539458800301844,9.259801236345648,9.370821831537228,15.010814587152248,7.867900459091422,0.5509015942222604,6.192816101601128,5.141302584580631,-4.052924610247356,-2.3830495526839006,-1.293608670674867,-11.681364578413918,-12.307080873234904,-2.22826223099708,-2.5727521760213135,-4.003242972357055,4.092179861162421,1.8212141736740142,-9.254362793812147,-5.817844954391116,2.0934697402652818,0.8336256187172122,6.951527966413779,16.977706891410957,8.638966996965287,-4.236882859825524,-3.2248233683867817,-3.608517300976716,-6.916722157978657,2.723199532777508,9.362954428072742,-1.9295626065390703,-8.789224043402497,-4.864881228170729,-7.975786587903597,-8.522784853211752,3.742126925019429,7.420693410534908,0.9784295480455016,5.506397951666746,10.884465723349207,4.097115039212312,3.9691818372157237,11.979906847293307,8.848951259594516,5.070198500153399,12.38715140983107,11.49180531235838,1.816938802207693,3.8931479071513984,7.0037784281644075,-2.561870985503528,-6.652062335820104,-3.2698435489038777,-10.082880133727496,-14.462972286524856,-3.535814699573945,0.9935490714326239,-5.42019483989697,-3.0182150276960398,-0.12537268683314418,-7.850279060290896,-6.3478936275571805,5.448325384725695,4.881203990555081,0.1877629220104311,5.808918575846656,4.693759042603601,-4.52155930751246,-0.8607663352135884,4.845475918407416,-3.9828369842499813,-9.051022536122197,-5.2977460187715515,-10.893669735901227,-15.513881344145014,-6.186039168145559,-4.2052402616238265,-14.226562014650966,-14.466575790723699,-10.87900084541225,-16.350151136307353,-14.622672469267453,-5.380688276090306,-9.758730989914767,-16.504086340768552,-7.493681710931861,0.1817202344565758,-0.43678163286312666,5.997094046111661,9.584045069846152,-0.5271019004168762,-3.297421252055087,4.0569555779820465,-0.31747710892215775,-7.9960327542579765,-2.868596627684145,-0.25016128844714836,-4.267117537035505,0.5043570602761487,2.789572716827703,-8.46778294909354,-10.514429413032937,1.7619883541764443,6.263138098992391,7.383446013103512,16.35987156744842,16.114529581940857,5.030022274271931,3.908284782256888,5.72764665831872,-2.368362906508176,-2.6691732302282127,7.929351359504884,7.787727271133383,3.068257153756834,8.052291016849926,6.6551208522930025,-3.7023474818579714,-2.6899397972035253,0.7733149494932803,-8.995728782539933,-14.767304421241368,-11.623244107502218,-17.725018245794782,-23.247122736156587,-13.338641344475494,-7.437268716563277,-12.490482028533565,-10.160021073829562,-7.980086356046572,-17.85132074772469,-19.123088183939885,-7.6618890466717815,-6.508621466601234,-9.931069776103845,-3.27334799229744,-2.3179188987081503,-8.453304342916413,-0.9745663706502574,9.061544429704234,3.876295767971446,0.4866156478754395,4.192604098840311,-3.0471810050071086,-11.019971329267124,-4.180536407702604,-1.396903529388426,-8.936086542574303,-7.7308206040405025,-5.37606486870882,-14.576025760117579,-15.212189563032792,-3.093281703807688,-1.2093535818846983,-4.431523398140326,1.125884532030485,-0.13127733140310993,-8.615318729028228,-1.9581409518190624,10.65725531962648,10.674514675174917,11.719324051493263,17.413682791314837,10.76867856043394,3.282986334206066,11.067715372235808,14.651837902045754,6.497588840547487,6.399207249452608,8.492527261273464,-0.8760996180540204,-3.6985465604004992,3.9489869223857403,0.08964184707212564,-7.6554994121977185,-2.7684876216326004,-3.2679022638574775,-14.603799059523496,-14.262822899301346,-7.925479089697083,-11.756363340050024,-10.283628933282014,-0.5675730672226527,-4.065986053149679,-12.12664751789498,-6.685944541582733,-4.633241793042143,-13.19795248954891,-12.417915405396375,-6.903741144325741,-10.348463037914406,-6.67711096802462,6.929338662346829,7.3225356605660785,-0.040664013484842165,2.231152118761104,-0.7783898355232026,-14.034200904395963,-15.839328718146175,-11.510916111673207,-16.58610921946614,-14.213994819462663,-0.11076318786918193,2.243288797308114,-2.6384193020018167,1.68107530111324,0.7553682236826393,-8.108403779939362,-2.2441444076240766,10.608399193582434,9.435165046505812,6.8066224235450585,9.472052782667566,1.2739822384742068,-7.470849700282367,0.7824921551160617,7.312170643706006,2.7999065703768107,7.020552650060118,14.680568872257455,9.57862033106429,8.003850056316193,16.42758009096251,14.592340421956298,8.61109517404989,15.299334541610229,18.09930826665284,8.936197602960005,7.795480647207662,11.193600051025447,4.303488544047913,2.3464987821579775,10.425340252348859,7.155037148536251,-2.0941174546337953,0.6256468670210102,0.9688206190652354,-7.790827671276761,-6.812861100294543,-2.116283959374964,-8.430708970456774,-8.654165062592115,2.637081285271364,3.3959748984520965,-2.418608614570679,2.068944804684453,3.958681514161677,-1.9550466363377703,3.050458115272904,11.550634993848737,5.824531175857991,2.715214987476017,11.60226555973607,12.465919542602677,8.159344511830648,13.319444919794948,11.726274156680738,-1.4322021373748965,-2.120539646069508,4.9898317474133105,0.41169612060960636,-1.864499499372146,4.556959615571472,-0.8282127334662195,-10.793810657666063,-5.383730959954917,0.2195278454000411,-3.381496981500285,1.418601545174881,7.730236457597262,-0.8932526670025389,-5.14913554178852,5.819454258757865,10.29558864853184,8.053636441426871,13.45154166573403,12.454376240283988,0.5075286519398468,0.12516825585029223,6.4806161391746695,0.8000498495021597,-2.334308768856702,4.752275493017563,1.8270340132268172,-6.9997777829629655,-5.498064074842632,-8.158284641287116,-19.88299102076621,-19.191004606289045,-10.900552984651508,-12.577020835953011,-10.738376257030895,-0.19708740133746439,-2.685512528740519,-13.125698618311885,-11.144811078261974,-9.229680216881626,-15.46085839820945,-11.21567048769472,-2.0807345059133127,-5.688783635778165,-5.442076652949357,8.148820947828206,13.093723979660934,10.21243215752315,16.314367675310997,17.872473988748084,7.245458947517827,5.557941449568109,10.963412935013421,5.714793778190222,2.2271550088785794,7.725733023889194,2.3215292927451503,-9.41715273252195,-8.057310932163999,-6.5025658115087115,-13.584876312054403,-10.680464834018368,-1.5351029820672442,-3.103673037338904,-1.5555425040460158,9.707397756512238,9.535850107160948,2.566462552094604,8.847196993570014,14.763299533693589,10.191704565678442,13.31639939336175,19.775356577437318,12.340970293700824,7.424866788927135,15.385728221458336,15.162057209677542,7.422979212896157,9.2889158789495,8.27487185697575,-2.8525861310295073,-2.956242142673793,5.417776952282661,2.6018650807235293,0.3881630271149517,7.7714371757064695,5.274982957522106,-4.246103785581819,-2.0010057672431407,-1.3065683874120582,-11.778613344133046,-13.062162560234018,-6.484734694761945,-9.353795048336016,-8.299977655810693,3.621734213460159,2.716945181499509,-9.836152857660478,-12.782964611962594,-14.7923938526368,-22.2753784265873,-15.847563016205306,-1.0090647706343567,0.4449348189310314,0.5841259291742213,9.799414548729303,8.251795250734816,-2.222921526230054,-1.2361228742093537,0.587053524140777,-5.653340883058412,-1.0099441789611587,9.542196374846599,4.300354887073489,-3.136667173281239,0.8204172900991802,-0.5455335725688804,-4.462672675781554,5.942442385626832,13.82685108770964,7.143839545620098,7.239307876354065,13.803383682750612,8.252006163472853,4.138281245521817,11.790816481563319,10.419556972665038,1.161048781952625,2.690616879864499,1.6961523436911843,-11.157869072808971,-12.870589238918207,-2.580271558971494,-1.0140014814005502,-0.1253773951363105,8.75502824507032,9.763089177151498,10.552253542950632,34.59134984410337,69.58053843972712,101.11235295083473,144.76929375692401,196.70311166401,232.63383529154154,256.4983175185846,272.8881148171451,263.0607602647192,235.90883654003932,220.13936485090466,208.282103680661,187.8144721953363,174.43136501593858,165.20600283028784,140.08469130536832,109.97086056525191,85.49226882920314,49.565924934475014,7.374345443498775,-17.941657874169522,-36.93078314303713,-62.91882577515642,-80.89397053973411,-94.3163228221706,-122.33314798682262,-151.08435150800995,-166.46349584312244,-185.35335339076528,-206.23274274642344,-210.36777684199126,-212.00672348067744,-226.03568226846028,-235.33598012106853,-239.36719217607367,-253.9404878287636,-263.7983913113756,-256.7198095163078,-254.05750059481284,-258.7128709424728,-253.62686573996672,-249.35674112299927,-254.2401368978653,-248.10698731021,-232.70835096318496,-228.72319453291183,-224.43987782428263,-207.21300241730768,-195.07121311130896,-187.37265122787034,-166.27001119469477,-146.69678196635687,-142.17606853690967,-131.72830495852557,-112.28008449703616,-102.10947817503647,-90.63444649608512,-67.88911605888397,-55.5668882573949,-55.11198128077165,-45.72917490045168,-36.306950490184235,-36.51422705648475,-26.68221017309598,-8.21992039688548,-2.8188945453878955,-1.110638414455031,8.49391019615992,9.496043904512339,4.788769172517244,14.838843242795553,27.49852926756993,29.50404338111963,38.95111277187883,55.0422132469727,57.352745927151176,57.48433186189869,68.25873898614904,70.78753295507052,65.21165295205523,72.97425699274342,84.2049272497265,85.04201974459393,92.19675818136365,104.75780587383423,100.47304545005247,89.95659766606232,90.57367474267483,87.91365119601888,81.72153115637875,91.45024304042414,104.14160664304632,101.92629362924981,101.629640172332,107.78793756539545,103.46872677577417,99.21405260978214,107.25615425700926,108.47691633333878,101.8820306936951,108.73817895410801,119.29299034917906,117.90455560562559,119.10090381643451,123.98648953302919,115.56726402767119,106.05887362894786,109.69940610262867,108.2976298717796,98.50496248241984,99.10492704099313,101.14147563086841,91.6252485227926,87.86157753752684,91.87083133107899,84.79309121495066,76.7029579819305,81.72342216805501,82.73460727147393,76.62600270170088,81.6953847782335,88.24951566336415,82.43754672351967,81.92518077089893,89.22006959923701,83.63321210419008,73.87572674641734,75.30479318679753,71.14339951050879,57.98543605380206,55.84744933615669,56.969099607625814,48.20126331033008,47.36890414743448,56.84704141218138,55.23418180374455,48.85519608694462,50.09172340499431,43.02722067992704,28.041808512944534,26.53607987856971,30.119206813356058,24.70264061847918,25.50470198728058,32.35474644948977,25.31194789077859,15.343423773208325,17.770748476903076,15.808064533067698,7.423472682415246,11.561297987427,16.348523067713323,5.783500792641498,-0.4422705067443483,3.927978692029513,-1.1527460059824146,-8.823302442192725,-5.692896087795884,-9.236738349154521,-20.761915909018253,-17.47834414104677,-9.031353663798459,-14.580220172022425,-18.82753147768122,-15.526569290372326,-21.03463715579386,-26.799788852503585,-20.938324572910844,-22.41871295437711,-33.39861004950169,-30.524654724234857,-20.347129978228715,-19.886536940107355,-16.518689812656376,-9.706757854719118,-18.27702317340689,-29.790676818117873,-27.314379337893982,-28.462615186203816,-36.97003672592554,-33.17254025379575,-27.285422813671975,-35.71867857837381,-40.94294056797591,-37.52032549419447,-43.56472727561136,-50.00539096160506,-43.252613294481165,-42.816140395485846,-52.69726102457978,-50.28695596240725,-41.835633135781045,-43.024470050524876,-39.21678251031169,-28.59685214601692,-31.19792320937234,-37.28966289150602,-30.6740727948845,-29.30978053767084,-38.19041596559715,-35.22377633454464,-26.24796135325365,-27.904707746419625,-26.23214797530634,-19.597932564909513,-29.833322964476565,-46.81910499375513,-48.484309569272504,-47.88812231903019,-52.575136851488395,-46.37457832691545,-37.773284315016966,-42.38790141999692,-42.98510230734611,-33.75989425514656,-35.70341531917974,-43.165977929963944,-39.23827618523439,-37.52348350085455,-42.19955122129874,-34.93232240995869,-25.13129872812941,-29.507850220255463,-30.36779693809035,-21.128685302146014,-22.499891627558185,-29.17861587165438,-25.911701961809765,-28.15189645304057,-39.69213276468324,-39.59142631733751,-34.7753127202483,-41.42995089040547,-42.381399507831006,-30.858144774912724,-27.8535795251483,-30.103729811821744,-24.220586592686054,-26.119055003772594,-38.481161162555644,-37.31439702415753,-27.34664522997473,-26.68713773886057,-22.635936932428937,-11.401415433237435,-13.801925815093474,-23.309318554076516,-21.300796221065443,-20.99452586836907,-27.717376986013157,-21.91718921625882,-11.570796415818679,-16.031036465509395,-19.925881778661616,-15.19809443678907,-20.58853202785675,-28.828619751436186,-22.442147776488532,-17.96626668438452,-22.5086251243749,-16.222797677308733,-6.328203707708353,-10.895145251531758,-13.40503878649902,-4.814277440079827,-4.096242659532686,-6.938753971128191,1.7130965263537337,4.71407924223027,-5.452762811435253,-6.060862105371308,1.03001341610294,-1.3854572340079718,-0.9936824519817694,6.430430802165035,-0.027608021459438525,-13.186618108905384,-12.792200166164172,-12.03342401048074,-17.549517911947053,-10.475109202935545,2.2652311369880453,2.2325922986182487,2.7357850876195,9.900666182957671,5.527809421637455,-2.6776830055152003,3.782204843062139,9.501904722047238,5.6753160342242674,10.825697620837273,19.67780738452583,15.589915924152232,13.701884481909273,20.71334557552684,16.42436062189463,6.7683450111301,10.109845729512218,11.214603826137315,2.020973445806465,2.3059916685408806,7.323219732767107,0.722062994098529,-0.9932466301266561,10.270949481516237,13.358032624695252,11.10860088110933,19.633934021431518,23.567354413895014,16.142960806952736,19.689126048900896,31.01948187385609,31.370087606909962,32.70824706367547,40.202131121933,32.60976171866089,16.505770384340707,14.366015653926368,14.140031586579552,6.865054278334824,10.793462480277178,19.17436771234344,11.910970585248563,5.408546217118328,12.079897226012625,12.769381939466415,10.048474698238454,20.895467041537337,28.943299572462525,23.423826583879126,24.44126707158376,29.487704441997785,21.417792112305836,16.14026433201964,24.22297839190749,25.38461928725176,20.17702103200947,23.720116853073993,21.9717309290724,8.767884974447313,6.619507212564241,12.859622540936359,8.075956215412003,4.683677563996816,11.408538298453204,9.152685075631386,1.5046531463331896,5.686642895413261,6.102518998673949,-5.967218944881786,-7.102390927308768,2.7652298624765987,5.379844260005919,11.478541593641804,25.49842816837277,24.41249467773382,11.461380804178411,8.397639201996716,6.58913158258762,-0.21787214131847898,7.000995024856813,22.08630948608011,21.952451355688673,16.578599313440556,16.454070018839765,6.615805074743159,-5.644497093981615,-0.34146615561963234,6.413877423767989,1.132556933005815,1.9634043864772834,6.805461620560354,-1.1543613348053543,-6.445563089286963,1.3555082396147093,2.3153329782248653,-1.1049792858720024,8.92444157654875,16.741648657016647,10.007128315655116,8.102234717701522,11.388042654442554,4.7855188891868075,3.1411026737949914,14.815429204731302,16.16688366111968,6.366122711801321,4.4435491436021195,0.01686736960733448,-13.281153859689063,-13.13545082570019,-2.1420168070183703,-1.7101516024022554,-1.9307973074015927,4.591344315563931,-1.1635867593995735,-13.408376147671582,-11.259932953711955,-8.160314513331784,-15.104040298170354,-13.110501993701721,-3.756587165403709,-5.202352219176326,-5.255159374029002,5.295212674095268,6.427191137771028,0.011503019389652813,5.027922207270637,7.232512990391756,-5.413153871893406,-11.452274854406214,-8.582230888032392,-13.744826960699276,-14.800240072705984,-3.3790663208530196,-1.313421710212073,-8.196721290395466,-5.2074081261618375,-4.348011876773473,-14.481708746574343,-14.094504545481545,-3.947555383785388,-3.9156348589695695,-3.2188845287923122,6.98816895707178,6.703120698931819,-1.8377606467138814,1.1769518053680428,3.4424063005742473,-5.043682179385001,-2.9470422850121234,9.000965505528736,8.864709514253509,6.0901030590105645,11.811860542442393,8.108444697778577,-2.932158863833691,-0.9778087590194369,2.426101434847102,-3.670219504007077,1.2674795416825693,17.264504767374465,21.899966341012927,21.26098611998038,24.588822636841204,16.670592398149857,3.2766189375327883,6.143172296406541,12.63852953566459,7.978872477507848,8.637001232520461,14.811511272628396,9.217080471267879,4.4447563040217295,11.830826307359388,11.603353374838317,3.7322506196246765,7.178858657190503,9.205025039298246,-1.3224947433117187,-2.804684745785268,5.697846630302757,3.9442711645115276,2.035673928059618,10.170441284168124,8.67696662479314,-1.1168279337711713,2.62683659057336,9.430036636332286,5.570114904271505,7.408680262510293,13.295715266257524,3.4989443773445537,-8.80027172078725,-8.726109901457477,-13.226436369006835,-22.11290649722862,-16.527700385579294,-8.490099054031955,-11.520458927461751,-8.741290802042423,0.4057383642031076,-1.0526847969497437,-1.2948981683501963,10.226442311441353,12.477635291689449,2.7336263049571174,1.3475958596299276,1.8869124566266602,-5.041421123553052,-2.3382604675711174,7.170202225509483,1.8093701216979845,-7.968047339199955,-8.135940382522477,-13.770421147907971,-23.187321820577555,-17.289046690712972,-8.865755039312877,-13.29182395201101,-13.684382628185304,-7.639447247423831,-12.212860222604869,-16.055494472474717,-7.479887667278496,-6.77567279917201,-16.12490556856815,-14.497842251193077,-9.763240018262303,-13.900079629013803,-9.210975563152356,3.972433236845646,3.555029105833951,-1.8062798627484804,0.9953949372118784,-4.424758006659068,-16.60757836878401,-14.579762078802386,-9.717117904964518,-16.76152468548219,-18.016849416118703,-11.928140398129276,-17.64318899932302,-23.56419673885818,-15.805779382845802,-13.46772317487981,-19.058168091619304,-13.1236457116608,-6.0508649415496665,-11.593739580737328,-11.356730709439411,-2.9830919445786854,-6.31615834346905,-11.172197878920855,-3.087606086527709,-0.5652190815146079,-7.487811488127107,-4.742790121217233,-1.083135899740942,-8.56509131424335,-7.453127236542133,4.708779812129697,5.681895676058682,2.237007068778106,7.603712289942348,5.1796226233854465,-5.769144703832406,-3.47072066423774,3.7207067575913255,-0.0956187992437374,0.1617792886875219,7.181259601749277,2.201419741022553,-5.059132529046114,0.2356763444861696,0.0076599617522230545,-9.718190660854784,-7.630004086857676,-0.30059041355227967,-2.288391768715722,1.3868101242730548,10.689972210248603,4.14502205658672,-6.957816409046378,-3.5451422466880316,-1.3760351589429185,-5.5555595958106965,1.356939713304842,8.4862226091859,0.8340993431389006,-1.8185089933717498,6.3883568389629755,5.6661884744170425,3.3964978865217854,12.795297974197931,14.673138920257184,4.0780043743661505,1.9078871877105315,2.7019598104121187,-5.195949549529649,-3.278908739874899,10.220926342685601,11.804654951551077,7.476372094430989,11.974940107667093,10.344834555546882,1.031787537135922,3.141055302673875,6.635779918451918,-3.2897409492825918,-8.690356728396647,-4.153390058235315,-7.8759948719596355,-11.80336468345499,-1.807367004774589,3.8937865369661013,-1.1784444636776317,1.8277838478561874,6.5437802234236,-0.20859155969875953,-1.1512082667489127,6.4037474620195685,1.0545143127369494,-8.225577612561013,-3.570444591615319,-0.23169635355531237,-3.349455487644203,3.5276529055338566,9.779073574669855,1.5870179521597159,-1.5814269909749785,4.833266895127809,0.371132387813772,-6.616108818614273,0.052869877065282456,3.41730407209982,-2.2024515047980113,1.8532090572777773,6.8921750869651,-2.086878691967053,-5.984731377386124,1.629239599748276,1.095927278356923,-0.38323284912698563,10.983144925570913,15.884119049374323,8.39011517018732,9.596098718173753,14.073810398942868,7.5433406876596,6.639817083596627,15.297515215562212,12.881739859728945,7.319213303380793,14.83716873973454,17.84859007404441,10.250816818925372,12.260574276609862,17.0505323109399,8.690430906995715,3.310700189822069,6.59152816366342,0.5860463296748764,-6.218210247837333,1.5792031625960292,6.384823438494086,0.9919984476976262,3.600502253131899,7.695437096201426,-0.28619674651482097,-1.9007354458361263,8.356947275180504,8.172999674650576,1.2247829688184269,2.2521811419590083,-3.0794023962394457,-15.861779305707227,-12.624799189271993,-1.9475461031857453,-5.024047010352132,-7.93221516636708,-3.1441389398155426,-7.333791087334046,-12.306358123851101,-3.248352157754678,0.9220964937871364,-7.7589952666686575,-9.141082912485167,-7.4572928238783,-16.771828414317056,-19.701921574920735,-9.781211277228318,-7.873219138887796,-9.908162313086297,-2.160666211614903,-1.3880600879617304,-11.472539396569143,-9.27849052905538,0.5065212525652063,0.3816076659635115,3.5770166231795892,14.168442776258235,11.760484011486923,3.6087273471001464,7.756019669816345,9.022665941639339,0.8990550716593297,3.2186078877871953,10.048199593239971,5.277102847802291,5.080134999131401,14.528482970858937,11.54212970177187,2.3659864224533607,5.969990418828251,8.482025191105485,4.0181090751718065,11.320204994328586,21.54381719472352,15.964884094671671,11.086641567678857,15.195337487390756,8.027800624423211,-4.836857520251424,-3.913727674871378,-2.2147190033151336,-6.453882312613322,1.2902904713219647,11.287781760015124,3.50279713341532,-5.297812768232678,-4.173922251909756,-10.05823224145762,-17.190389642202476,-9.925695266658908,-5.079170258577888,-10.49332645589377,-5.677210878228579,4.081944707820301,-0.5254810677270356,-5.494514997397997,-2.1286530862519766,-8.573200740249035,-18.229500115863523,-13.220518711469417,-10.264736520320552,-18.438841248185238,-16.790113570186126,-8.487849548146999,-10.633088818255642,-9.26027380258962,1.1054846133447045,-1.0021668771145777,-9.855196549131737,-6.497923319605905,-5.135359552372332,-12.48765711851335,-8.400621561189794,1.6365171334940016,1.14749910744463,6.472757463193891,23.040514631590266,26.0396260216552,16.881699199217024,13.21433036810986,3.839606408712461,-13.512024016399012,-15.32126592749259,-7.225419863085361,-10.172235592048995,-10.527700586182537,0.5280905421697097,2.5235785499772936,-2.037405302575367,3.3824046770901393,4.290978519304797,-5.869572045570347,-4.5606298031145105,5.1680517713008705,3.7402937227560713,3.109225855276464,10.493872708729636,6.6193941367401905,-2.7958525252111555,1.4860374453702199,4.967005183876319,-1.668082357007692,0.8628433041532451,7.639440948476895,-0.342038210105998,-8.433572545794323,-7.046549321683439,-14.65755015342266,-24.74077469687742,-17.09205836638646,-7.50776673274672,-8.659795707129144,-3.8685696364033144,1.854014828222146,-7.222233404399242,-11.47682156431031,0.12647862292455958,3.8318223513497003,-2.48742753996664,-2.7378247165109735,-7.218333083531488,-18.35839735915316,-13.970813842386498,-2.0206122818806795,-6.3638526531468145,-12.913779807624353,-7.781392488871408,-6.908886672389395,-7.665174314997834,3.531038142295947,8.890148877270134,1.5208873089695536,7.618815538846176,26.787195834997384,38.62591169040549,55.921162003300026,89.50464109741121,120.7296127972127,153.2844835326566,203.5222156966915,247.7666525426672,265.6894026003764,274.709110396888,274.5714800234098,252.6410191503453,231.36205942979728,224.1466527010131,208.2829600286295,183.7751779119584,169.3901899574443,152.78331599167902,126.83016025268162,113.614456355392,108.28185907145155,87.67433816222486,63.59144035065917,47.072600639355414,20.196811825978248,-12.92619981056226,-32.9414822703856,-54.926176562520396,-90.06292239330163,-114.85180876361221,-126.53528532552878,-144.39368749988105,-160.50732369090989,-170.10522195416544,-194.42323800996525,-227.56068215443213,-244.60896210222825,-255.071569700821,-270.2940612585744,-274.20311068127654,-270.75920368459657,-278.5580680047917,-284.06095758086735,-276.98210654531437,-276.9976944115701,-282.2656188962445,-274.4673429616102,-267.31089115902233,-271.7108554138914,-268.09767089122647,-256.5851660642196,-253.0310224217979,-243.0333639958084,-217.65979429971608,-200.34088316256097,-193.432433587101,-178.6921870180615,-165.66004706172896,-162.05709799741214,-148.5528876662559,-127.78476135980436,-118.57551095288923,-107.60439930288781,-84.9218708835939,-72.86278670868458,-72.79517626610526,-64.94280571390733,-57.72877926516777,-57.71603087392755,-43.88118154178487,-19.869415157852213,-8.616388296749525,1.2905151147978073,21.207592376180887,30.081886348635837,27.919292608061422,35.51832121940688,42.288083820655935,38.881968205952646,46.67879836469947,64.20053215869484,69.8483713194737,73.98770045266514,86.68756666943204,88.70151216199832,81.96138610457679,86.96608199165094,93.30919712078824,91.0179519541868,98.83750679782727,114.23043825810927,116.1717216079675,115.51418765956149,123.31605390764685,121.32819738368734,112.23578039420855,116.86172930245833,123.36792075361565,119.71378057734444,123.99301535009819,134.3410583064705,131.3628843499294,127.8153386927198,134.7826087035841,131.11984342170632,116.11582177425049,110.78949707449607,107.93523893848194,100.42243854533973,107.68796103598669,125.03310547056215,127.41707688864346,123.81216315911777,127.9049787319609,124.37924023362264,115.26366465292105,119.81925607360623,125.10584690159816,117.32771397980305,114.93022526897454,118.55234356572402,109.13350027611499,98.88710844036056,101.03013993629527,96.2888994965534,83.3466093032516,82.4648887669174,83.85075324320437,75.34679591265628,75.25054672454503,83.01199150930572,77.56012975886902,69.67201500518624,72.91666188539354,69.72855849107125,60.530367776770504,65.54666978467506,72.93546233440604,67.88902400517138,66.9336749292433,70.62187444688436,61.44737140705291,52.15043459490816,55.17619138712458,50.38643499441402,35.77361988991772,32.35046895220657,32.94803867320309,26.770620893358068,30.436633385617398,40.85030531249667,35.24845385754166,24.429630056216517,24.573084512393024,20.62680467595284,11.849990875696253,15.14929537840041,17.280237875561724,6.078518696142293,2.939745212147982,10.224464281599651,6.581344896292146,-0.09532579660804696,2.5092573287106146,-2.397720868004286,-13.898546573225458,-10.361216452846946,-2.342579329856363,-5.406947910386921,-3.440217476164078,3.7280102397066313,-3.801545607847353,-13.808663328294449,-10.36396633459009,-11.489078713717955,-20.964673575867412,-20.709693094988776,-20.678389888203824,-32.46466770172235,-35.965323906962766,-30.22604034085129,-37.66086372233613,-48.17730843624209,-45.66383467019848,-46.9109167267322,-54.369296876403425,-49.49567004148462,-43.465589939805476,-49.61085606552045,-48.09834363557907,-36.20561161768193,-35.11816346751592,-37.183715028938316,-29.815273883396706,-30.13625017618339,-39.031264942071275,-36.365652547249404,-31.783789995371755,-39.117738241144025,-41.06646208045016,-36.01875094943835,-43.19139044909922,-51.55514856593556,-46.96525094558271,-47.746399224037546,-56.27947632338156,-53.205817591821166,-48.39230241770487,-54.47718312845419,-52.401360034300424,-40.29571377747659,-39.776697461911105,-43.19411365090785,-37.10699022405748,-38.27391795162852,-47.47104496982175,-43.17877621390242,-34.36742114186082,-36.788436215647785,-35.22377990676718,-28.154764304079002,-34.58130778608775,-43.56578906128976,-40.139214404655775,-42.245281186421714,-52.4799018552702,-49.95962797324623,-43.125148624333086,-46.41468613757006,-43.81660168820336,-35.25840485121547,-42.13020046744498,-53.137893041068786,-50.17611370097002,-49.38123114223979,-54.40336210844055,-46.804458719129414,-38.06847344459888,-44.1732641776719,-46.65123538037902,-40.16649139748744,-43.047772652858114,-47.514554413018544,-42.24856038444423,-45.81650890115803,-57.81390406101163,-53.11768612436205,-39.57176210133933,-35.87124190384733,-30.038902547680436,-21.68067076953754,-28.849513186761566,-37.766987268602676,-31.176062878199353,-29.112558673485875,-38.09765081245569,-37.11345173700697,-32.70545023294323,-39.45505047583427,-39.37205560426117,-27.773290086466034,-25.559055573245573,-25.49413494914667,-13.057250821929404,-6.747871480043961,-11.868791759769339,-8.678687592995491,-4.856695205801979,-13.535361287248604,-14.473503908322325,-2.193720827128912,1.4442091801661623,0.839189871471581,7.406086937653836,2.972151360054198,-13.032804589830377,-15.600261281933829,-11.102626929307643,-15.766854176000274,-13.897086452946853,-2.7489801417803195,-3.3928186193686463,-7.592240893043991,0.23479077547860427,2.5277762547924114,-4.893985104087255,-0.8321824749204509,7.265501921908608,3.6211738832871783,4.435689468895477,12.701311209960473,7.158422100926158,-3.1141948686566856,0.31252635620582936,1.7909982202610397,-4.05174854873246,1.833349904170158,10.45171523024544,4.885313018243724,1.7489850640286417,6.96643430818264,2.7371889456395593,-1.0208615034209783,11.799495760756145,21.40234511924438,18.06953496660841,19.352123746403137,19.896419260471493,9.537782328713261,9.042240231365117,21.648515303750052,22.879693333793416,17.825677671958264,22.432817037193374,21.892323627199872,13.105489660919602,16.53641672021873,23.886397804103783,17.91374287839344,14.940264876996842,21.135036693047613,17.380452486542595,11.175613017294875,17.934423980599085,19.737094212081146,10.31255282367297,10.408478403514328,14.970482499022285,10.014541045729104,12.186026752468566,24.951218675029242,25.92468849183514,20.830834555557402,25.63756591806189,24.547177855470427,14.136658000169959,16.98620964593386,25.810759989429574,22.389121123837647,21.93819135578378,28.57720733755782,21.550217012778376,10.480128227593212,14.804640686968394,18.062312720118598,12.664243139425244,16.637528072622263,21.392380719541784,11.69396160512977,7.6470055261905285,17.322976328394006,19.468203011535266,18.3309890343822,28.31664316130806,31.44353582054318,21.34331149635827,20.064216627543505,23.771541763321267,17.693182561521667,18.032133796334914,28.46971340495955,24.970517663622395,12.623754945558424,10.98819345096414,7.812713057831691,-1.6460533630236402,1.9067770469732253,10.537918838475248,6.106019188906207,4.207004977979649,11.885550055381362,9.333591582917354,3.3440276275153478,12.385418242323599,20.38171121272792,17.918212151099397,22.2546553599012,26.53363724316555,16.108864508142506,10.92253340301122,19.73372561231378,20.741643135539714,16.295299140688986,21.049207626445693,19.821616633781453,7.524397858578418,5.319014465216859,8.505277175949479,0.8264148902969746,-1.8791224531813242,7.5669624368355795,8.185321895496056,3.5147393745630904,9.518353579831802,11.305764713343837,3.2715746838705573,5.668344022822135,11.763824593104983,3.7476264107515656,-2.08243674512159,2.971410721551104,0.04685306820079349,-5.622813397963364,1.0096120342115027,1.914799906454934,-9.99068152366264,-11.76391299053202,-6.455920781983176,-10.59274131201869,-8.389251997248152,6.3875614572378,9.783952026733264,3.2142092322258677,4.368876674194778,1.456944452379453,-9.647234824492482,-6.138915574825102,6.916046674881538,7.173708411188681,5.132745715938143,9.035478154786716,2.1669637580364465,-8.607566257183915,-4.9022774148388955,-1.296763118871501,-7.019244151392782,-4.647773793683017,0.5945415542903445,-7.206874309894211,-11.661386820981168,-3.9718435677966655,-3.543318483592074,-7.50418817912375,-2.0533971154066917,-3.4942119355880252,-16.69655417069803,-17.20127950985365,-7.002145053339803,-4.113110459504149,2.6966288850890283,15.860617492556509,12.039701189881693,-2.215585231395943,-4.132432748369515,-4.873598148513674,-10.917569903932943,-3.050712107962617,10.173527799559182,7.051804862824448,2.0920029900757915,5.510250533191996,-0.31151832748267116,-9.217333174487088,-3.2761313121962607,1.3992611180559813,-4.847118086902589,-2.6122386029676234,4.313489537782121,-0.8721902137626181,-2.884210860462529,6.642346959219805,6.9098666225282255,0.06547313298582891,2.1010469310149835,-1.3453017597061152,-15.909330351559086,-17.895706761583206,-8.632338393579849,-6.4275542395461125,-1.2101728476750582,10.355640569657492,6.292040479531499,-7.888378071066857,-9.621273189898288,-8.233173529126455,-11.02737505056474,-1.2080841934986246,12.423240493835282,7.440550640930574,-2.489982124849524,-4.6784518593529185,-13.71211390840596,-22.084926230721617,-11.301961804245417,0.3565111726131347,-1.4458878410605305,0.35722426186043066,3.557119218801055,-5.67814567764775,-9.083593987700604,2.9731110996032655,6.613160422212666,0.08579407693282715,0.7782779739042338,-1.962682990201509,-13.239052427785419,-11.169535029401757,-0.6577118570049723,-3.2646225278037426,-6.082301917345741,0.49784056802072074,-3.3934622931894136,-13.840846126153076,-10.882446165970222,-7.380098541104971,-12.354921491798855,-6.65254041390261,4.5687030021516915,1.2061301674499747,-2.5818786207354165,3.6537370738412034,0.7929569935957632,-7.82483853971654,-3.586751811256668,-0.17274063916234672,-7.840648642407045,-7.794299946150591,-2.4046374864048903,-8.717383840428154,-12.376853440164103,-4.0605498503021185,-4.322625929402047,-11.862444875655509,-9.375754133229792,-9.766724932813663,-20.294135530443114,-18.942597443958864,-7.75442516702658,-6.548812815827223,-4.491188690280615,5.323097238162704,2.530944879518444,-8.08435835596056,-5.410103434554745,-2.6579888750584395,-10.576015739738434,-9.408814972737655,-1.8527818380339127,-7.423331852624981,-12.026236437962048,-3.9492273940202005,-2.541796524132101,-6.95980140316657,-0.501327394726887,1.872607051502588,-10.394314682320566,-14.794698029929421,-8.634725745603905,-9.148254041220603,-5.874988955511601,8.18812457875681,11.006989412283579,2.8245705481735044,2.6771778351023072,0.5556882843476701,-9.94318999676402,-7.359633156368413,5.707086758663904,7.687750101102332,7.646471804371713,14.763627707343277,12.887372800309137,6.979794462140813,14.570259608033783,19.484113306951702,10.179352228858434,7.949254550943321,13.884600905450164,10.17944701342481,8.259921620148415,17.094514117382417,16.559827688754766,8.450177682926693,11.901511372658259,12.90051342222912,-0.028599476653807798,-4.381783404625031,2.875738716698208,3.2796520680913224,5.691878197737288,16.692198814086257,14.68203779774355,1.9385285176548517,1.030178942123509,2.0217293147300808,-6.322568890920888,-5.262435077774926,4.070681874053145,1.8902342814140387,-0.07765413723823938,8.20584924737168,5.1547683418611765,-8.232377634140606,-9.423593770933373,-8.386449003509572,-16.478118653464403,-14.212844714852832,-2.74774841699424,-3.454134370875715,-5.209100369662311,3.363282890856258,1.9133363056847443,-8.614851323231155,-6.278143169910332,-1.7155952553207128,-7.353352806544944,-4.842488859268486,4.675784439207941,0.9157362241333424,-4.235607560029413,2.1401256799074795,1.385956360207781,-7.1088744898976,-3.810835839163433,0.38702787363442837,-6.569877792767675,-5.00062098209718,5.591300011923336,3.9896684481870603,-0.20044722433546247,5.090719175340105,2.926239783276546,-4.442261495467367,2.4177645157722614,9.953647782031693,4.700001278567181,6.109044065177401,15.368384331267315,13.004736480486734,9.051982566229018,13.904768577291907,8.598630709393685,-4.167583095677589,-1.5814775651218609,4.477238018484938,-1.3029573991612797,-1.755908949226816,3.2011146443026384,-4.6094072406974576,-11.225658712417394,-3.2115620031107213,-0.7633556211227968,-6.318782550328491,-1.3741706661736162,2.9492294882280152,-5.214744783293458,-5.9006328015592295,2.583331994962592,0.5995824083918055,-1.5164124037687756,8.116452290039193,10.001011135535647,2.7836181608226522,6.245500900802464,10.022753479382828,2.0163692587004984,1.8153091062468194,10.528847282406932,7.000438992402514,0.659946730770268,5.187238621716804,3.436684913360091,-5.205558132904749,-0.9257643198198879,4.619719699399651,-2.589782396586722,-2.7862569851766676,6.689082463349546,5.527927525053919,2.4498496759670605,8.906524264397884,7.161600469461554,-1.3139992912556582,4.101902547257954,11.030885986736884,4.051226090249679,0.1504243580819673,1.8290310664061111,-6.536091994893128,-11.201518329357036,0.09275960939053718,5.1904763323454945,-0.6356042690938546,0.9515394976760598,1.298345622185862,-8.105723058719216,-6.299291771608381,5.822346805175773,4.667594626126795,-1.9513165001824322,-0.6401018737338253,-6.005850935323496,-15.899978823004169,-10.846052929489918,-3.6568321462328996,-9.233616006953872,-9.119959241291447,-0.516276073765547,-2.678815148232337,-6.1951927487848515,1.4647492775958835,1.9605426932057686,-5.954286741763416,-2.41493445544876,1.6124419003101664,-7.502775232375853,-10.043971771181821,-2.5000343669319194,-4.594247591954097,-8.032571283192743,-1.6673998175344185,-5.344940462583015,-19.960442168688687,-21.48357726123203,-15.953495164595537,-16.404526208421725,-7.479363695316548,7.815315667658349,5.235080143709157,-4.748099202102596,-2.6934364922047784,-2.292695952413172,-7.033624187559868,-0.693991539678426,4.79861614083662,-4.063434906878657,-6.0910273748095864,3.4244695695821963,2.6237125011815787,-1.6653742608858952,5.0964891723632,6.601337645528088,-0.3766932844194413,1.9926974322963469,3.3953705596000314,-7.8032444108192465,-9.47218179943937,1.948210179994585,2.9795316271895906,-1.0903531717253947,3.4753049949510375,2.2623481278644646,-5.152115711364932,-0.3991293773932765,4.882264706582611,-3.0851002722422476,-3.8016314423876683,7.752366098475953,10.487295870232396,8.523799496280947,12.294735723030511,6.149965392666964,-7.516053115964176,-5.034320071761018,4.206817610722461,2.553575712839205,4.265126335910311,10.818977523420108,3.922992514865053,-3.899366724759114,2.903672809069811,4.958360194310204,-2.631683341123126,-0.7982213635766977,1.8825665730497159,-6.5262868026611205,-5.793294264861537,6.826059531152158,8.209699650041937,3.990230013463029,7.761506796672151,4.70943138849783,-4.686900414051237,-0.027574385314820482,7.371630426470267,0.875416083852798,-2.4052170660368284,1.763086874100933,-5.386441195685487,-14.425260710930125,-10.09653788048928,-8.983578065808429,-13.944986334302321,-6.10355196548978,2.4502457447533166,-4.887058280938394,-8.141206384053179,-1.128215492395221,-3.6290030223663368,-6.900639808456365,2.758985475677078,5.6149510540318,-1.8795579452264035,1.3987481941307558,6.663949517701081,-0.5201133921973371,-1.8751290362647866,5.957789589668495,1.9816192026468635,-5.960381391093901,-2.1782991880222955,-2.0063885271251762,-8.497531822571624,-2.368212733309234,7.060593613466809,2.9876844907677222,0.6922654968679494,4.542133457674314,-2.8566693937403818,-10.842226306101942,-3.499054874102998,0.9764276721422922,-3.3467932893284864,2.481280050168822,9.851901443339647,4.1688621851087,4.656456430085685,16.18979197381913,16.532969509120257,11.21518612438393,14.226236257440481,8.30702131209172,-8.601893076415163,-11.460753749060235,-5.060451027861122,-6.322975896232517,-1.8161918247750326,10.104846556523132,8.15212791503517,0.2341133036687788,3.0517139237918367,1.5966417131978012,-7.9870519688299,-5.535028689778171,1.797560260310112,-1.9228903361187917,-0.7331457400206394,9.443472288707964,7.677111972725597,2.155451726098066,10.268514428388333,14.837043483465434,9.16856328789451,12.758538253342127,19.756184736436786,19.084788110746466,33.10608542017845,68.98675649303416,104.20278674698794,140.96683763734106,189.0364312242674,225.5545037089273,240.14241588567853,250.38409462754095,250.35723232981604,229.25811974781527,209.51813552103505,199.0855941259516,178.72839379128192,156.74183150240552,148.8606503774837,135.96756675973592,108.84636377032734,85.28895941320532,61.188768880495104,26.477465349211855,0.9642209151603591,-10.770865516874057,-32.94322074066921,-62.293787564099894,-81.5452179404542,-104.05886054695846,-134.95569863072163,-153.821164023036,-165.8278345147089,-186.23978239807678,-197.61424605563715,-194.16588052822036,-200.60407096150553,-215.2187999150263,-222.16004969949708,-236.54267803220932,-261.04504769857385,-268.9169639934655,-263.46661401086556,-263.9554136043382,-258.24610225264166,-243.92355270060318,-243.52823757877619,-249.49559523151262,-241.3714184695349,-232.13129075676477,-228.46807912892814,-212.86130255264928,-193.280068858393,-187.05783693675792,-177.8634206896046,-157.836703575927,-146.8323493141079,-140.9470190196633,-124.90246010506267,-113.09822909748078,-110.04519825779653,-95.5870616878702,-77.31761566202566,-73.22029408877187,-66.13872136879465,-47.32382504387821,-37.77817022573422,-34.49445297744974,-22.10259969358072,-16.111872644999508,-20.435499851784947,-10.889950944512329,6.93614231737194,12.944167772118094,21.54339538057855,40.27562660514589,48.66969213153735,51.01249476639168,64.1178681443952,73.4109494306372,72.54251931866585,81.91791178306484,96.13043064883848,96.49141488982212,96.96294887343979,105.92454757704306,105.25920587339424,100.58716793911609,108.75612560402986,114.53915545866691,110.79731238035822,117.05219791857596,127.25088145017999,123.3054674765956,120.03942857562998,126.29047456626637,124.90368635624019,121.5653920178714,130.7699297727955,133.6638296062434,121.56935458412218,117.37465229558029,120.48960082082316,115.19104062542976,114.23292268495607,121.58535278497784,116.16261733120135,104.768584540909,107.07556570891069,108.04450188691817,98.29438889219396,97.05940626973286,99.9610568692951,89.72628961913631,81.91489127169204,85.48851215591097,81.58337387739833,75.30754140013879,82.8321999538183,86.26093441037783,75.23221134356595,70.3813638066685,70.7705293648223,61.44185965472389,57.725760846705484,67.05504070122096,66.84758937017287,58.692081132975986,60.09978822328061,57.43863888820733,44.2124456361511,42.35945253987009,47.31472991475064,39.35837040981459,33.27248956721785,39.634662141561776,39.60984436212392,35.51492915501665,42.14902661501081,43.26077382132133,30.842237463183494,27.3499690215532,31.511348014824108,25.173534717765023,21.026231307971404,27.227369866931745,23.95396468638252,14.769293623800941,17.697712001194873,18.776054577595843,9.960407740036018,11.906730746608448,20.53221081667721,15.995793548444832,11.476608378167,16.71570689447004,13.279170320977297,5.26457524639707,10.81458840550296,14.684763324918215,5.800576411540415,3.892772097020284,6.670461469520166,-4.7049159495949215,-16.061268481066186,-15.702491895227116,-21.794664892674927,-31.15066491422334,-25.40167112226103,-19.327778533437904,-24.25020092201582,-20.755959242747345,-11.27838825065645,-15.179640448856489,-19.47883890403839,-13.528022294857777,-15.774112375250887,-22.74758155592239,-15.857126649496497,-10.001442782198957,-16.488871286298124,-15.95040745284752,-10.574964449954166,-17.61400495805244,-21.85946459033977,-14.484019791893068,-18.514413939055505,-32.75115705179372,-37.13809237969171,-42.708491422565864,-56.1872708988697,-56.01114796418013,-47.10317602799488,-52.11071707214404,-58.07410670915,-52.45396641171844,-52.89952481359861,-56.94743625935656,-47.22847158523081,-38.96710934355005,-43.41483114467043,-40.124204475258466,-29.728313096108288,-31.66022686742288,-35.052313246978784,-29.809389201009033,-33.37186670179429,-41.728203289492136,-35.15609015182363,-27.67588151346214,-32.35282896228261,-31.71547312281247,-27.596552396712504,-37.021466713476414,-44.55863757926754,-38.217606292456296,-38.08713074517537,-44.42210668979556,-40.006595225100305,-37.92315843459704,-46.52484669976862,-43.32577090081934,-30.808485251758107,-31.668754644148795,-34.91166392854589,-28.56347195144586,-28.97530203365578,-32.42018720949489,-21.862510648088207,-15.059715535784516,-25.732752538268397,-31.89958622692568,-29.26135498648366,-33.0724890388892,-31.72641641211176,-18.686560863297952,-17.38204463358732,-27.55070936856841,-28.17543014038022,-29.038682486668282,-38.91657573340572,-37.06533102982478,-25.61997494938948,-26.488665703299837,-28.77638966981673,-21.22699547534697,-22.687917461135783,-31.075565257925263,-26.33571371326644,-22.093180002538404,-31.707999755579614,-35.06171916743282,-30.078695052891355,-34.49654382826262,-35.77163711953162,-22.983330895763906,-18.520817774986988,-24.821577552357038,-21.944773090869813,-19.441235691174125,-26.994137712629332,-24.660032712807983,-14.365527822758727,-17.79209339203858,-23.115364993042423,-16.478379660239334,-15.88622121964371,-22.60423356920355,-18.906182969657635,-15.98856400388215,-23.80051649357302,-21.19587797533849,-7.736440976834923,-5.337387043156255,-5.884781728156264,1.2746766215651664,-1.8931115904120008,-13.034051416276233,-9.638584141861745,-2.037481925773018,-4.396618223765114,-0.9073487346560749,7.071972455351361,1.23034529366529,-4.394547441333677,3.814116356164925,5.754516131582584,-1.0360773738485887,2.364585514172087,5.911360045637856,-1.3314208461947583,-0.7672478121310478,7.137876122681577,3.9391613934797833,2.4617654343179822,14.438074733239,19.185307686697435,14.349117389828361,18.267216805367617,21.26977418340863,14.07448805514045,16.634108643975367,28.36727202469453,27.627353940007424,23.42864984810585,28.341375968709546,25.61000428376923,16.184563111320465,20.820712095830338,28.440693072354765,24.120226716782305,24.542184074673564,30.555957916495068,23.427696799259405,15.129048130263802,19.770288780203604,19.25040971225119,11.457779553507464,14.895598513295726,19.45891451558265,12.834992943850644,12.822387591886464,20.388794187794865,15.906511639195855,9.778843152717592,16.084751965888586,17.522869656106003,12.13447874467511,17.578293507044673,22.017287935587074,13.33811654970836,11.45345584294423,17.81988412995132,13.221864194283782,8.873801100903732,17.055658059967296,18.88026828453086,13.816748240156656,21.026195118273495,27.802007571567238,20.0078399135068,17.47057845679683,22.703049434975206,16.012049741744086,9.430408878344348,17.323733227237657,19.04726818212148,11.459125593549047,15.461881380498376,20.84307910313241,13.662048319318359,13.800652380406818,23.504824655139764,20.358878503247716,12.954923460327775,15.808092111756197,11.857959088391915,0.6914185644380315,4.269563865851374,12.649801727701828,9.774671355194176,12.008079685742064,20.497675310769242,14.634399100406743,5.501902537823521,10.078538281847077,12.453150231216387,9.077029128373876,16.08505503191774,20.358969776609985,7.145340344132949,-1.9696016279320876,1.0404327924694168,-2.265780986884666,-5.82339715191493,0.9729477740491848,0.2798693057525128,-8.141913051514534,-3.596485307741777,3.0543104294473498,-3.0164202833005835,-3.0948894032446965,7.492001916329093,10.312293603385939,11.501717185139684,18.848618988192136,13.534606213084562,-1.044057432764764,0.653193868430678,9.501227967074415,7.430348363373302,7.10399475914193,9.511885150739891,-0.6859050738891996,-8.550316876990323,0.5358390564936961,4.897360722167211,-2.1708564358686657,-1.4376164423999733,-0.10382854148604448,-10.500326132514815,-13.977892131107547,-7.516731315171194,-11.334606174496619,-16.26203065704884,-8.51737052135292,-7.674598553937441,-17.94921511049664,-17.529141123065898,-11.688994305329839,-13.118309535479693,-6.190144225867269,7.934638334720438,5.859952099376919,-2.4973338113137293,1.6358910410830103,3.2171736204008687,-1.739295810140029,4.583670132778415,10.753658593983502,0.8273212865682744,-6.101595710935001,-3.8819494039348323,-10.08076418677032,-14.165315645841558,-2.6973499220114667,2.0591709164747676,-7.315060246605897,-9.989841222786701,-9.691383003594293,-16.91204118493792,-14.998049929716384,-4.515267586919361,-8.1828884996654,-16.74328578799673,-12.401300863455802,-10.497919318818964,-15.672948224247248,-9.382483860543902,-0.3364822846574449,-4.334813160879884,-5.698841198638528,-0.878457006243355,-7.337969536721425,-12.134327631684089,0.9345799820560865,9.427415025428441,3.4309596360109103,1.947460643633897,0.2613194551313014,-11.088968014805019,-10.328919208722489,5.869593869613736,12.162914311808864,12.742907764492726,21.232225293260115,19.22278374973777,3.7791515920851886,0.17143697565075655,4.883642410169872,2.9097060292439973,9.085268377488816,24.45782743505264,24.462096668423666,14.21322421679059,12.089600207519473,7.679157932556167,1.1537148762302496,13.414933104068806,32.39049777499047,34.45147696676068,31.15899240763613,29.438560139789622,16.999585236525782,7.451775213293232,16.237658216845514,22.786415292661523,18.002285047533782,19.453227563502747,20.528515003945817,8.023652343217677,1.0861410781681722,6.357021809948609,3.337021542397728,-2.431524751458885,3.364532138655488,3.3018417502678306,-6.960683767264715,-4.85462989439354,3.64597212009977,0.9215432408454167,1.0901288290528304,7.899092444893892,0.9848179717848362,-11.267772823255571,-10.313569238652484,-10.098098720746348,-16.028312461903592,-11.056831822814212,-5.215904133528717,-15.065241845144811,-21.581714617235612,-15.593027914640249,-15.840546659651348,-17.8422316074351,-9.755925254761655,-10.124963706255718,-22.723423160474653,-24.020556235861527,-18.46628452520374,-21.899962295880467,-19.742649006634366,-8.82646867123563,-10.663385697719953,-18.584608131884977,-15.369590923421242,-15.912767099239044,-25.094601476718655,-22.09858213630094,-13.203291456766788,-15.721614470473328,-14.946911895974473,-6.401579392334965,-11.468126638585725,-23.080990202050838,-22.368123346012915,-23.490774973097757,-32.00065677524651,-28.108372330910544,-18.541647838723822,-19.82374575412549,-16.167341344452446,-3.4663953037524258,-5.057643670108036,-15.413209867335453,-14.548391280515911,-13.566811773630274,-16.59331960190062,-6.505200355248205,4.5847099224126975,-3.4832184215459066,-12.386955191719254,-9.597693799689651,-11.199412665119528,-12.340358010554496,-0.6908696145636322,3.746976712083246,-6.945534879210845,-9.937006359552282,-5.960338629306974,-8.429274675612543,-2.0734185398980145,15.75425289595324,19.424770160543467,12.322236168441307,13.999843044114426,13.242628033351972,6.52346756854792,13.512178189874,24.02427359046474,17.606507915676637,10.38056889934435,11.099669504214276,1.888614741200188,-8.779343555270739,-2.473829259839283,3.46469518214984,-0.9647012311787746,2.6726771097600506,8.654662427761988,1.0085418649245281,-2.121941655980416,8.275094806783205,10.81793025409976,7.884665559544801,15.479814809957356,18.602555244419715,10.45518915625309,12.682182750905291,21.741545770525512,19.658602012337067,19.644899165427013,27.423942039837733,22.46611789054236,11.149173947477703,12.50469168695954,11.120840996073802,-1.6678897754243236,-4.800433355128393,-0.29729840830444587,-3.8809036947487936,-1.1655529354321104,12.451032638021843,12.601922266286078,2.697028878056191,3.475297060785749,3.3747282474923255,-4.020159886647402,1.5029015977869151,13.72114744351142,12.403737866597664,10.516466913460876,15.799542749530872,10.784838263581634,3.489086433809528,12.631974165105548,20.838673645949534,15.254203554162938,12.817565242546046,10.77923014183841,-3.7779140289332362,-11.516197080174507,-3.0004512596570825,-0.8895503511676626,-4.4401854720383565,2.7507445632652807,6.366837990282162,-1.4445048920116705,0.19638056551267802,8.19985223742631,4.29661068701946,2.1570447432230333,10.223918689993685,8.227598871976692,-0.9950616393261615,0.4884122391501977,-0.6356844826088636,-12.321212750412815,-13.818373141844745,-7.488631027447749,-11.25320368391721,-13.060303283449521,-6.168510548978568,-9.935818281331992,-19.31211199799344,-14.982692533511255,-10.77334000861588,-17.133229750703133,-15.176805521956487,-7.497446533281655,-11.638592071301103,-13.699098107289185,-5.461638242481303,-7.126719706398778,-14.153707401598774,-7.631763101535352,-3.069763385683748,-12.029553654501195,-15.238059228099967,-12.776538958588894,-18.740144401569086,-17.75695465520586,-2.6222160869843885,2.546008858678003,-2.111922899074431,2.310652854880741,2.9824492155028968,-9.301498989415055,-12.677194623809903,-6.66780069867726,-8.176823482773218,-4.632252238257369,10.235000495086263,11.83348376406518,0.6327555417353263,-1.2800210419395999,-2.4430169566063817,-10.237211619102919,-5.016748787293677,7.861182847150339,6.124347825921943,1.3356153416743168,3.2695243662757374,-5.052248082517879,-16.395130708925056,-9.762137580091457,0.12521544958294895,0.2790774105301621,7.01337983245026,15.82154869312993,8.601293307404394,1.5322302674923787,7.118732406722749,6.640137965709253,2.5789205200266294,11.876264972876047,17.25228701224425,6.273611545834087,0.5461081396681235,2.018952180816515,-4.797822235213408,-6.106440117823187,5.321553323257614,5.629217482520005,-3.612125004319788,-0.25879164294298196,4.674381571074986,0.7682561555961649,7.194996902635277,20.044589977633095,17.90172616599598,13.649283178998106,18.746625675024877,13.858872403252015,1.5808544251695156,2.9823849936199025,6.67104932469564,1.7863168854383191,7.196587328216773,20.038050877458435,17.960282074938178,10.767525985304836,10.508663913793505,2.048931101481683,-9.375299350159068,-3.261351581215815,5.913518308934746,3.3031465519971324,6.088545393232731,13.209696763946024,6.119802105092864,-1.7398764450688016,2.4397729018095418,1.194218627927169,-3.079707176816776,7.39443224875651,16.08301280788422,9.136811716989309,6.342800367352541,8.458887649718985,-0.6283547482861715,-6.129778662928784,1.9433243461398613,2.325709012979071,-4.420716062251683,-0.6157843674870711,0.1973927716799948,-11.166624069147508,-12.501212399320742,-3.713331722941793,-4.59375755296797,-5.101799397804458,2.7928754966998617,-1.340891840205722,-13.982061047012236,-12.249210747086336,-7.227394006620095,-11.862809991760352,-9.389534179157067,-2.3145820734586158,-9.406143005335231,-16.147676423274063,-9.795250572882365,-10.886864481542668,-20.112397645467983,-17.668052723206156,-14.716652523495963,-22.370561001585127,-21.35633099327284,-12.86016553175687,-16.560769763567734,-19.886082780626165,-10.660759321563614,-8.380675568418152,-13.552190526045012,-7.395964462910526,-1.4918313283315998,-6.797037440455933,-2.7310986165520252,13.824984325542715,27.972309638960173,54.537373248278534,104.9396701587088,153.54937142869332,190.50700783162145,228.42022059895115,253.43669324688975,254.2625102067454,251.6599708806689,248.07315458873433,227.8641782343936,206.44277346084334,199.01574783052533,186.85009060201727,164.82424019598088,147.98463893653778,127.76835904277362,98.03145226262777,79.63294381071216,70.57043009517105,47.04401322087455,16.463883905602586,-7.4642322030748804,-37.70802442820232,-71.38542037447627,-90.04468062779198,-107.52444528878044,-138.3373342443561,-163.29230004376157,-179.29456716864058,-203.61932228928882,-224.30549977628112,-229.66738168994792,-240.25073767799054,-257.52642525570684,-260.9849654105336,-260.6771506575029,-269.2026116660845,-267.961098022167,-256.9156382963555,-257.0514944292135,-257.64471196102943,-245.53984663299497,-239.45218287772295,-240.24069729584153,-228.2444189657191,-214.5336820357484,-212.43882845318606,-203.91037547804075,-186.76821313382598,-178.5937877467764,-169.0092190863562,-147.25924356343464,-133.35689219498374,-129.54402359472812,-116.27825480365402,-102.02930077998181,-98.35975757447628,-87.78300706204922,-69.26315632660848,-61.41726851655483,-53.64496267193625,-33.64058990533378,-20.752889562743736,-17.318173710138193,-3.5689073869415195,10.771201237726283,12.429539386535382,19.788679973831073,35.00567028248975,38.75155531723243,41.276450053948,54.64590510410263,58.739690621595074,52.43352727647205,58.235877334044474,67.74690396012167,66.99706824001784,72.37810652066632,84.04397367822725,82.34439414425397,79.93681714964045,92.39488648814633,99.82531458228442,96.5039818855152,100.0623948252626,101.69929107565589,91.49229858796635,91.56534929992095,105.45307142103688,110.8144875961759,113.45112484786017,124.82368086985963,126.46262497379638,116.443496407037,115.49252093292236,115.71468352354627,105.63528382638258,104.58907014705072,114.05844684526008,111.77785300595148,104.92155496274262,106.40847322380256,100.03750842896179,86.58641084046899,87.30639916447016,91.82005852586794,84.72890465557697,82.63779548901493,87.98938773159972,81.91054427898098,74.2466884526273,78.74146508425757,77.22543859888945,67.0721883726455,69.2362887809447,75.26141688772202,69.61638328297661,68.55430894496752,75.83532355723378,72.70289543349473,67.7396685381311,74.01017812884348,72.18813593084246,57.91982225308077,52.57970042102666,50.846198111764124,40.369460372344264,38.0828281224516,46.23335302829655,44.047094908193856,38.95072817230273,44.935494566253084,44.8174410527208,35.29491560566972,36.56188653012828,40.55295521536678,33.56202011927007,33.99485744083798,44.78224690107459,43.370725142847306,36.67644613219904,40.24981396931095,37.99143948874395,27.67389822885982,30.764675153034407,37.622088763527856,30.80120767080085,27.651541970291177,32.978240590462676,26.04293245881248,14.798089487041494,14.981823949188534,9.948581557925696,-3.231647189489391,-3.1756067511620167,2.318256485338822,-2.2075349630844614,-0.5926893991673179,9.314754243143996,5.1431220731106615,-6.10881941028209,-7.41772984470693,-11.61727859909674,-19.097395827270162,-9.676215441874959,4.091452841193851,1.4382306810589989,-2.21549803685175,-0.14189454835099946,-9.520209113956971,-21.025265146671778,-18.769179676098823,-20.004789832252065,-29.998835210784808,-29.554075065430553,-27.564646039677886,-38.903000784627174,-43.44560045084197,-34.23724899483211,-32.629801140348945,-35.09441371992121,-29.484429059934993,-31.593439203992972,-42.04431847873335,-38.50536449378818,-30.426702828544684,-36.59282890977288,-39.98577722881724,-32.783626706172704,-34.019170832144304,-38.049546474812786,-31.667364088262104,-32.96749172101417,-45.42422546392038,-45.45041501777701,-39.32764006216704,-44.50250776090622,-44.38092888632419,-33.32368548284316,-33.1319701997395,-38.19382497112646,-32.7135374692856,-33.167848717297,-43.200599037063924,-39.04600085211928,-27.475842202784815,-28.95897194192201,-29.466777607021974,-22.72198270908818,-28.348519076223898,-37.7665983053646,-31.666813900305346,-26.508492164039833,-31.052364233506054,-26.755020876997094,-20.254333597638684,-27.677473722353735,-32.23136103469977,-27.595905188474042,-34.07363930990643,-44.8307730549291,-41.78108734490791,-39.51768265706419,-43.98032453258834,-36.21227717057875,-24.26913387813369,-25.652569029229912,-24.9523751338426,-16.992848353029224,-21.886129538134607,-32.39480911727195,-30.60312938753804,-30.41192104994819,-37.486461216863525,-34.00008485763188,-27.949640069974706,-35.192859923834305,-38.26131607939152,-30.285329509775103,-32.03832036877115,-39.07374180627866,-35.91408396989936,-37.23185820985555,-46.58181985796798,-42.53001215512255,-33.15055003428783,-38.037720901898666,-40.93762866473436,-32.679449284229314,-31.95314343315377,-32.90571033077515,-20.429452419831293,-13.451073776401653,-19.966628806693418,-18.60347928576701,-13.889985102601894,-21.750764428246498,-24.96949728584124,-16.10829379456313,-16.208203659892582,-20.842829680861797,-14.301495684954887,-12.266937467318758,-19.130565669175503,-13.170945276543463,-2.119919575782011,-5.946772795850338,-9.86499638047819,-5.746030944610537,-10.91649010052513,-17.294050565617898,-8.50743984472682,-3.132917373796519,-9.899995420713566,-8.001065698469505,-1.5411962833133717,-6.785982763318448,-7.398975910282756,4.5272042756474,8.095066080765982,6.101466552479182,13.387316101827416,13.575913012830327,0.7543784033998975,-0.6051124731082924,8.479876205472149,10.04296152057399,14.446370914787774,24.398394130576605,18.727496132441626,5.936960153594381,8.39998253365056,12.430179488338165,8.020456346268368,12.467320530433701,19.902935865741174,13.959095443106722,11.64245687284212,20.78241211094683,19.797289345907593,12.728075040197474,17.520392489447712,19.560410897868742,11.159760938221359,12.743212893920948,20.462263837140302,17.18956613009693,17.42878783759463,27.588501581175763,25.41219439141229,14.48741830571267,13.830246438549265,11.190426781172814,1.336919268140898,5.269528230796055,16.15821230398448,12.664975168304892,7.79128989329444,10.427617391879684,3.8498921254617287,-3.0373080487903756,8.833705909238523,20.542701575020562,18.380008928307575,19.672497224435865,21.404005206655043,10.65210793759773,6.553403982547001,16.604801035477973,16.720695043816214,8.635823090345005,10.756311461239681,11.121950220879368,3.418699040304187,6.7480263826411315,15.107131987207788,10.120891856516042,6.899743945945073,14.044503575793254,11.299048789361038,3.014459168444693,7.747908425881851,11.18340227656706,5.01318792996483,8.747808851563265,17.058612813011646,11.831473647961483,9.078780171092042,18.306992004982952,18.87072362322468,13.248598014454622,18.022525830933503,18.137560143297705,6.853571910006778,7.83364432890077,18.619426077425036,18.067423044980927,15.464326318590302,17.348367453244844,6.994847591062379,-6.531908120989604,-1.971696463901977,5.644231197654563,3.3310280826477174,7.11477043472456,12.86525288886973,4.2622872806291605,-1.9099966757380868,5.34079390889197,6.713684130404959,4.750306609431155,14.660232964177458,18.76208466438952,7.242049705236992,2.545415160585622,4.867877714255156,-2.0761474946281764,-4.039053981727799,7.663660877627509,11.16664688838953,6.979869264822385,13.018602519612289,16.0444778000075,6.683925580037498,6.004766857194906,13.011225311549218,9.011906985148947,6.168630630786696,13.658071553878006,11.976750553539276,3.694130101806319,7.567735563241311,10.768903801638842,4.06309670461785,7.620521514890403,18.51809121752887,15.925558487907974,10.626611234862938,11.854773498331262,2.556145552306825,-9.675674616576925,-2.4647495760939337,9.134610309150995,9.767835770301424,15.326661290329197,23.362707128162008,17.340452677390125,13.072166729872734,20.969649484540753,19.121301390807986,8.45740904823255,9.00167093632265,9.359517890180525,0.5708218075302289,1.8836187103223248,9.003070578256539,1.9285366280168947,-5.311108279442664,-1.074034853194453,-3.5001693004689187,-9.716932776417638,-2.0371215149685145,4.495830195835499,-1.5034599599584118,-0.5406445219641882,5.65022496964658,-1.602996865030959,-8.479291770026984,-3.244441130952643,-5.193469730645401,-12.853796927407892,-6.667635099182299,0.6837573029036617,-3.1448798990729316,-0.5127017797038844,6.505032737016738,-1.1094292951669464,-10.061721438531388,-7.447659985793115,-10.994830436677061,-19.52568176965499,-14.842060354534617,-9.991442921945286,-15.560073675111756,-11.800542542696094,-0.4841806304568599,-0.9112770674856239,-0.7915724051315374,9.200792873994208,8.424036723446974,-0.854629051242799,2.1690602350296095,5.981919690203064,0.4969772195319666,5.261544463039894,16.726200929039514,12.474508490533465,4.388825990444174,5.388086422777004,-2.4778281286725674,-16.637179199734607,-15.808783182293213,-12.420885549804943,-19.426282319941784,-17.96337777599488,-9.325624584282851,-13.980638381399553,-19.504994379544524,-13.03253089628059,-13.635095250711052,-21.705853921545508,-18.442524480028734,-15.112480744325708,-21.930010005006096,-19.47496561219298,-9.939289076056154,-14.591856931187902,-21.908632120296556,-18.607757194357724,-21.327417231379627,-29.073317898269792,-24.373362334726178,-20.888029713001988,-30.287201940773375,-31.30869328882209,-21.279014643871662,-19.02002451546192,-15.519138089017234,-1.8236725542286605,1.0270912447960168,-8.079537726494614,-7.756698522863678,-4.90131895409022,-8.918251037410537,-2.098177863118568,12.957173739235134,13.8580638268941,9.206206691387841,11.0227184749192,3.819429085852927,-9.080451778958196,-6.735930547616775,-0.3233586639098369,-2.9414741237406092,1.8262451245868396,11.526386518298235,6.689123459863312,1.6280077625408143,10.512065471626812,13.410498883335162,8.548978481186792,14.797122960110071,19.70495851845175,10.567227262884426,7.8998130486346065,12.974975253220467,6.153908308287363,0.4663549605883337,9.773150385826083,13.303048107705536,7.422589598790061,10.42604396051988,12.205918738369473,2.363674414955555,1.1035414835493875,9.06672230165224,6.0479735694183585,2.55406454291454,10.267646374202055,10.053729332203888,2.175112417046858,6.63274343767991,11.6765591627604,3.916614237132075,1.1602284193905903,4.572586031633451,-2.8412862713597065,-7.680633503964899,2.869138355932167,6.972675324442115,-0.6649243568875352,-0.9361660901428444,-1.0912120283150593,-11.60200561077117,-13.65795091267653,-5.624325942571855,-8.076032021526304,-12.760336398534506,-6.000539384826361,-4.1219190118465105,-9.879616155672812,-6.20089604812947,-3.681934029042128,-14.47536727081509,-18.011067459586258,-8.779405376667976,-4.722134322084433,0.5806024823418878,14.062694625786353,14.028872856274104,0.2276870332653944,-3.130159332803054,-1.9941956908428615,-8.169166674582959,-4.553556826360747,7.928357269557623,7.229477021881521,3.0774074506187326,9.211667941832513,7.238874066284907,-3.658518902351225,-1.6500070698629152,4.0061294463969075,-0.12429394121156445,3.8525283397887735,15.72281827539155,13.729588394128662,8.370793288621048,14.199988917542077,12.919941283111864,2.7728731463435703,5.145428446964755,11.102787565601226,6.105705962441405,6.952607873335889,13.909717812165521,4.923014990784154,-8.61090130770135,-7.337965542130343,-6.330034155721687,-10.139582690042552,-3.091008478015377,1.7372494720193146,-9.7828069881633,-15.132097025686178,-6.435774823103285,-2.884906543405018,0.5837864741441512,12.48144595393251,12.403108158466328,-0.5922826406976398,-2.308011396565695,2.0041467663710986,-0.5226369581335737,5.674178414260728,19.856667635520623,19.31328485345904,11.881945622555833,13.053278128513258,7.5202411059012615,-6.805382588393879,-9.178574573864127,-6.701082458733337,-12.675704151465029,-9.836850403042888,3.114869875503495,2.385302915938451,-6.130131520761183,-6.294935894347273,-10.694551717887508,-19.18475504295116,-11.754880085676062,0.6588084275250923,-0.5209485694737612,-1.1606077673872126,3.5925261246686855,-1.6362784850153314,-5.522694173784698,6.282017276059641,13.322855210642253,6.731704594094824,3.924363304395777,-0.17416585107809968,-14.644141012081306,-18.261305471581124,-7.285891153529909,-6.031550925093825,-11.172790958580217,-9.168609683215955,-14.448092771603296,-26.359561142907317,-21.67644975697394,-9.208354204519331,-8.249905428324094,-6.023181211278473,1.0372833049872163,-3.6124006807900204,-8.202110589669264,3.201156045890011,10.906891171439927,6.525738429319873,8.078870073385609,10.167819805161605,2.3606643962352725,4.009450589033142,17.72598144852225,19.33773906887169,12.848182160079524,12.978007505271448,6.105970740896827,-7.8460268437439,-6.512161051353527,1.8233176194391048,-0.9815878243542819,-0.6472685143417901,6.887878506222421,2.0249123883316593,-7.114125165004793,-4.58828584776651,-6.754953606997451,-16.545124920284852,-11.919208611298483,-0.915647385189474,-1.0771692955591514,2.2306915099717646,11.494718995401477,6.593248940103702,-2.642739104293507,1.0042081844098747,1.8595962952237512,-3.637379672639032,4.019760774065537,14.602550445307582,10.045919313895395,6.881771230792772,11.326774566064405,5.444564963286323,-1.4173004748621618,5.806750418987644,7.969894572641658,-1.0527143981328697,-0.48634331065280967,3.3292757671960307,-5.327054904852185,-9.472552625681006,-2.8432347163388405,-5.706364280779928,-11.358933986594918,-3.2571114997574844,0.7122339753407507,-7.315574612400879,-6.189489025438295,-0.0048806890644521594,-4.409227476506709,-4.62834562037211,2.6284663428389066,-4.207191122482465,-16.904008080401827,-14.89042187032435,-10.984327595610585,-12.645789055270095,-4.833568410540277,3.2451006938351297,-3.048251185959486,-4.33936837998269,6.7202570219519995,8.199120036839895,2.5046831867824393,4.030515177276392,-0.2929466189776033,-11.556501825013175,-7.2796444865397465,5.068754571525872,4.945770896573904,3.6040033875012085,6.396008518927287,-2.37427173135504,-11.992105552723885,-4.668212857875315,2.8833809511645176,1.7298654411415832,8.335341357173471,15.760763384410204,9.519572587843175,6.768712361615371,13.685305279916493,11.164219520774584,6.343039470788696,14.380733375367463,17.063110236703853,6.7348081003713,3.23064527202225,2.707606473232109,-6.840598384673113,-6.7974283939455304,6.494104091681486,7.119853587431237,-1.95149820172308,-1.8336781253144556,-3.9188498256632833,-11.76118150448365,-5.213615687496077,6.816391616764685,4.504706548718251,4.894728249722688,17.73111513589718,21.829626370476152,18.88799745448184,23.905434874006133,22.329957360248837,10.934568078547132,14.783666847055393,30.359192874763593,39.091493154917806,55.9848807067782,90.90096682143553,126.35378412127378,165.35279016594828,217.38648784953796,256.0881532981158,264.9983412541385,264.106160480497,255.8478698286969,230.85008654019742,209.83579211335393,201.71576935739301,183.74650024945885,158.0946068850767,142.38115908983326,124.66206278399945,100.06106567037739,88.28879692207201,82.93969148679864,64.08392001691263,43.24929384303077,27.22463725731069,-2.5176598384138895,-39.950770030639646,-64.26760523669168,-86.07187257424974,-112.37450737168682,-125.68220302301789,-134.52013380970453,-159.37896512394178,-184.1550348359096,-197.48918825211027,-217.28347833214636,-238.5615351746325,-244.93308914010123,-252.72840204590585,-269.37649740952287,-274.4386482907275,-273.62442486048394,-284.2608637443481,-289.33829326353396,-279.83642384155297,-276.2356799988553,-275.8382037402076,-264.447678372838,-259.0147136985958,-264.955243712205,-257.42409552955183,-238.7581336057288,-229.1319900664311,-219.26732439239072,-204.912001109951,-203.97400896527074,-205.67005323240159,-187.9794225642628,-167.62585015382518,-158.3529077264058,-143.40872301602013,-125.34347975861479,-118.28077259083993,-106.33469939837678,-83.21830655890243,-71.50650629986652,-67.3067578969838,-50.45456473879223,-34.230492278281446,-29.333305449766026,-18.347976281007263,-4.807639240233007,-5.274319712917082,-4.393554704848144,8.017083589754028,13.085222339533106,13.950326384583445,27.393540696120624,37.49380539912599,34.64791640681623,40.47002390198642,54.15991523719581,58.27557456240111,64.30702943509351,78.17731572303467,80.6053503340607,78.76631138524719,93.3999065993189,108.67642404951881,112.01610861179688,121.08802009158357,131.47399330909678,125.60096467640096,119.8510877897532,125.15589742732878,122.62002041447232,115.8116198121956,121.49091881337564,123.54486294579861,113.51000551250885,114.34278649007595,123.60558738978554,120.67040849333,117.80326924770452,124.82299691158616,123.99246336538206,119.85861436814628,128.86249058693505,133.72319764435758,124.48556979119098,123.14377761364086,128.75098929542045,123.61072005525176,121.43088378665419,131.1767910207607,131.38448458483143,122.79339621565077,123.09103699015166,119.86851877719579,108.0267513360385,112.1274572768228,127.64385401095662,129.08181674502745,124.95732714354469,124.21714721491841,110.58356469699325,92.38223822104945,91.38286134092914,93.29746268819804,86.55998955139397,89.5125827815895,97.59779426543106,90.12640785942243,80.50136338476847,80.81368917843199,74.19379351556152,65.24354657576274,72.80680180915117,80.70021822988932,74.9873699135074,73.52870199332666,74.35621380893264,60.01155165466165,47.166487722425,49.82896689343107,48.343533806689564,41.68877815170376,45.41057858157614,44.30720871038619,28.926787931839392,22.7075648336578,26.74039826302026,21.44428774280599,17.124945635417042,22.688772299914667,18.680928894207902,7.745667884755909,9.807357155913635,12.582485014180916,5.353688552444976,7.499239604187964,17.483324454330624,15.102205517900584,11.089804190772307,15.443658346440523,9.337430266819638,-4.23644712912909,-5.604481799353686,-8.743903133310813,-24.380726917573792,-30.2514861655037,-25.972492368377708,-31.115731693969202,-34.80207228877422,-29.085118354325502,-34.484990403083465,-46.57486485697201,-43.45693174406201,-38.418289211558445,-44.09864619689581,-41.777390492956634,-32.931674330325215,-37.260336177526625,-42.983551032176194,-38.37828449762901,-40.821289115898054,-47.87236801432628,-40.46734859489531,-32.82562209626302,-39.09383068732066,-40.860155167882276,-36.9652093882472,-44.03192921911957,-48.56873193940085,-39.698568500173906,-38.54585426584276,-46.83599895180912,-46.80424741254804,-49.03072766910904,-61.015507666054,-60.64428991522999,-49.21677891463223,-49.26302067522851,-51.96036776580004,-47.226122365096366,-53.16609876439663,-66.48613479271846,-65.41323429418951,-60.40145148209285,