-39.516297527879104,-35.307067840582995,-33.25872778513124,-25.553369108406443,-23.894216637446082,-30.088526731469436,-29.19673423825413,-25.656718648681768,-30.44553922159601,-31.97076836085207,-26.55201495533168,-29.54430817821513,-35.43396801387872,-29.50621191917559,-21.709807896147723,-17.486729392689348,-7.939250011863841,-4.88811104311077,-19.449968939945595,-33.52070186786121,-38.67386791587418,-44.74777861366252,-44.98258132719805,-32.31005790633523,-20.446222815109703,-15.094315927087337,-9.704283112726747,-11.08645690824996,-23.19240008514452,-29.504119304962177,-23.280283852156714,-15.485102141507873,-5.468601092864721,11.0593809296963,21.354835616471213,20.45474586048247,20.45490189824944,20.03168211505068,13.438183008401673,13.89712036179306,24.83728235204249,30.732995440773408,34.601005369991164,47.62072925698588,56.222698858192686,50.973380949010036,44.43787338280273,37.50415274157473,26.66151720960739,27.250201022683736,39.95307022802995,42.84355781523147,34.76898129856396,28.784131833466095,22.087389494602355,17.124862137997017,25.59735557084787,35.91974329256139,30.867858732094096,18.30922252146187,6.29876066944078,-7.682894561302673,-12.416801447566097,2.33882441047209,20.834048209645726,30.284952851203858,37.977590964069336,39.40567016511673,25.3939567561032,11.868564448257661,10.008122071888941,8.044045877481366,7.101267546041661,15.277456318648154,19.170021145538886,14.450685955569819,16.904311937897972,21.08078974805074,13.48971731809554,7.10822696898297,9.202166088671175,8.402914865383085,9.910532758924045,19.846450032388738,21.949652933954596,14.318409506007477,13.397672080746071,13.648993750729174,4.969476005320905,3.0021224287533856,14.338232259693976,21.739388864977794,22.132348257654964,21.720370351256406,11.211108243034412,-5.780030452575155,-6.950806717653625,2.579247000446404,1.3168965852896655,-4.291724375464806,-4.049469006320837,-5.101235684127049,-2.4912687899605546,10.036991549698527,15.960865207057346,10.099803458151253,8.300991335134702,8.74331004645432,2.6855505673535163,1.5425800731739039,8.076995497097837,8.999999399240611,8.527530449047784,13.663941345991942,12.048801136488791,5.135942116911787,10.674284588935027,22.478010927514585,24.534474296704563,22.37267912202971,19.637019488776552,8.768563167819384,0.5657432121365256,9.139802224175344,19.587729487423985,19.464590061883715,21.055230294848457,23.663581965598787,16.199891308918993,9.781751044187722,9.96526589270941,3.2256902212237,-4.427269510108593,-1.832787553049678,-5.216649444145093,-20.90540173438436,-29.869208464004732,-30.153237348225243,-30.45995820113972,-23.491109468808183,-13.966981757683074,-19.212395217247405,-28.605099676360943,-24.508932152257028,-17.050882220019677,-12.936220072065073,-5.458393268759102,-3.8608307025070316,-13.047111252581628,-14.568761290875681,-4.139874542868015,1.869203380661651,2.491164510780201,4.383970852238271,-0.7829096217712432,-11.095315219062979,-10.624040544418992,-7.76212079421256,-18.56954251987998,-29.421243056285398,-29.112725281069768,-29.052294010784944,-27.520795710507592,-17.176896147523962,-13.158820793041267,-20.217329126068375,-21.40256558669859,-20.752848812456783,-30.050215273117296,-34.9945521637913,-28.73346728118875,-24.49886097255552,-20.923808378412524,-13.16164147575488,-12.011122804834796,-14.989012501668007,-5.921893912278583,8.08396012225798,10.077079650843697,6.218329774646351,4.2541116824785465,-0.8787197414313981,-0.6123714553488336,15.548988279181204,31.128745671223964,32.54672398627281,31.02686218754227,28.638144676677133,18.783575725510925,14.781965896288238,22.568939118211176,25.462094935928718,23.923652102250564,29.5543016086586,32.74132229966112,29.059809524399647,29.324818129982486,25.006570461147778,5.560378764475181,-12.384683975328032,-17.778884140940505,-18.437825253825395,-10.811933473275888,8.781732715582152,22.352304634885563,23.424428614559623,29.14140440636636,41.369336713973766,48.71142180686694,54.77960335678961,60.422016662321504,52.33869625839287,34.64943620441927,25.156318207977012,20.04149181032545,13.29962596749326,18.209558186063497,32.023871356611615,37.63674403884293,40.4525503397287,46.282133698896246,43.02160823849717,34.519039042236074,32.897000484301806,27.60602506991406,14.829208013594403,12.471748829724998,20.571822278771034,26.25906463673513,34.81150016883025,45.00891249695887,42.09531869959536,34.17776082250808,34.067449097465456,30.219482846673163,19.824670270200876,16.623615958378405,16.712103564672823,10.940669152758067,9.534694114578162,16.062258330265465,16.97676036209794,13.88349431153365,16.807782557656644,16.022917937827998,7.694617637076528,7.151896349411214,11.749354196987019,8.139102175596962,3.928262363138613,3.656832183363838,-2.1311059919925976,-7.017311200612374,-1.8531675185168812,0.7418772955157151,-4.092080663094193,-3.5970727241995144,-1.2362481999287582,-6.020412163520957,-6.928119912611062,-1.4829384105829575,-3.402536940855177,-8.344822183109931,-7.227890255354336,-11.203712224985145,-22.95950009253192,-29.66943212761514,-32.4323816612767,-34.25754748917453,-24.08569695912922,-4.608913569256292,5.182815752274164,2.6720433782698474,-2.4365403412864532,-10.197612878501566,-17.45142225571431,-12.893240080382649,-3.594189349220758,-5.790175906113543,-12.014703258797095,-11.698739613828156,-12.744294317354184,-11.904653054034442,0.02138956426116234,7.7060579433245975,1.8751896736068039,-3.4605623179890044,-9.082346425952622,-22.755025556947977,-30.876213588075686,-29.580530751788363,-33.44152161132436,-36.516827794787524,-28.449714191030555,-23.094301331703033,-23.17364255067044,-13.871400248080135,-1.9535389584612015,-0.20558873310817938,-1.3856583628327432,-6.258561481456912,-24.848566186607943,-43.470494050704595,-44.75732021173108,-38.32823219475655,-33.34847028811762,-22.43401224207555,-9.849771545804668,-5.456927871269299,0.34188575930963827,9.193872576323425,4.1065065268678085,-8.11952781009646,-9.513250826669193,-11.426877453226124,-20.55452106717391,-20.70377271969248,-15.799779596332158,-18.949315288188938,-19.743753757417863,-17.12720947785487,-26.277902924789217,-36.70356181871349,-30.963556079852225,-21.363461569277554,-19.097275414007694,-15.266355801737308,-11.664338742968162,-16.027950234149497,-17.65307671119517,-12.366415535104839,-13.514882171534321,-17.85582976724867,-13.908578790676547,-11.261162841177553,-14.837503238887203,-11.511237506557737,-4.589523907768239,-7.342551965684873,-11.629047176614701,-10.622919603928764,-12.155742106376138,-8.204096187900497,9.931494923042866,22.11182320298313,16.971961439700486,11.156997846977141,8.402291585587799,1.740120314318722,1.0199896902344998,6.3712369038622025,1.7390528205415037,-5.831471987111555,-0.3371988884286714,7.581361996877824,7.587007245967799,7.814162291432911,5.261966346664683,-7.1776861730499775,-14.69683744060048,-8.71569603469678,-4.31975886399627,-4.704350167289201,0.006620055029943117,3.2195572904526455,1.0277004515364918,5.47943359476419,10.657174571862265,2.63591745451944,-4.417084141321937,2.396050544496616,11.096384995437731,18.230702790647257,26.549703345395844,21.33516117340339,2.515578437443179,-6.772285193916808,-6.428230016804655,-10.523713411790212,-11.714284666774056,-6.693543667475753,-7.7027486281168995,-9.935006308327711,-3.5258307993026925,0.5661607145938733,-1.4310860494185755,2.9235084193134337,7.68168619110681,-0.5681061215538143,-11.3800960155866,-14.103977390947808,-13.634380846544678,-5.360574295256892,15.362812439710215,30.33777897518683,28.584021227522946,24.25771975406846,21.981130152727182,15.096517273221608,13.141533836295924,20.015087742563843,19.86800384471173,13.649799101426744,13.159719404784175,8.546923103946677,-3.24022267822637,-4.079446080933252,3.7959128999469156,4.962993912059723,4.923526126023242,4.561910700465821,-8.097595180297818,-21.63596093336898,-21.35580764984685,-21.98911764365266,-30.48341152014111,-31.338436643982654,-24.596572568603506,-20.10779828055563,-15.457450707030013,-15.652522674414001,-31.4807142349809,-48.744374747727065,-46.58943739327668,-33.65026782958248,-25.579717287764836,-21.732900917814387,-25.694219958965014,-39.58280080711123,-45.58860200391739,-36.930536046866195,-29.462368852620948,-24.014028059699978,-12.21973542461167,-5.710317517212198,-11.064364436996145,-15.586081191363755,-18.88967435331725,-26.486127549557807,-25.552879788069298,-12.72550795379324,-5.5719033738802795,-5.85162399504051,-2.7315620993432805,-1.7179578183162376,-4.958342022361305,-0.19046878229180786,7.599420932826234,4.666895461596353,-0.4715928182412572,1.1552565384993132,1.8658787518290705,3.168145436983557,12.331885774131196,18.311464537643026,13.145314064334789,8.401091661302472,4.14986217491627,-8.758644911508263,-17.694761361986444,-14.4391837973839,-14.158172172642825,-16.91381493158415,-11.766616105930288,-8.690959809823422,-11.68326715119274,-7.341550494940625,-2.73976682031926,-10.921362836305434,-15.978620052614676,-6.428115541531115,4.789826136406663,14.333620141436626,23.63042709450265,18.69488531051052,0.29923808940381846,-9.444430141092507,-6.401909442325844,-2.6089609302036942,0.7466549174148908,1.9843441984530104,-5.772556333053528,-11.643080427746527,-1.9449009559994668,10.719407049719852,12.75844608414392,12.772076094773823,17.033765570386617,24.97127351029453,44.35364342221528,70.17600050294268,80.82853793627817,78.08707265915297,81.20676048553119,87.62452479769803,90.16770369204846,97.34304892807211,105.4070547329106,104.19251665393115,105.49724432818782,113.9545960370044,110.8636383226255,97.1259268674296,91.92354977346014,91.26565090947105,85.96857219912626,85.41905362750616,86.88748574073293,77.96795544150211,69.88927339651102,70.57733413033667,62.56516405360591,44.94447593927971,36.81815331998473,36.583741513512706,34.5966827779894,34.83972247867816,32.79886606219914,21.00294444846905,13.611613321033726,18.30640327176464,17.090967865420335,6.02874938918134,1.7610701354529175,4.7612595718027775,8.968252478530314,18.419138292352603,22.081219213602694,5.445259641747192,-14.577429561462933,-19.43462105904191,-17.946317352107307,-14.429632171048423,-4.661021124988865,-2.0714347319436244,-12.92170357042061,-18.910186956236803,-14.075028468480594,-9.019328885273097,-4.467769346857054,-4.646663058818989,-21.694404305915217,-44.344319313680344,-51.15310530086182,-47.867717841855644,-47.00912310695022,-46.26299719651668,-51.11064631096563,-67.83430448771936,-80.73864936612392,-81.18922915676094,-82.41050966641764,-83.42640557890404,-74.55490688536,-69.73955807973985,-77.36488062286702,-79.17340979613712,-70.74147172814858,-62.87641272088793,-48.98507320558582,-27.574544059864497,-14.499068511341592,-3.661688130312128,23.044918392954685,54.66527573953735,75.51779485645069,91.37828510256487,101.15455220872656,96.56669284937466,88.75915918866866,85.6633091334908,74.59612637461387,57.136813075246934,47.42905056108084,36.750369099342755,13.59322307151131,-13.591234590957658,-42.527559257050925,-76.07047081982304,-98.90281474015646,-104.52818281711708,-114.27448495886986,-135.46503453576082,-152.14077503389473,-163.610567012491,-175.26402928410505,-178.69322773543195,-181.6487018847304,-202.0601260613335,-226.767390003523,-237.62735327416559,-243.57878708968406,-247.8669923876489,-242.54024330079136,-238.19179535742362,-243.4762091255613,-244.4297719943207,-237.58527401398644,-234.55644635633757,-230.01356673617235,-217.97704553965048,-211.94090187046197,-211.82493734036535,-201.50706629719883,-184.91799986932352,-172.29803889562697,-157.22541481960982,-143.78014169576946,-146.62192910570963,-154.00900187348805,-148.06495232596217,-135.3868701492744,-116.78161247392546,-86.64977655073487,-65.956736765528,-68.94020203109426,-74.32170110830563,-70.71410557628639,-66.15448836436029,-53.701576646450036,-32.050407951910586,-20.619742556107497,-18.959770396833868,-9.995475407030556,0.5299861846765737,2.8862296405591286,6.414316311790799,11.064331736923556,9.13049307560161,13.551627485379967,32.41579079104516,48.95384275341247,56.24806589012532,61.73083493441226,60.07212794538122,52.27079686869245,57.939813676702656,75.0066413989662,82.39682461247702,83.30121271339095,87.90287451528194,87.54102386450268,86.04212232336414,98.2713921464028,111.66020718216726,111.29770972998872,109.38889958129954,109.98116788070752,105.08526574627221,107.28684516410365,124.67998379171365,138.33225601576277,140.94569237753214,141.78368226340044,135.84791012459374,121.73460755692433,116.02928138333579,121.02076744495436,125.46822170339786,134.72802549277415,152.636316757935,161.4534383221104,154.85085818287638,146.08590964587418,136.99658511473504,128.39517835061895,133.07950259296803,145.44465069537176,147.36920870263504,144.24094720774224,146.91769216687013,148.26786675324203,148.59396647210244,156.9798083411689,164.32080650834217,163.16024325457317,164.92925877943395,168.49709081173648,162.86036255384323,158.60413519841163,165.57449084138392,170.81528672961858,169.9420334399166,170.947940899524,166.46441048533936,152.50308936754942,144.24614987241526,142.166374752091,133.07510521657375,125.06388729729957,128.25515866334285,130.03851297616868,125.92634086314659,125.11394638378871,120.19196335636113,106.36455561822956,100.71039313245973,104.63093738846791,101.52703153204814,94.39892888964252,89.31069166735897,75.47938608503976,58.374722943262924,56.45863695460743,61.88818905770488,60.92875064668489,60.585237210757235,58.70260521897542,43.941463388283324,28.765927271444028,25.88667756698817,22.475103395221062,15.821109594568503,19.814451860578735,26.519150921016955,22.096973403995314,15.262960171076806,8.017111821654503,-7.201954013224556,-16.83159979935328,-11.364742694604535,-8.34257069115017,-13.460183116671343,-12.689056711182488,-7.551950041420742,-4.94170659318506,1.6040748469171262,5.67619611723547,-8.161217829444965,-27.753459529191385,-35.086121434285424,-38.40742587998116,-41.27479854917408,-33.403453464818064,-24.38505222917471,-26.78751080330712,-30.909187921012528,-35.07661302616158,-48.84949511264159,-61.231537538143144,-59.61691540482089,-54.22595288367995,-49.432947231144524,-38.199904788657186,-31.60196329654643,-41.06027961610816,-53.28722350830701,-59.89643455958383,-66.05275528036225,-63.90598003710352,-50.94953781564219,-47.2286639291147,-55.64088277292277,-56.20853433804443,-48.23485626589056,-42.29003417333347,-35.02304968832007,-32.76337208924794,-49.46833379197051,-69.66819337871122,-72.30773788171395,-66.54341304976792,-60.75753515254216,-49.56030043297068,-42.65274398276144,-48.4891276232601,-52.73003406206,-52.52330267151069,-61.43823457517034,-71.14014307922248,-67.91110866847012,-61.13687064343851,-54.09450730963044,-40.72159180601898,-35.619627330230514,-48.67415031620244,-60.516324283954894,-59.999465633375166,-55.271362480519684,-45.08545177837871,-31.277817235681173,-31.461005237761313,-44.37211128809483,-49.494467176109566,-47.82232393662666,-50.43182206600645,-49.43664687999048,-42.97403339440439,-42.06716259028735,-39.5516233707809,-29.313118191112395,-30.081778638075406,-45.19275009328845,-54.13509138594752,-55.87343479106384,-58.11194789232089,-50.8379385432852,-36.73648891117603,-34.06872951945918,-38.632792933730414,-40.09285271618866,-46.37743915879055,-54.10625603711188,-48.025092908623726,-35.126674456278394,-28.919994165068285,-25.48141649068671,-25.448267249219732,-35.34764037857441,-43.576364777290785,-40.57096782202277,-38.32840748585164,-40.66058808705448,-38.359690205440124,-37.295172593047795,-44.39173666057178,-47.58933915715275,-43.663432177240665,-45.10800715091245,-48.03004372961369,-43.088941830810725,-41.16529243550468,-45.59776550817362,-42.84445223259757,-37.300996845947914,-39.43002960086471,-38.27772168546521,-31.271961244864535,-32.456375416625136,-36.984532188454004,-34.36441659489077,-31.37451648556242,-26.26444121595188,-11.670684641318351,-2.112701989992162,-8.163045710502985,-14.71686769957444,-14.549602269942357,-15.941875998095728,-15.307934415311387,-10.127050932533662,-12.673946814465817,-18.889654518434234,-11.989754730729212,-1.2514491451418013,-1.7658868490558544,-3.253681355005619,-1.1522231498500826,-6.392797590023071,-11.685211369753363,-6.719335483858622,-4.2498330394223895,-7.408695436822126,-2.2982538956533887,4.404068971782321,1.9274701995352204,4.023260325304524,13.900325236203557,15.797449358071955,14.279601805857988,19.809021761552795,22.15389101265678,20.24425287098858,25.30340681843117,28.561431609914255,22.13869379381441,21.753412559394178,30.47143646539162,32.68841402797223,31.105137880148906,34.76931630641929,35.40441470754166,33.15473862938746,38.92171220482202,42.48216733328903,32.0257790393886,22.46096514578914,22.22008282238896,20.565454370650123,20.77165155532992,28.354609895281225,28.790480229276113,20.187613976205213,19.411153125815396,24.977450182163995,28.28968744782278,35.99297996359966,43.89465676735524,38.04422272243775,27.478344977063763,25.68395105460943,26.14927799655344,27.061354568911117,34.27844120995388,37.35421327419545,28.759200028614224,22.73215686899895,23.084551851675695,17.530553145227387,12.022945553695813,16.911684234283626,21.36877232308467,21.77638064887025,27.33190157002742,27.87653814168867,13.031467874354945,0.11430368726440943,-0.7829576089996377,-0.6806443862462178,2.6273337041191756,14.149207531440078,18.315865244560865,11.261443118810849,8.728346522707623,8.028716062063761,0.5723561772692904,-0.9455156359890854,5.752275126415132,5.946414646574026,4.234257292617075,8.74648855300758,8.018656639808817,1.6333842589364331,2.4263011145073037,4.151588393035638,-1.2635077957513063,-1.6031062542188428,5.015373879516931,5.3225996664804835,3.217204670304355,5.70065264097376,1.9654120981024494,-7.668653636142731,-8.44283893721904,-5.573799966952714,-10.439484871565961,-13.014721455609461,-9.119080435763895,-9.574038295375704,-7.468883490887091,6.70908531100307,17.30026733890332,16.47476486913167,16.729945682466877,16.570250416554625,11.746447112600078,16.924402377817596,32.548450700541736,39.66935242987623,38.01361688356997,35.59775318998961,25.427780375461595,10.846972146000528,7.112785793366983,7.844782570317744,1.6298471992271117,-1.0006638498085674,3.907070950951768,4.900100522993507,4.441044881802967,6.878952953064374,0.5661880973951439,-12.434538629943448,-13.42978864381756,-4.601132409118362,0.23485379884439656,4.402461542032161,7.589436752675381,-0.4333077404360801,-8.431582925555993,-2.3519555422112353,3.31912331492043,0.7391230087169105,2.267541048407585,2.514868141203201,-7.787115646818863,-14.507416558794564,-14.171684091606636,-20.219615107379774,-24.654920571190036,-16.340936864942947,-10.14486723813383,-12.358923594859293,-10.649219938848457,-8.567137623968188,-12.377564675339967,-9.865388550114522,-0.5269559639072638,0.0031004850213645074,-6.111504179129199,-9.353786128896136,-16.49015411209986,-25.93877005915759,-22.960813861001878,-14.073743122162664,-14.143861378298404,-16.503907171425514,-17.03468743911549,-22.793310042716207,-23.069550424979262,-7.59123669543026,5.872691924889993,5.95664140417534,3.86903972499697,-0.5546008319983772,-11.959602038651344,-16.02210163813769,-9.682328951438834,-9.504491875195594,-12.523211908004598,-6.884936024174859,-3.086516383458406,-7.009989804812417,-8.112925150401697,-11.177772370999447,-23.984396960518744,-32.133882275596676,-28.500423861425563,-23.806919642395115,-15.858997903537976,-0.6576257492331159,5.322871040314005,-4.737408986779354,-16.234528618533847,-25.448759334411847,-35.05644870502235,-33.88686247328703,-22.330421056530234,-18.5255607117861,-21.286358560874405,-18.320275109285074,-17.13695120791732,-21.139092160954604,-18.153369803168914,-13.79696768592651,-19.203630709554645,-21.473263036906907,-15.054797822791427,-13.975358000835637,-14.195701901050313,-5.80028700890296,-0.6688571828227964,-1.0657683788783778,6.347829082141612,14.34472788910055,11.143242803520796,6.752677939551877,5.292815876777063,-1.7712593911450254,-6.710788905352615,0.20399309072096639,6.593185985525943,5.124208477154362,5.32981501235021,5.214280783999687,-0.8282651727930324,-1.1171565617444814,6.668856870759628,7.312527032525223,2.8564736298972373,5.204763695455113,7.461816969207116,6.23211367795128,11.67568546470731,16.343353063679164,8.63035567379547,1.3202487212583764,1.3184628396520437,-1.952288021375912,-2.192120777038359,10.038910451511814,19.515209840436608,18.64968353090906,19.191601745492125,18.005212681373735,9.282075618279777,7.964041650408488,16.57506834457013,17.637145563125745,13.32863257787082,15.916194757944634,17.145058571751665,12.387782082087798,12.289435397016263,12.4818564903248,4.2690644242149,0.9945910771238285,9.191512908733086,13.277365157634389,10.837112392206251,10.829296653209052,6.684005104955443,-1.6432975051624656,0.28607069739421886,6.901971778033687,5.543809835112313,4.968454956340668,7.6155757102243165,2.582386506921774,-2.377137544791652,3.500341351757742,8.702128070564537,7.484356482628938,9.079347787898541,8.19320451870017,-2.6985488877112265,-9.624476115768857,-7.552924035106653,-11.519349112920501,-19.21118014753611,-17.6201654774757,-14.000615302545606,-12.728713448740217,-3.6181278194365047,5.8433702831362515,3.6656505216399653,3.3165040989262664,12.63731402474455,18.080683761061636,19.544054873153414,24.562474894177633,23.308332395890744,15.258784879869365,16.05704889453839,20.64266998797939,15.195249270625776,8.235243114488483,5.569599863813388,-1.6126387668925988,-6.885548512217062,-1.4395850558461383,0.4004384189659643,-7.4300730459164654,-10.186006420290534,-7.113503147770118,-6.0639898103790095,-0.2689456916281536,8.747255520589063,6.428703454107039,-1.8231077755051976,-2.2609145128191774,-2.4259271662787856,-8.059026630534497,-8.779189211766248,-7.015808546311556,-11.105571990375703,-9.758440299722837,0.040605309018515445,0.9878567485275473,-4.783067568414696,-3.0272938282691584,-1.4475624160208072,-3.4001171181601695,4.730856475419419,15.64348290139286,13.512940068484328,9.081068624582816,10.444053431660329,7.173668150228879,4.263877125294181,11.323477091326653,14.149124516218906,5.542161604353014,0.3434191927404572,-0.8041771711215353,-7.469525341519262,-11.721312219755713,-11.160253875524381,-18.341181156881987,-26.664510640863604,-21.745687251050505,-13.687499097933562,-11.793641872200386,-8.053679960504777,-6.1546938040118455,-13.001487831343606,-14.197246932796126,-4.369350878537976,0.6669048422742083,1.0925347736637823,5.73783814696342,4.287947407991984,-5.05612792357628,-6.275214318287519,-3.0571516793417555,-6.931506923681171,-7.279089860154142,-1.6717333821290086,-5.489559745914068,-13.598505464440457,-12.655009675395172,-12.099249558558752,-15.95437552295359,-10.620604102430239,-0.4098133283613046,0.4568951366644606,-1.5400695836200886,-1.2283663714353812,-7.450647037849377,-12.680509209491873,-1.9238693759390504,14.931381815202407,26.265317726368913,38.40356992395043,46.446607801923186,39.68014546691984,30.68208226848499,29.313882928235586,25.324971772947755,21.578239677191913,27.722445110468588,30.576317884789344,22.79279368653356,18.814710638429784,17.748918408152793,9.340542322542586,4.156481990894298,7.520774354739279,7.041413806046935,6.253734630852246,14.461450735530446,19.46156011192887,16.208541832587766,17.87109243946973,21.60915821976516,17.74896821788778,15.894929643087417,19.063105665647655,13.906006276910613,4.313664447483525,3.3082025659900336,3.487784486658022,-0.20637800026065478,3.4406055538436524,9.88207887332967,5.536127639148088,0.030351574566438222,2.7351723395121397,2.9716723666020473,1.79839343989135,9.325303481617242,13.772755089701976,6.642235450199379,2.1453974233484634,1.2791754253507248,-5.397117604297901,-7.629395658622539,-2.196453701034226,-5.293165100091206,-14.001015794517597,-14.301532396724582,-12.952678571497403,-13.838702845662125,-6.605894060364642,1.866217982837239,-0.7244950781346593,-2.8252270541753326,3.1434469555355338,4.461153975145397,1.0208067737030169,2.3183108131972388,0.7557260708540998,-6.6491222959288185,-6.201748733258718,-1.2032788470096105,-5.942375913821077,-11.620055493455952,-9.715678734048502,-12.25411101154829,-17.630283641857428,-14.540722870212399,-13.503616126329058,-19.771781500995942,-18.547376671812533,-13.036473179198452,-15.923591905593483,-16.627650363905808,-9.905117218659434,-10.210162991853458,-14.190145873741036,-9.527072323867671,-6.91090073629235,-12.785479006208053,-14.35348237685583,-13.69615811429285,-20.56523983524554,-23.887697571677542,-19.100165135351865,-21.88072243394492,-30.35159484265927,-29.749964373784103,-25.223797088299236,-21.21027152512458,-7.929614637525836,7.77624455798474,11.521285088077136,12.495094711007942,17.889230634942443,15.729381263482377,9.016708484938862,10.641420343629633,11.547857785698952,5.055552200535317,3.4634024796951457,4.532444330586694,-2.0083397036525255,-4.573101023190152,2.4123996309184306,3.0903800892312434,-2.2877517800754275,-1.2021681292898383,0.7200712887737257,0.5640104930779335,7.79341575527401,13.883817225696827,6.4803472169021585,-1.271563824101809,-0.6324551136237773,-3.6915981459807616,-9.270484710568008,-6.969651229568624,-4.496735930887185,-4.633340095504559,3.8208234513973496,11.210310054934341,1.7802343693372311,-9.389159397797123,-7.452503652122115,-2.524107375571329,4.047694045700872,17.19907147646625,20.63885697248553,7.954610093259063,-1.373058420229573,-4.124192291888837,-10.201136954113403,-9.77491913160097,0.6681260122567387,3.2314225723695262,-2.295861425863234,-1.930202669926604,-1.490325141417087,-5.77160172176472,-3.185371245650054,2.0086374040095745,-3.604278479556774,-10.116333228797593,-7.350761702531074,-5.412521033397544,-5.420091077321493,0.5973407363322822,2.5132730162938945,-6.7954362624031965,-12.185127951376213,-9.828169938168477,-11.025861374455411,-10.277488236984668,-3.108976115934518,-3.0523513406178484,-6.859281505019623,0.2030437256251587,7.824418586767329,4.298691039889898,-1.7320593800656678,-10.070609310163256,-23.96412744858741,-26.37478815485357,-11.572994174267558,-0.8849125168133116,-1.4536396815261696,-3.3957717169099526,-9.284487244838399,-16.460026896164067,-9.403308055647642,4.128904804900602,4.939189769688113,0.8972481676090909,3.3189232521803946,5.510365099724582,11.219054615855347,30.066027834377813,50.13785701237625,63.91140654455792,87.01529957553244,122.46645285723665,156.90073044094976,189.56137136615942,216.15081451276058,218.3690138254966,200.08230668730036,183.2240412111753,168.5870441204766,150.45593001461552,135.84597777832468,118.72391074678,88.60257587639,59.743900941636255,42.469682860712965,23.915433375177518,2.5117188611682773,-13.379065193292014,-33.31923609092661,-61.138040907087806,-81.3441184562788,-94.43760186475482,-111.41461204749224,-123.76818203510345,-128.59702341474377,-140.54103229719158,-155.52218600081633,-160.29471780578422,-165.05708714608963,-177.36844531021939,-184.92651645027135,-187.41376229723426,-192.67002549492065,-189.925588305568,-175.59953469836347,-169.74346531253025,-175.62920114254072,-176.54258406802361,-173.56065539335646,-170.3313354323178,-155.63987178937327,-137.64532243520986,-135.03694425944477,-135.50618369111453,-122.68967520747766,-106.68279138465743,-93.62577030264302,-80.0139618211621,-75.55448487908247,-81.39491072265099,-77.61989202362169,-61.7459761035281,-51.0227091171482,-45.427265530563474,-37.611118984130954,-33.04046446395466,-28.68471434647158,-15.63769770481511,-3.3467517199430574,0.7074742721188287,6.79208235459639,14.526216497118304,14.093118641366686,14.718926380527378,24.60110978932226,32.063625030747744,37.041423793800405,49.45596389097895,58.650908094101155,57.596299737798475,60.38513373290076,65.1222438678561,59.62777384031058,57.303761341391365,68.5076605480217,77.69285568014752,79.61395762262077,81.22392805160794,75.93122516516212,65.34602292902592,68.24510148990636,82.06156039079119,86.15777821438422,80.52305667504221,73.69371988110896,62.47722850703438,55.11971318409332,64.18723028037483,74.28742727043864,69.62641926015921,60.96243188886319,52.404014091660144,38.22759171151084,32.69774475794728,44.99987050767481,57.58467194957528,64.94983922588463,76.3991581570666,80.85049491969423,70.08795055679295,60.75162752418001,57.44291308851153,52.1561170948016,54.58004445181672,67.716713832587,73.04524531473452,67.94072182482347,63.997650262783004,57.54891587597665,49.18720434541532,53.37223824566117,65.76875803985612,70.29190905996623,69.71179253726254,67.66617885194255,55.750446355142174,42.96312535244835,46.35144321911494,54.3674360326306,51.64447802916803,45.456543213486555,36.373970005018755,20.188080047720266,15.458508388875451,32.16003784576851,48.580077277998996,53.076801266572915,52.95281357916839,43.38114404761695,24.115721764325333,13.796305749198144,14.21600074761687,10.453192198680398,6.06042946660163,9.477344328159116,13.34755333601459,17.285364384415725,27.838154535530535,33.9436600162945,25.518331490235468,13.845733557598924,6.541206513044694,-1.4910060065116668,-6.649969191446869,-4.032372127410982,-2.004413897852169,-1.9022350207058116,5.15745876431766,13.35602909680022,13.453161496083908,12.620965734600587,12.728615457369628,5.64767305970243,-1.6436737279498073,-0.5533182884816654,-0.5698565432458259,-4.814555165598527,-6.144589447300234,-10.748620884706977,-18.915948483640943,-12.66408017310095,3.3979375227989728,4.852891417959552,-6.282628563181898,-16.453152885722545,-26.28749648401225,-27.099080125530453,-10.744828671765216,1.1662545044311066,-6.63980234031213,-17.817521369392967,-24.347704442493754,-32.71997367111528,-34.842268893671736,-26.699910365493626,-22.877683081608822,-24.22751248278237,-19.12604833147367,-13.548252610367527,-15.063980749682491,-15.313530970561244,-16.02397629555479,-26.9711682319996,-35.20146317971626,-28.418882005061434,-21.432427244245265,-21.459042359183876,-20.59261588382201,-25.370888246726626,-37.37802288297191,-38.986855326000004,-31.427905111833944,-31.734753890361596,-34.82520605720839,-32.94352611913509,-36.08985287294372,-41.3136668282575,-36.14910315793787,-29.390226260203576,-30.255778776867224,-29.997242404739012,-29.279522617908555,-36.40190977739165,-40.32225703005001,-31.34836991751544,-22.25877887039041,-18.76187240390393,-13.24571714782844,-12.831460814819858,-23.510894726391506,-29.325242239783663,-26.22811849345188,-28.195846846774593,-29.96489966675982,-23.49912925927016,-22.951515531478677,-29.458094190172368,-27.82954084010406,-23.746184106404634,-24.428351890100664,-17.303632170975916,-5.80640843888695,-7.800893935898671,-16.162272221562716,-18.506016421409374,-22.939796477120392,-28.641828567716132,-24.68447191661177,-20.381919262681944,-24.820381948332983,-25.639744082432095,-21.064502580344023,-22.942009506980778,-24.412126112835068,-17.3797188960119,-14.410735020228326,-18.31351207906554,-17.1267996525443,-15.30473208961423,-20.174784751948934,-21.088538573013995,-18.18052770121981,-23.896490459533734,-29.145011851316,-23.18844087584433,-19.381459726714105,-22.040539195926648,-19.395554110760692,-17.068261483028714,-21.713134493340174,-18.83037698575844,-7.75994768000033,-5.238980729836005,-6.8628178164719085,-3.6206318333871943,-6.344627227014186,-13.583305208037292,-10.369540334939725,-4.434081756097957,-6.920044731872369,-7.439296329141373,-4.291166409890145,-7.731574829301142,-10.063513572880572,-4.610787397724032,-5.673306557969325,-16.548225942480865,-25.556709591513926,-35.99043545541637,-50.37381645941787,-51.508545075002054,-36.07067366417265,-22.282833574032566,-12.91990434192733,-2.9500086925179003,-1.4629691766443642,-4.155558356998442,5.714507646500158,18.408206668065816,17.541523775218035,11.888567742704439,6.167565424952796,-6.723162159661204,-15.210809851000166,-8.465931858627702,-0.028439820027985396,5.191521298524785,15.072502518511302,18.69630887097086,7.295250689914385,-2.0455821902948754,-0.8973411646762016,1.0292670467657214,7.114459078285899,21.051409027464373,27.160834599361838,22.403184585571935,21.6692610341603,22.85426457046347,19.031910877639465,20.423744005326935,26.07260619398533,21.740449257327825,14.89381880981357,17.783619877896797,19.921764764128717,17.54912588436812,21.222703800834882,24.325953964399325,19.17556954040169,18.217993730135923,21.8223306544686,16.671706071856164,11.050781431987609,17.256537747716614,25.369565686156974,29.662284005931152,35.55872130123285,35.033385955192195,22.692619681794042,13.257459063318937,11.493359297465606,7.781206702958021,7.187413887130799,14.755014317776233,16.69200584302684,10.367560881122287,8.64067923949019,8.712494631245319,5.217614613436424,8.721347520830959,16.353259507450844,11.881715711585892,3.4190722532761484,6.935307734207168,14.597181044787494,20.587127783220378,30.11713415788765,31.580879181998903,17.05356827868948,6.0850401738259645,7.288721129851067,7.874486691749542,9.712294210841284,17.805475531301397,18.966824970628622,10.861833041605454,6.254231314362629,3.049678059403834,-2.281177844192767,2.1813580543617457,13.515219091938816,13.074431057590543,3.8541920894144033,-0.9286670555704826,-4.1241858274462375,-3.5918074923428227,8.843602799332425,19.32473623314673,15.101513461752415,9.703568719537845,8.05559916121648,-0.5286678375851892,-6.932538562425366,-0.237622135186486,5.105609127290355,3.8067186716064807,7.168461376379968,6.693660184154503,-6.865687717248107,-16.55288746990668,-15.560165815292923,-15.66818524008982,-11.733916388250723,2.0021664194412185,8.747663497039346,3.345043312972031,-0.38947796375552995,-2.156112818517931,-4.643152923511488,3.1255429044456124,17.85484938202639,21.029396847731626,14.506264924200721,9.28866719054824,0.10012182288650306,-10.721843605215094,-9.163192637372301,-1.748383059573897,-1.0217609777638956,1.369818639853829,7.4913419252028,2.8904860552892844,-8.180197460342233,-10.918853884790085,-10.664611255023537,-10.17462515822179,-0.18265808024566432,9.252487351062907,4.634217995769156,-1.1737493151881453,-0.20064681871273948,-2.9153222157740553,-4.405275144293883,3.4887358421117574,7.803707543080047,6.549749505352803,12.953779815180624,18.272081628257204,9.792143605513608,-0.1302200291065745,-4.450803692491058,-11.519655263401779,-13.158368432456802,1.0193518326425988,15.10251379530775,17.66834787609175,18.09219419420748,14.334794304482106,0.7011091531567679,-6.940895740260325,-1.0784020673403316,3.6042482048620728,5.979782225556441,14.028895690652323,18.323827145706964,16.30065703062909,20.030429048951593,22.354481775732552,12.496391832752767,4.809502603737334,7.0199832146814405,8.240732789936507,10.535147277507276,18.26997928827268,18.630704220089747,11.011611119797033,10.606283524949927,13.335858878180545,7.857633995259194,2.184651256820986,-0.13884072828183952,-8.644634908917379,-16.725517803367882,-13.755939383995198,-10.506183892678806,-11.549117012008809,-5.5747019236891475,2.031158223134099,0.9389907156736046,0.9039818185875811,4.438749613452589,-0.17987892965647934,-6.536484486707423,-4.060304795872923,-3.680006298684309,-7.522058371460979,-0.9231201635214066,10.910718036347404,14.685389338465587,16.633123733204606,16.642091975256566,4.507007613320556,-7.016547535986239,-3.7962846564920127,0.9187069524345604,0.16477652538713472,2.9042233385658864,2.44112125837962,-8.772506886027605,-16.797658767055385,-16.28324141844959,-17.960100722575216,-17.79866374040794,-9.875765183608216,-8.742387064548147,-18.436665398746047,-21.70411306872979,-17.09293899877853,-15.78472537347523,-13.002967989815739,-7.954280786549006,-13.67259584519058,-23.04377069086075,-20.360717313082453,-15.795464332193557,-16.831796346004587,-10.589083222540143,-0.6039826757320181,0.05852473757897081,-0.020323535565031192,2.861714245522495,-2.4898916708979675,-8.166331204551698,-2.916893374570351,-0.13302174018017235,-6.603928423672569,-10.294433233656655,-11.44368479335567,-14.703330084206893,-10.016598893921422,1.492852705705333,3.9902404750056695,0.37757180233207954,2.0010745656423508,1.3190467096628695,-5.620356629620484,-6.645411438783317,-3.670839455410273,-7.001190578468362,-8.392637210238261,-4.440178874979951,-8.053632702217524,-14.43980852355807,-11.388542874111112,-10.790556599451499,-19.08942130970346,-20.920443809571392,-15.976895049987029,-14.132950537440761,-8.80130811578153,-2.947082917842987,-12.725007478767745,-25.86233504625151,-19.971672069025544,-4.191962770718721,9.189585555216262,23.34736235333834,27.740864298307823,12.86702804405851,-3.2992163412167272,-9.472160264670778,-15.890023146971464,-19.435825909681455,-10.88190198510176,-2.650527610054911,-2.771709669237293,-0.6973747956921338,1.2982694123909693,-4.642800479501858,-6.488993611115021,-0.30676560985613355,-1.3429818629280421,-5.643835013156233,0.6581130225199234,8.195478465275285,11.752871488777439,21.98697470973985,29.95555277158231,22.28111037511798,12.267287850707167,8.01132015484988,-0.2696813096838766,-4.908516164522587,5.378208922354327,15.194572895687243,14.036827500226781,12.071235972991476,8.373658471171703,-1.3950975088450495,-3.526782192382342,5.099950460505575,8.842732148879215,9.041328357906787,16.594640990164336,22.424411848788697,19.668404723644173,18.713724232751147,17.544541424975264,8.098237194330142,3.344658321372046,8.602345940449805,7.5678386204604795,1.7176920897877548,3.2246472309088343,2.350620905701847,-5.486257403990663,-6.481419748119713,-4.181643662500164,-8.817010274323959,-8.30216330725416,1.4062414440224091,5.215517441822664,5.901735047322932,13.056645614922973,14.41955237110294,5.39917865703997,-0.6120569631804158,-5.836379258710292,-15.51906924175499,-16.315237089970733,-7.012634942173305,-3.302057389076499,-3.9916578401059573,-0.2808007692153922,0.9042715403894397,-1.784726711767589,3.499741515064054,12.043640201762432,11.713167304590058,10.59754854510805,13.833335394313563,11.836489888773766,9.975567089881899,17.558208043421484,21.673319814523882,16.260847602250443,15.215297804954075,18.247121231039205,16.806517742030874,19.10601578056847,25.50308151496307,22.46326621418014,17.787208708128354,25.140232057948445,31.61236148941672,27.291639176542255,21.644590068524387,14.163369151746679,2.9805536544578866,4.329322265264375,20.725518232785507,32.29829276149363,36.16765053030448,41.62747652879685,40.66762209604843,31.093817834770633,27.76820707957582,28.218199617465736,23.67273310499474,27.655718211792266,42.86172127506114,50.06000138399605,50.94335783709021,57.718701952307256,58.12765840595712,46.218107192859094,37.724261064031616,30.499789194459147,16.688385238960482,14.494148424323269,28.20546291947654,34.24231986509636,32.2536094531503,37.13674842029642,40.64774498238619,39.05487247280642,44.05846245614151,45.723415645151604,30.00005572649213,12.234064854808357,3.040304646658912,-7.294321480321337,-13.270118423518436,-5.445800368993679,1.0794847983831568,-2.363667293554058,-3.3429374554914038,-4.219005844344425,-15.894162964845822,-27.9289025648215,-32.98834699503141,-40.49382540247617,-45.13220195328976,-37.25989668196212,-32.35079259132231,-41.03181830195751,-49.71804894311722,-54.988240793124646,-63.95538471097312,-68.50758421057444,-65.02600143365498,-64.93865733993408,-64.88706458425553,-55.74272797206943,-50.935123217968034,-58.59717755913605,-63.043953197651525,-60.755625618480096,-62.247774945762565,-62.99328546182046,-60.20769488290375,-64.0738497580604,-67.71982059655018,-56.97482362300957,-43.38711729762329,-39.43837917038448,-36.695228983797506,-36.28935037124027,-47.82770847149602,-60.31085780504685,-64.14560972642609,-68.55497062810416,-70.2525469870497,-58.84224548335392,-47.582862513655726,-47.42882777216686,-46.911834470999224,-44.811797647496206,-49.50743274303214,-51.1156759682149,-44.24324840864657,-43.4578212061222,-47.953229286625564,-45.11609416253691,-42.95686271094087,-46.46759242496428,-42.688856301612994,-37.24224424877311,-45.4144794104881,-55.77394798955701,-57.741949927675854,-61.24660864942984,-62.85761290652336,-54.59773237953383,-52.51591911349975,-63.58087302481218,-70.45652629273852,-71.9626412526143,-79.24421699658387,-83.14438993484482,-76.79623257695384,-72.48278041242514,-70.32410408867716,-62.715175252239845,-61.25709297551375,-69.65052070557175,-69.70828258072976,-61.43475718447023,-59.34294386573938,-57.51414885595174,-52.14767884389158,-55.954957696079305,-62.20227911649754,-54.50283961097652,-43.00439831379761,-38.60677241567186,-34.36867881145351,-36.83232658901821,-55.4853398560409,-71.02464797111566,-66.45725946186252,-53.03116770460392,-39.27455583410793,-24.682488447458585,-21.1930535758027,-31.58933084745952,-36.80305534401327,-33.73495326500459,-34.297497608688445,-32.515679162392786,-24.55238757449009,-23.764576500105996,-27.637428628007036,-24.24894074735932,-22.875287692250453,-26.86949642063121,-19.9735238440309,-6.15988775704292,-0.6826558136870364,4.7228336811193445,13.79740120666276,13.019728349817136,8.554772612588414,15.273876472148887,24.105569243762396,27.650162396817922,36.56639680456854,46.843197754490156,45.110869453265934,39.93501391903345,38.86549980615451,32.918541512938546,28.387252920464874,37.40969615410128,46.73089096967638,44.74443071396996,41.7328519257272,40.715551779803874,38.615467157136024,47.851467220850196,68.74068228211276,77.62158205020037,71.06558316564477,67.42073773680887,68.62930445858439,72.76616796285155,88.05729744624048,103.77428131710317,103.14297925741604,100.08615477614742,108.56937665307568,116.74065223790988,120.97894319935757,126.44527631156993,123.159876087056,112.79062931140714,117.02262327071452,136.22306353063823,155.70791140322055,178.9803485086759,205.6910457021621,220.1331820626608,224.9614979041433,232.3801507100968,233.26947063829107,221.5922666336827,209.3578549962926,194.0993467637311,166.85971206391284,142.50056201641252,132.12439204029556,124.51136523452178,117.29011511177293,113.23659961010654,97.19693632440747,64.51184222325732,33.745267693627156,8.92011032543348,-16.03658140306709,-30.85046575512622,-36.23559177843269,-49.78638634868622,-67.72730668944361,-77.60439679309263,-85.81305179363619,-93.04061745771243,-89.86119481028827,-85.43734754023826,-91.41960677448161,-96.62741697726537,-92.19704253064636,-85.04474778286263,-74.53326197905646,-57.74798836124172,-47.52614686959005,-50.542850377560576,-53.78616024174516,-52.20744167215816,-51.597512876912205,-45.081461324583074,-30.653717016167562,-25.61025613216283,-31.581445255603747,-32.39476154907168,-28.56952879915127,-24.08272692830163,-11.367408034887829,0.25899557212280566,-4.405419331819202,-11.131800672561287,-4.446661061648093,5.221593071693906,12.253732037181683,22.037878899821802,27.692184050724528,27.24207969254043,33.699711637771635,41.98611427478151,36.8122457846267,28.827963225528354,30.791772329602765,33.51204039021714,35.07204994005259,41.583448298067836,43.12163362478651,36.54333254467468,37.43892980639311,44.208315691848455,43.25509315044716,43.092644254534434,51.33628324460132,54.30777401408612,51.41970295377766,55.69502667427639,59.693609772081544,55.30375845670946,53.76661250096092,52.87091502934865,41.74517907777378,33.56909327484961,36.50330667972661,34.73060042809844,28.972415499968676,33.549994320468265,41.50904962819037,45.667108072681216,53.02197552629912,56.28192919855938,45.4728219856891,36.267424095350485,40.145447180313894,43.62113436966109,42.929661772190784,46.838095850897105,46.62447187900437,36.40555948977207,32.66210469999058,37.20695393136474,34.63384367312254,30.008169640615982,29.216451939394005,17.410597954676035,-2.0626207817237594,-8.630120267024793,-7.289749739868574,-8.723733288824661,-3.3715758919227117,5.9652685940791805,5.330300977389292,3.0494274220272066,5.494585807895333,-0.6367093672363615,-11.605990237165805,-10.541207987039002,-2.765047970277438,2.56710732657339,10.207803706993793,12.135034366333441,-3.161133789268052,-19.28719489642055,-20.919031218221235,-17.37086061644734,-10.569142365080864,3.800182826555549,9.99635925764766,-1.331548096645844,-15.512136365580558,-27.32962870773671,-39.87616094677488,-38.88133008073859,-20.76318963271784,-9.475386160364739,-15.328047078310373,-29.287387849429926,-50.44368808005394,-69.09600431241093,-63.374486506729,-41.06405094831001,-29.451664148315572,-30.905122201169945,-38.90389530858575,-55.7095035455267,-66.11657936829475,-53.29940460559719,-33.870782690749806,-26.080716711918242,-24.228364610896573,-28.910801892012742,-44.66450240149065,-55.11307373125166,-51.14345127896699,-47.80342165253216,-47.602175865678554,-41.06556181859354,-37.7088276023573,-44.59819277567502,-48.66851961612579,-49.52704285586284,-57.810828478940145,-62.85049343474304,-54.66741739592418,-45.95124302959815,-38.99109755741712,-26.21854433764978,-21.6744891563071,-33.057245237111815,-40.4828039826443,-37.53032013793235,-34.71200513194256,-27.81704849821274,-17.838793676100146,-22.06801462077329,-36.189913159572576,-41.403580992228015,-41.87565309130962,-43.83688579644447,-37.08822710961411,-26.77781799452368,-28.204291505602264,-33.04449303832335,-31.534072714297558,-33.60219504595488,-37.92751193018191,-33.06367803325537,-29.066718039496394,-35.20514702699307,-37.52081696472209,-33.91941293330785,-38.04550651314462,-43.4201904776978,-40.29214477841282,-38.36481811169221,-37.70791920907781,-29.28958889619618,-24.593926795898494,-31.89620846518866,-35.41214810120623,-31.47609913126214,-32.025521804059714,-32.554109304835805,-29.329167689415847,-32.3787660379404,-34.740222682935595,-23.583993011046715,-11.906076105724434,-11.779683830721709,-14.135297161012845,-17.44115604358015,-26.68366133611695,-29.98502117748025,-21.368189287991093,-15.88057549939806,-16.866111686693607,-14.674366003694058,-15.388948137685693,-24.02840535924992,-26.57057865578102,-20.842018826795037,-20.186931146254864,-20.777782489577724,-16.333037224473532,-18.1569604284713,-23.84155419729075,-18.601768716749035,-11.028502859984048,-11.672480075482477,-9.716188744952074,-4.295659705017322,-3.9835476899318887,0.6494960725592895,12.437091600946594,13.76652321359393,4.53433749747938,-0.19319416679039758,-3.6910651539084567,-9.827880020697103,-8.033263750170708,-2.007533518159379,-3.7527611802039305,-4.1889656093277905,4.41337024364263,9.139075287393435,7.200328957906278,7.830124215937679,4.005973936834897,-8.654223368987397,-13.696153424724331,-6.9227296031297065,-0.2196262490034684,8.612742037655886,19.193724366246126,14.43569059938955,-3.7726134520403276,-16.694039768451905,-23.913173075277225,-26.40454866810046,-12.063981437285818,11.385777122670794,22.95809580145885,26.04183067762912,29.255271849442934,25.4018398031496,19.31894456683067,22.6759669609798,24.405466987503146,16.151551719631108,11.724631686974549,12.491740104927006,6.175479295265442,-0.3392428191364065,1.5473400829322275,0.8971000517167957,-3.5339623320761566,-1.0594093547856054,0.28249231990189994,-6.7972519610341005,-7.2386524277776285,0.7018771519986866,1.50542894462933,0.16953223989572164,4.796573712362317,3.1236770467637633,-2.9788002621608154,2.4669044072356203,12.178221066927062,16.745427079115636,25.021185067994946,30.958080399972957,20.87234552481872,7.462475744624957,2.9895746583372205,-1.2762736827314711,-3.5463120604551284,4.481916701018848,10.16502448119876,5.045551133880677,1.271095005852131,-0.1659143283517131,-6.588585318795881,-6.595349616086901,6.753262001788887,17.91516233281823,21.46054884925071,24.870004389025617,20.279119960931137,4.671394027182403,-2.645390186500419,2.1688925477979653,4.488099365890852,7.273825374907126,14.543418288615445,13.29446153858294,7.658023983938179,14.263115260800848,23.52740718850541,22.509923761718518,20.237133689278302,16.74538842756308,4.3268756079646336,-2.8812513079555346,4.856685169578269,12.250371533747808,14.493947876228571,19.89714275718634,20.78140378992326,12.593576529275344,9.567856313113612,12.884358509053342,11.43830006645929,11.477707553245017,17.637211714557182,16.565071919126858,9.60901863240828,11.65848570978014,17.381199845019726,17.439758044541904,19.005398011475354,20.680894909211975,13.456228339730908,7.5211192442084585,10.925162486188551,10.730269219737789,6.627373478323699,12.566369779022793,22.05807305274662,24.252175790992148,25.70576582420034,24.411354938477164,13.08423408778069,6.108263199332423,12.773982549529292,17.748904190325202,16.961254186027315,20.31092327023598,20.176569970429195,10.340811633816951,5.7716495180406655,10.016565722401804,11.66815398824395,14.877520475009328,23.376504442829223,23.015467849914312,14.589620427667224,14.449778866050401,17.336814040738012,12.572139359325071,10.14109612833985,12.982025333016258,11.037798347434485,10.44074593661417,18.04214145635477,21.25242966284362,19.48434081803345,26.421000458713845,33.680183819940325,28.52061077645292,20.82248364197699,14.939596788424513,5.209804809898292,1.6039875857523156,8.661126335654563,10.514404033465652,5.903633332651406,7.594415763807429,10.886280079033341,10.09472963814799,13.985987536121542,19.149944744596162,14.536088776705252,9.018018952953794,10.454043641834614,8.246732935954908,3.618118282426309,8.258818820559295,13.237998274821631,8.956677792891128,5.925928566404119,4.449510576551141,-5.0266718505169345,-10.6371897071731,-2.299850611310261,5.039072629135278,6.908850353656796,13.490663033700017,15.712299102867053,5.8883822725055595,-0.5044227393862769,-1.609290301073507,-10.574688966800712,-19.132298879993378,-17.738844593435353,-17.8692120590148,-20.119158756155628,-13.766954845100802,-7.918426277440499,-11.227559730903813,-11.16118384202627,-6.51210904176269,-11.176157177050797,-20.197350142614518,-22.93285042978143,-25.16466528589856,-24.1503777883691,-9.816736178323717,3.359584933653095,-1.1347203169649052,-12.294492647999565,-21.68842374847291,-33.917817828749705,-39.36071513224965,-31.338252753636613,-25.315012964772045,-24.10320206899044,-14.562826642715265,-3.592249632763454,-1.3248541997132306,1.5944046021804557,3.5641527592204056,-6.374731721685853,-15.738963103456758,-13.272767930653057,-11.004778290558617,-10.120681828765196,-1.9113966487116456,1.7356765542581174,-7.4672518756382456,-15.110832491347242,-16.852738252366613,-19.51398682531572,-14.38288723109955,1.9309610343766845,10.171049554389338,4.298013754805391,-1.657533555436951,-7.248920795291919,-14.733976933115109,-11.131071768184741,1.087896643188655,3.600598483968224,-0.37662191625830244,-0.5587644926117347,-4.792499278228687,-11.792596586529458,-9.120159113330224,-5.7244623946142426,-10.79761067875554,-10.471215878174075,-3.320275012981518,-4.2532611859594365,-10.809732298192705,-17.727804913565127,-31.805684340633235,-44.21446597447598,-39.06440319905522,-26.86842009421278,-22.426749204753794,-19.55328608348698,-16.78640640245785,-21.055989034016307,-22.787383808836204,-14.839910568321047,-10.935532816205024,-13.607663114745963,-9.694854225410948,-4.040832421857017,-5.774610410876505,-4.586901429308582,-0.32162638164068635,-5.702566702863383,-11.619427217125502,-7.395993090898582,-4.426622652258066,-3.124847786199667,7.3750279053062915,16.02366604725202,11.937855636006883,6.770549695420437,2.888585636286459,-6.206819770754123,-7.671244528172351,3.804073682047739,9.62760608024971,6.8151704087216,7.760815147958797,7.652222756743507,1.7975575889238484,1.7619836284479904,6.413232507246375,3.3185512630675813,0.036543891374395066,6.270526990107598,10.983702380774677,11.785129151787272,19.154891760418693,23.91387943277709,15.220521747576798,7.302725494921856,8.042717358097462,8.663902781732263,13.588447013380138,26.378158325680147,32.13972582816165,31.29831463302481,39.24090831080764,48.983361235699945,50.61155798884652,55.4304042203909,63.84948508894014,63.81005975092492,63.04707446375408,68.17041947973152,65.9992545805278,57.77273781075769,56.33814178786614,53.38664734302186,41.516796309147175,34.71892007290255,36.31860448008025,34.239532712788794,31.207934998962706,32.398053367819976,27.08690158060903,16.282400947588016,14.50004986496057,16.390561355450163,11.420664062157261,7.941722371206934,5.174580812762732,-9.08232001860936,-23.911857763365695,-25.894434380907477,-26.888432416560946,-30.808683261688305,-28.099735046209496,-28.976750190828447,-41.73895084401317,-49.046005661142345,-45.690686675632044,-43.93718904743249,-38.35280889927908,-24.94607957788807,-21.00616212547154,-28.310974663486455,-30.536348375963165,-28.9341819051573,-30.01184778842698,-26.647917006405255,-22.914348047116746,-31.45687617677769,-42.769146714723526,-45.3857772949124,-49.54545954477028,-57.46883123199654,-57.708575806876524,-54.50972567048395,-54.197619662748025,-47.38634725261006,-37.21140408789409,-38.38811165358552,-43.251374938889235,-40.21565911919189,-38.48152008868619,-38.325625062581516,-28.91064761946224,-21.17485467184418,-25.94278794720931,-28.535977967102912,-24.206333748530362,-24.285307157350275,-23.284601516333787,-17.04484999859318,-19.39825289972562,-27.03061450277564,-23.33697091726275,-15.316481249616592,-14.839280902068548,-14.507620951194328,-13.033476353774823,-17.901234415374983,-19.769419475589203,-11.865888690533932,-8.895235470789562,-13.804363654562211,-13.702480605935907,-14.023672790333308,-22.56514235845088,-24.638012785159393,-15.103352562114493,-7.7368385550825245,-1.385935516647771,8.587949126138321,9.349054756769835,2.232927744382466,4.926129690602967,12.071629348924104,10.169437513947114,7.284961833863667,7.533158437476944,3.8093297509922395,4.757275318887179,16.772136314157613,23.477651447778655,19.898239937237896,20.261403451883385,23.153013032017565,21.183033012772338,22.16208722594255,23.014117155781786,11.194491556015613,-0.8238886999837609,2.6365955205019125,10.29800788361616,13.46459819437155,17.425257922418048,15.91475240274078,6.5139097330644535,6.171242837902611,14.188604040524138,11.587159649974897,4.660753227576601,8.881386820041952,16.43591287278669,22.91763536814888,33.44276838849976,34.31471655594167,18.398764916016802,8.428170204170875,12.535718729583706,14.842987959451197,16.535455317188323,22.8311075218925,21.39060492511639,14.077504296887486,15.814090588170936,19.80669006365395,16.402834083328678,15.382628928835878,17.215638297851264,10.871252284345607,3.179373377050416,3.312205739363344,3.4155947942104534,3.587052286021801,13.43143160945769,23.9214637080632,23.468142452273515,22.022693894109132,23.624415685715217,18.616314545928816,14.737371400715293,20.93193626262198,22.814154580780638,16.951770488313514,17.074722917568838,16.647502005695777,6.483573616292574,0.3823361012299554,0.7399529140554493,-5.030441296090855,-8.16040087339884,1.873320611617629,11.971115804778115,16.890349764878145,24.48005181877688,26.18566057798612,14.986483252844307,6.599648250560376,7.770039092339614,7.756017085482364,8.427599153846405,14.645404937495208,14.901807270028542,7.114107440700634,4.523421445047198,5.276037186294907,1.1850491472764761,-0.4021882523834011,1.1655250979355456,-4.822826469662804,-10.799257721000163,-5.069001633864833,1.5736910792624423,2.340675521823315,5.758977204807016,7.226048472225805,1.37905451608186,2.6504884869907572,11.564896322058262,10.044396421242462,2.152685186943044,0.569986458673304,-1.9171152878727615,-5.864350883092178,-1.1048765659641617,3.180156145348883,-2.2287250295043948,-4.057918072286439,1.0239230225790532,0.4893256448214942,-1.9004732670739939,1.5634463561141128,2.0212459386587915,-0.8686751889320266,4.549442365385611,11.7597341234589,9.228299126245597,5.234362525541904,2.6452785261201304,-7.098011314878316,-13.384883598336588,-4.753791638813493,4.1527139884931215,5.1368194120592445,7.564662747607777,7.906453761629528,3.146142010031038,8.054227836062562,20.39706005571937,20.3754854059004,11.067901010240938,4.537829211210591,-3.2672099521838307,-8.171858981554024,0.8456059347620744,11.706095891246736,10.663454938494045,8.508705968360701,12.183923577788244,14.661784928819703,21.809984908541765,38.53181738410518,46.78210072058003,38.720567408975995,30.46696518243573,26.290411760550143,20.753875216787144,21.706131301800248,26.615473641275198,18.58838717974659,4.423288466314279,-0.0965117136605706,-3.956971153692898,-12.522234685097484,-15.210876317823042,-16.91991161203615,-24.516467418270032,-25.771548981389913,-21.348218349877044,-26.711582221913044,-34.319170640026215,-31.454823284796742,-29.657468304432463,-33.942633998230534,-33.57430535314211,-33.21402189685526,-38.3662626582054,-36.48599787886877,-29.017155020089668,-32.900447361202296,-43.11294961392963,-45.30634512979313,-44.121913916968126,-41.31484206785883,-30.255400687480957,-24.989116102135057,-39.344869849758105,-56.002819052644526,-61.347695172020366,-62.00718273617759,-53.22957775012293,-33.57140265707724,-25.725363204535178,-33.95581964275534,-35.91805172836378,-29.891449560530994,-26.14239111735481,-18.590631308132227,-11.637242734185563,-19.50740661269257,-28.59952082530193,-21.729286560571254,-12.542485581417418,-12.084996482459395,-13.22776466610743,-19.24866447102117,-30.60725315993695,-27.242071026370624,-6.246680249316587,9.91621238113117,15.136777231137492,16.412050632451155,10.060436084788588,3.453568915055672,15.243042550771909,37.52100788260194,50.61727916161223,58.57192113779282,67.06183307056948,72.38176464686026,88.56511401712035,125.90590058167574,162.7060687800585,183.87295064990724,196.00840514347777,195.14439582681402,178.54985628673538,161.4732537970226,144.64726427938737,114.65864234512736,80.71756759212295,56.68644443436057,34.0700069769841,11.573562655813326,1.5217276852444614,-3.2074801169768707,-15.314400849317868,-27.68041281693048,-40.842674354994884,-65.49564563191825,-85.73543939061388,-85.88753056470901,-86.46956105288551,-99.31297601267933,-110.7273340032992,-122.82003608199562,-139.070721740744,-143.37814289423056,-140.65452386516316,-153.2787318606098,-170.63696173241152,-170.1516392428768,-158.26160326391795,-142.574525002524,-119.70552221446428,-105.58074058065499,-113.5117426519234,-123.74140888009732,-121.64143859476664,-115.74715164692216,-105.19835030851941,-88.34730287531289,-81.28101550149088,-83.97296499402805,-75.11654256551182,-54.072193517001736,-34.67905595194294,-18.653023703652355,-13.230690200940376,-27.251665077331495,-40.7417332744679,-31.14614389204486,-9.096899317068697,8.155633672851714,17.35192816690895,11.801233898482362,-6.519806074955561,-12.485149925278103,2.7295384419768087,19.095512208424417,29.684476284270215,38.54246727379391,36.5251349545218,26.68981685873422,26.765117918027777,31.481179979671595,27.833760237349384,24.49283278541413,25.617621480939324,23.81023037216559,28.201834076257285,45.92695695630613,58.51055696651818,55.99486166285845,49.6166211285364,41.67532076181705,33.9424311707788,41.29319797720345,60.00691851913904,67.53742420429808,61.87491708106729,54.70484953272012,47.08607692191694,45.268056984527426,59.25689366346005,74.21827756137824,70.67083624620543,58.07580110353326,49.407564603529295,42.881067408057945,45.0399571722421,58.28222006453922,61.764326365628136,49.36518568177604,41.79696052262848,44.439288718470955,49.24445937901331,60.366019961333095,72.31167443391092,69.51927502374852,62.59517797391129,66.59272737305434,69.05400873444121,64.25508759655693,64.75604457390669,68.49376799059638,69.43595686215784,74.93752526091984,78.82937147797469,66.48045846233711,50.46277018062787,47.93758856214838,48.94529162827245,45.2400608466874,43.40329044448913,38.87072529792182,27.50979599798797,23.187720981289146,27.929007498712963,28.41403166428282,29.126851021093724,37.38059608790168,39.94626628689025,32.386101974579795,26.588528833412255,20.625633726172744,10.161441142549725,6.419393837052674,8.435830768296967,3.287058365552107,-1.250296279965329,3.9284709507556057,3.997260902835496,-5.235782625136673,-6.639563689049974,0.24773816430421292,6.863895286070954,19.58444210480163,32.00311958376014,24.15229217376127,4.563626648194207,-4.411646784174987,-4.834501625889919,-2.76306107899946,5.891334511598568,9.107545292695937,-5.7080636692957905,-20.192113148107836,-17.59227912885939,-7.537246062843558,3.5943870861125786,11.79608988734524,-0.16787691258668502,-28.46788994136408,-44.08682499429351,-41.5820812562994,-34.378540271763825,-22.481906064679514,-10.490952242957025,-10.892342059083294,-14.551758390932566,-9.481978172466238,-7.165093195402885,-11.554013080666431,-10.25496358665308,-8.20929743145157,-15.901637560257537,-23.14651429372154,-23.97970801651112,-26.850426356605464,-27.84587738786518,-21.281424350474445,-19.94006533063356,-26.330189954341552,-25.247368149667544,-19.44453895868044,-20.17829694618765,-19.41771361342403,-13.887006784999663,-14.250562228520714,-16.002307759760928,-12.512360400976736,-16.648023556000773,-28.906674859241416,-31.62309998386806,-28.034105628598553,-31.354700154729773,-34.597280655618896,-33.69604900218836,-35.623939520315986,-31.87842963364458,-17.40807678435084,-11.45173207601567,-21.010606835677468,-30.61959288790583,-35.26759772624794,-36.00290329887399,-25.729095484164098,-11.776743863620467,-12.593901961127223,-22.498107494715914,-23.861904733363485,-18.051456021830965,-9.627041575736929,2.6701385144013075,5.335372428288007,-11.761110694676612,-28.48032651973836,-28.87247291591899,-24.570692822914506,-21.093735914559907,-16.04054708283848,-20.860283917294307,-34.41370738870215,-36.93237989470067,-31.08795626835075,-31.354440912360346,-30.242352563435542,-23.75828214122463,-23.67441077696963,-25.68740675353514,-20.599517933548547,-19.34878542323449,-24.605652355992245,-23.299352673457726,-20.319334014856278,-24.88426859226704,-25.481029842468338,-18.919022081513873,-18.01986708913913,-20.174726545917483,-17.530894260513634,-18.347273830046284,-23.072229845308502,-19.357106618732676,-13.067099532971714,-15.879658835747518,-18.40390870607802,-16.154909630028943,-19.236780369675287,-20.90121519399815,-11.18932529777863,-4.345937181803207,-7.791757789904561,-8.935704966933752,-9.644861110361074,-16.866117128974107,-17.717952876178877,-10.52878199827994,-12.94955944038869,-21.504641496812376,-21.020103526486864,-17.429733401776947,-15.570900010759697,-7.947212257508559,-3.3623360444343255,-11.818371571509719,-16.17035139289834,-5.814518858305321,5.091874881998872,12.747050010048778,21.153466590121248,20.539815698313696,13.012525218562219,16.263432196872593,24.69529517208347,21.144710727300023,12.834969854523791,9.126745495753399,4.585057080738498,4.834384468816269,15.270327441844499,18.369746640310957,7.784018488553613,0.6408587420352284,-1.7114647739586042,-7.045709494479767,-5.503103008831868,2.619641982528978,1.6842313746894098,-2.2182771540061905,2.0600360590954447,2.7328777101094834,-2.3372009269482223,2.351516669418519,11.961867111595105,13.456540279774122,14.967897509132271,18.4995697460971,11.092634429715275,0.42926916951025484,1.8534952858747393,5.743699804683412,4.538398597777576,8.565603963822632,13.50438112976168,8.359412936873735,5.058604675393807,10.921119925518106,12.189370408212506,8.854888037997037,9.719994584928966,5.065653628912961,-5.983839172744796,-5.235177501530638,5.18255071552648,11.182393334723892,17.515725703605632,23.2624126840846,16.48960569580989,7.4634334524337245,9.544446224889223,11.706242739944697,9.195969431613378,13.060710961724238,18.88739879655084,17.635983256371553,19.361653679592056,25.74600296722846,22.526513235073995,16.45168085135891,22.67334472362942,30.25548091095687,29.633800841563723,29.7476163401142,25.774760500651826,10.229990979308763,1.025877306291332,6.114762691526257,7.8435989131072255,3.24563649228745,0.03054713443476703,-10.051768793356207,-24.842630457270314,-24.96271204198185,-13.985418175020005,-7.237223792914916,1.708112185973734,14.902094033850982,18.50680277031822,15.563477369203747,15.407534120926336,9.40787154733641,-1.6536036977397077,-1.204553656705865,7.737651854547064,11.455454042223991,14.178142746663735,18.13983455113298,12.838924431341383,3.6413854560922534,3.0637358744121714,3.2911338114073105,0.8028016811743597,7.79128731695212,17.486663999708664,14.235260554981911,6.303948796021564,1.1121310314806763,-8.426241488272975,-12.974746422255933,-1.5902303035942964,8.536538120545556,6.943585970223701,6.083917211755577,4.413064303176386,-3.9257718580227916,-4.268383984248797,5.053625271061387,5.859353810091395,0.19182286919362812,-1.4388415247930202,-7.57290510686874,-18.282216823968465,-18.79406123929516,-13.690425615152055,-14.916979937231146,-14.946931506202393,-10.815117241102543,-13.211493547508859,-16.752953552853874,-10.01287138528142,-2.8578743626566614,-3.2481104039411934,-1.9713689236775673,0.3411608322171642,-3.20011999329628,-3.8680351896424865,1.1585769246521669,-1.0159917552428206,-6.7824766981688605,-2.870524971468762,2.4429110016286617,2.5665639938298055,7.782822043909329,13.382314607624522,9.45889762201166,7.403258384882645,9.506699014122736,1.105877807281416,-11.207220199388168,-12.505675361252045,-10.503605958841959,-10.61340125819024,-4.9251100570694515,-0.0964056858419613,-4.889365884213406,-7.156727778834912,-2.30285834317981,-2.3139793364343006,-4.013897190295377,1.5243581126673549,4.933393613123786,2.3296489768680018,4.042805140916,4.407617501552573,-6.330613881206078,-13.08526561987571,-6.074653855338181,1.1891140242080613,6.711686197130591,15.955089841130171,16.890561655895574,8.317274514468362,8.795806691177859,16.49783812904844,16.584483391280887,15.459265996065321,20.313054466704692,23.272538100863013,27.314486821140413,38.218138037484316,41.42662152346028,30.576529141178803,20.75975113087172,13.752398164414927,3.2068253194064926,0.9435595420081977,11.300201591293263,18.810131876983753,20.928424399022923,23.57167529265267,17.90534494455872,4.094556910010928,-0.7371119904591301,2.350896734370369,1.0292614584479587,1.9621146331958295,9.51838034560338,11.11575440691201,7.610088774909325,9.47918836905523,9.549405379134773,5.542678028377052,11.199290994168475,19.43039068026419,13.490220360476378,3.742688388862664,-1.0527118442187164,-10.780877870572901,-18.836153643063987,-13.002166528327638,-5.703837067019762,-4.605863438973647,0.8903440937231415,4.656303279734708,-5.127587612948754,-14.206968668952072,-12.107192670837954,-10.025686428108008,-8.209772727598175,-1.3823994903840227,-1.160857656522512,-9.19267761139386,-8.791780185654158,-1.2555951362587836,-0.011028186521095162,-0.4389812488919224,-1.599135784476184,-16.17450794240871,-34.10307645918315,-36.263043370719664,-31.35345785024103,-26.571211556292766,-12.306551907622486,1.7384029612067655,-0.39101741274518353,-7.945722298666953,-11.979498340727936,-20.48749799836504,-26.81859064386008,-19.27635035162598,-9.130691741177564,-5.560471578227103,-1.587837278662173,-1.2945950254921585,-12.28313684221449,-22.985844149998268,-24.94529800852134,-25.015115384866828,-20.660030909047954,-5.747381639635668,6.901223761659384,7.643894634581314,5.25646151824885,-0.7446217867275622,-15.953818108333891,-25.76686237080603,-21.93083545007112,-19.895036851962598,-23.195388142221816,-22.67005106864104,-24.46088922824164,-29.487046238623055,-23.977418891392105,-14.628271475483155,-16.249148074581036,-17.43431227343995,-8.6166478671204,0.3274020663595041,10.210115137543676,23.664754230431594,24.967145603915363,13.040814429030503,9.019932757018022,15.720246439395032,21.07050515818275,26.07633162992049,28.8446282137511,18.777018837121375,5.895551658999717,8.2372855806205,16.90043908956959,17.565283761610605,15.198677001748433,10.488308053670467,0.0673506035652256,-1.9132541254028532,8.357544715138173,10.28737946559578,1.5064013778388605,-2.3880062606648638,-4.567069514286676,-8.737371468924099,-4.045255337863251,2.6432342722923163,-2.360847298212599,-6.557655660035982,-1.9552052395860866,-2.4169143996635833,-6.478228271177866,-3.2732674527237795,-1.7642434506438494,-6.05129648167951,-3.4287602009531906,2.5169076732349844,-0.8738267694639408,-6.050246814062595,-7.364856595431611,-15.004221478872667,-24.119019118284665,-20.13952643327133,-10.742115103282229,-5.726036990159966,2.959504557874484,11.005000955076945,4.899791691299898,-3.631301901421377,-1.6878787856305244,-0.19353220099174426,-0.6899033867595465,5.356187427359285,6.816852445250621,-1.3620154762239491,-2.4834647142078445,2.8037078703514196,0.5106982565312645,-3.1683095500150937,-3.9405405799631223,-12.716368531390328,-22.141701695424178,-16.646315964214754,-5.972251881759849,-0.13520368921747783,7.300838713501779,9.301763789548906,-3.8766214037112876,-15.602147458554903,-13.076770620953194,-8.298981192623966,-5.020386158339653,2.5103126312309714,3.6619705194698757,-5.3514253663254046,-7.382015244026862,-2.038077080183225,-3.738219175961255,-6.543390399291485,-3.8397525573388114,-7.564566084513881,-15.202141999628349,-12.435861456662256,-7.121998035578085,-6.832868748588141,-0.5140119829151275,7.026034245785367,1.4605235631177234,-7.121194911059707,-9.698173986544674,-15.237927282999209,-18.98410796414069,-11.538973905929662,-4.876839168679664,-4.669076049741166,0.3039212084916456,6.006056014490584,2.6516069087183034,1.3099486785437278,8.317633184160396,11.094357947542937,9.625439651438656,12.848607125702657,11.946169045149595,2.7809777445075534,0.45058897130704306,4.60725517424217,1.9582074865970942,0.19976055621083122,6.338803146373179,6.451546029907197,0.8000841928370104,4.166761965785527,11.3233008230486,15.32433371874625,25.098650367424465,33.56891130083678,25.82509206229168,14.381524938990303,11.80106956484585,8.617937416294005,5.451968929061884,10.170888918242568,12.26375041889092,7.051387065532995,6.737857474913044,8.717760062330303,4.023642586525859,3.48362254820154,12.34509044903498,16.55092913841055,14.50208043168255,15.24200269564831,12.888156237679915,5.547721413911232,6.263993015703937,10.757893899494503,5.128636622112513,-0.14164296583547964,4.947233735017639,8.221549076635682,7.406854281805925,9.690886222550837,5.806456848113333,-4.937986634265524,-3.212608718764632,9.192675612992682,13.869225019654152,14.000332548201754,15.89657097397961,11.69041359221023,7.127070831903083,11.976490233685892,12.883609106421162,3.1222982033900157,-2.9060126948276563,-4.362746258264059,-9.743009849791544,-11.477888016733086,-6.530812592903153,-5.9486910046622725,-5.613885550385208,4.792357326643213,13.56918413025319,12.845822508257289,14.778833289650036,18.893855175639104,16.8718210348535,18.443079398799128,24.769262119371664,18.600548144457363,5.141381289234088,3.8026629644417973,8.552083678372524,10.27250390639868,15.511716805983285,16.607838626661305,3.7622702081003854,-5.286987246040603,-0.08916487054784605,2.8530810602409926,-0.008430029161314856,1.0133256489497868,-1.339701039614929,-10.15629627172271,-11.50122159933598,-7.857414662082686,-11.546715595246908,-13.406047919147412,-5.8731964747413254,-1.3662213318075338,-1.7073237685767397,1.425584813354062,0.509104137410847,-6.9957126979856135,-5.895395487085175,1.9264358959211942,0.5707354717694924,-5.157534751786658,-7.008982168577018,-11.740901096926374,-14.273519333119165,-5.292645929071596,1.1170275101237808,-2.8750381699959204,-2.0305933097463136,4.848464635441956,6.56360430024403,8.640667085912968,13.382973544947093,8.81036713702094,0.4519472469128192,2.677827667210977,7.013012444504126,4.174041927914381,1.6696057993236617,-3.209913792035989,-17.832267673946188,-27.61034374016125,-21.997539394336016,-14.102141833068536,-8.479545256261476,0.4679884971367656,3.0585808458303285,-4.179406597484109,-5.4785322472674896,-1.3668354354102439,-4.812810342573339,-7.475717609906864,-2.1952086771222534,-1.325796665801413,-2.0230761604086362,8.416264686717398,17.51454461445493,14.928275158167594,13.670886995112827,12.831251295029347,1.1104153724533887,-9.697297933852974,-11.054653246962848,-16.287817675105224,-23.91508007224062,-20.980298143597608,-17.067749309416126,-21.514629932333047,-23.84886652785273,-24.320658486349707,-29.52572409804396,-25.935442287767486,-8.176096197348521,4.116024209620988,4.454814750596545,3.249492046929681,0.42087735183813213,0.190909630914465,17.31201416004573,45.843392617461674,69.20021297377775,93.77029932149581,129.05835305079697,163.7512427376799,190.88162042009424,214.6232382606951,226.19550265005455,220.2297287079883,210.9377198776366,199.04659190612935,172.65168589529065,141.8147027958238,119.40747592394962,98.45855970504479,78.07582214142471,63.37462570713561,42.26327303781093,8.698824551447053,-20.322284084204213,-37.78173084241365,-51.951822878270285,-60.378184814797876,-63.70403126441151,-78.48780979105926,-106.1216217485442,-130.71651600047238,-151.47102069191243,-171.1356434448207,-178.09356788701857,-175.67388880687315,-182.63106884600936,-197.2996883702123,-211.0272756433788,-228.2218765685791,-239.25992383492107,-228.16136642723774,-210.30217026812278,-205.54168118283124,-206.6041498706009,-208.4386838226382,-211.9105597908325,-200.46192939901616,-170.28478778476307,-147.8422879898756,-143.46895905126223,-143.1740638671438,-145.41983892666775,-149.42674288180078,-140.69215343256198,-123.45114977519425,-115.11931178753451,-110.40402401147044,-100.29577063884247,-92.02596741392614,-83.34220667500588,-65.35288314672943,-49.03228240015581,-43.94100465183448,-37.71546231202213,-25.64610788008126,-15.752552152314706,-4.251517195338744,6.616713690993249,0.5050249071256538,-14.227701019126968,-13.468379816785706,-0.945658029632293,10.173047889518967,21.43014576245192,25.490097150539192,16.15351680049961,15.255435890960847,34.94006752498385,55.169863283515525,66.06375337529676,71.68104871820309,62.996085906592754,43.03061352935521,37.842105759017684,52.600671869871476,70.38965728232078,88.50755195641442,104.62666802102825,103.31879632489051,89.76175879961087,86.36439203064344,92.35036053208968,96.48845203385636,103.78556621308427,111.81484277171413,107.31181397629615,97.79544875270238,94.70823495573586,88.88929159925766,80.28720754901785,81.93616773378096,87.015472096457,85.95599988635819,88.2602192712424,92.751284860326,88.84224521010988,86.47204293325166,91.84614051899032,90.92514612132207,85.61864049352411,89.22396088124492,93.71210601869592,92.56992164757645,95.67437456976515,98.09643435530998,89.12608691022012,79.8718682209499,77.80380043595771,73.60121286485031,70.30806799085406,76.81791287599113,80.75363519258089,70.67644922955462,58.543428727645036,51.83392940024348,46.35485015312053,51.13467602109104,69.01707423958189,78.36435707092701,72.49430149393903,66.9661518683476,62.59868636205897,56.87720283708073,60.67719557629016,67.66723238839285,61.119747286933375,50.602425605192785,48.75973862117662,47.25749442022895,44.52100888612879,45.56813099647206,40.445039219995806,27.88488227881036,26.017252617204747,34.25266750618365,33.774939233241476,25.943997758935474,20.393358459865702,12.8511469143457,7.4970913590566095,14.245809568776572,20.995095928021414,15.361950528972702,8.110096098763188,3.9908516177337416,-5.1527996863291285,-11.289147225763784,-5.425466134364726,0.467513924546496,1.7727107093702723,4.033240511105121,-4.03111976534743,-27.543191466121947,-47.27619356823482,-55.189588182962574,-57.233726627665256,-47.680883170203025,-29.22626129163541,-20.994249327190147,-22.8174531940087,-21.845092604944252,-23.531321612908513,-30.993883865906838,-31.59297406758911,-25.914465830380237,-22.409184834055146,-13.67875883391904,0.5283122568574026,2.3416214400815214,-8.460724601316821,-15.301510812835977,-19.534302796568873,-26.495447736165982,-26.779181098096107,-24.10879466695757,-32.10589384706711,-41.288017741999745,-41.15237165020282,-43.3323203736724,-48.69651974416891,-44.62094255943674,-38.03852514337697,-37.826859293711564,-34.99241899452081,-32.61570241416987,-41.3783984928224,-48.32327099886851,-44.02435356099629,-41.74921830427054,-41.308763462252074,-32.896352164510844,-27.757263586930147,-32.70418963216343,-34.8196542711471,-35.31006344858118,-43.47542553181416,-46.89027315982511,-37.06534669229187,-29.69918920429176,-31.127202086941008,-32.63207187142281,-38.661471246298,-52.620653081368715,-59.216364177815315,-55.13523407858894,-53.65469202760107,-50.489141568202065,-37.67055836675209,-28.225771730134582,-26.762230640849467,-23.817344438457482,-25.553203399842452,-35.484052346019276,-36.985996421737056,-28.593297165259344,-24.88723667852717,-20.99433082653582,-10.011973040902534,-4.633229035541785,-6.481953873582514,-5.5691332235366104,-10.942581262440804,-28.627819816678358,-40.151258062887976,-37.53287922715316,-32.13709972923514,-24.729666011173123,-15.942524571646958,-19.294324857374797,-29.507376550587423,-26.801918925430666,-16.458726506363057,-12.796794941927136,-12.480858769020667,-17.19179068223835,-32.82936932355935,-43.74746441765013,-39.22438790759729,-33.23142806188733,-28.366865816733448,-16.09065368195803,-7.844858747356485,-11.662227014940704,-13.956030324557448,-13.20831911261957,-18.350997227810122,-19.61862564926838,-11.051500042528762,-6.631409761720076,-6.281113516502181,2.1175165105334166,9.965349019491061,8.24977476329775,7.759579272430437,8.475269657428676,-0.12087913510168136,-8.760439598005702,-7.525345635523102,-6.508987343230645,-7.996633634665819,-3.1189669864132075,0.3823307923356539,-6.222276410251972,-11.527889967646058,-11.96822642922923,-16.961811129390956,-18.455453564568856,-7.660188820890265,1.568361015072905,3.982020073987459,8.480884631171337,8.700561917844553,1.947576727632083,4.135217595079476,13.1102628286626,11.834348633765622,5.511244314880331,3.0953453357237617,-2.6243753699675896,-6.553793455668358,2.7708347427936935,12.288328658107403,10.820947311305183,9.80624823989895,9.635455149084377,1.2379803241870904,-3.805377416152153,3.124752914333432,7.906651786910737,7.525899127147665,12.975957731047846,17.361012616748717,13.34570856857803,13.039320408025494,15.168932836153864,5.777753072816875,-4.924105163356836,-4.077206491774938,-2.1837479837295852,-1.146668559112309,6.742564860091951,8.63106348713735,-2.954772831839188,-10.163662339275447,-8.193150965926334,-7.527000903476374,-2.330616729809185,9.306586432159817,11.24293849464264,5.738287581272525,9.516909954662315,16.812392790289945,17.122057887441677,18.283103170430863,19.462676063724974,9.890230396341437,0.8424223301917657,5.588665265227083,11.702462420650333,13.276541953276235,20.616107027521164,27.212875403843896,23.7142678985364,21.956125553780673,24.170740676032974,16.637327352084906,6.614425128564602,9.415192878011522,17.446950149429938,24.526242133829616,35.21469707211311,37.787760463097904,24.65042051130129,15.226457906754053,17.380447075964675,17.93757240394644,17.228534355780997,18.248136412785783,11.28924401684938,1.636370924976477,3.405638312875041,7.744483285437267,4.366542109153938,3.283729639628867,6.292068819804818,4.4664890459958215,5.913493761549885,17.117079554217565,23.259004888110546,20.771341518502517,21.8186203990864,22.014875034250043,15.751647214487667,17.022595135869572,27.129129659494474,29.954356214108387,28.767763727147717,31.981454364697548,28.331068523686156,18.14846633826363,16.096373870963177,15.22101600662896,5.889408070358762,0.8187545814459087,2.3519893844485313,-1.7534712951855431,-4.011090589583888,4.13621141209975,9.350799832027775,10.239200149499263,19.68521944219707,29.276126158703327,27.05240175472271,22.625877618390387,19.856346143769223,12.172231386501956,9.854129562431345,20.905080246540876,28.27765128456047,23.34465779840827,17.395926297313828,10.114118150140264,-1.1505287010930219,-3.13937431786873,3.0698129865941954,1.2232512244852618,-2.812468225356687,2.375829585978675,6.871903704681691,7.890853824968266,14.416298083946645,17.377706669595742,9.429549710751301,6.15664072040662,11.877128556820939,14.644695629270961,18.53336765934318,27.335307107018938,26.015976120977136,14.336638661827106,8.029991151182578,4.882125343647601,0.05242327402018887,2.163541899430782,5.359074073698009,-4.26769290887025,-16.872890265760788,-19.953021255400472,-21.236611693803226,-22.801786070588008,-18.02484118896378,-16.352723546473037,-24.34291346708236,-27.367482757455253,-22.951582673136745,-24.658036117937364,-27.35029366840559,-22.96883492875356,-23.050226570882476,-26.965737865208872,-20.744870822421333,-12.388034867948654,-11.632455400809121,-6.823445515966888,0.9335264370910754,-3.100990052652908,-10.890780338202298,-11.466744978013034,-15.17991216008312,-22.60385787026273,-22.003377897521982,-19.66635659747913,-22.20677618472076,-17.953975187097466,-7.884476142568437,-7.585857545143945,-12.169743491263722,-9.992926661703333,-8.812890497591827,-10.588877786792617,-6.316815868234137,-4.345523211013823,-11.672884296479548,-13.156233969315426,-6.426962755518454,-6.4176634488375575,-7.752065046991504,-0.4521129665149184,3.3474047640772815,0.48532560363876254,2.92810682415624,4.293126427366656,-2.7718318974070524,-4.179649429129394,0.4786152976804261,-4.724912670113675,-12.200814112750306,-9.45710657401489,-8.27950687368405,-12.04559186351681,-8.592736262050657,-3.637737377159836,-4.696796201159824,-0.7131563417921363,6.458308190289425,2.417273924262106,-4.165882220456986,-0.6279212960983145,1.9805473833719323,-2.2666200366132516,-3.1038090994848533,-1.5475996545989135,-1.6870070468379417,5.408489644728923,15.43224328177249,10.938821603142365,-1.4997249801512775,-5.593833413576827,-6.908555279284767,-9.018070882214472,-3.987924263891413,0.3833827047244929,-3.327182470148405,-1.6843559570252393,6.309788336769561,5.196917082935156,-0.018531634620773563,1.2678043655841418,0.4437762355017284,-1.799122468301009,5.884138131864308,12.620041929996432,5.472337705322816,-3.6673158115149054,-7.5754167307314235,-14.121487035820618,-17.87607637342752,-11.944257164142279,-8.548203554948293,-9.996511404179477,-3.031246687527313,6.0106186893688704,2.888294195976206,-4.042848246065525,-6.111906854575491,-7.615664393323721,-1.8086958167070533,15.168806481577993,24.35995294189096,19.10337559702986,13.569081574897396,7.219072614212591,-3.5968204971681805,-6.01666565455515,-0.955925603624451,-2.7492403031757324,-5.358842946537674,-0.6997019132592754,0.5309575260031034,-1.189977468060929,5.850363809132943,12.756380812012893,8.766052367702915,4.684773842269709,4.349416188021803,-0.8252112735839172,-3.5731407861835556,2.8452824085604482,4.595020699061173,-0.39369405745718744,3.5985219558862203,14.376836035832042,21.57029521727765,30.518281480965452,38.71168622646163,34.06897690286515,26.294059901867882,27.583962595101138,26.03714783617117,17.42422212401268,14.228688858057055,13.11067849264894,7.779680571115787,8.818132388767602,13.740317691815816,8.102235250903014,0.15271008139316944,0.7531966601092865,-0.3083151231445892,-4.348576092610514,-1.9411954696182891,-2.0450087416779956,-11.587550690031913,-15.72806056360904,-11.69302114337724,-13.439161271396154,-17.568113846746677,-15.811646669979897,-16.09247343531714,-16.55791569288737,-5.370962978352887,7.644319989750552,8.944431746487613,8.241436275519087,10.753528755502249,6.174887145154196,-0.5690004133699722,0.41411453318220914,-0.8437263554910102,-6.6520251653887605,-5.4712213571352715,-5.486684861653997,-15.813332216100886,-21.025308286297975,-17.419206351176875,-20.68758688244407,-28.23268455319336,-29.861478247909783,-31.435946360500168,-30.83620303763727,-18.55134897350024,-8.461150579956477,-13.787094427994687,-19.654442544161363,-17.18803084595075,-15.721877908600037,-13.910779322193523,-8.961302093167806,-12.801752033415765,-24.175544548237283,-26.77025276528035,-23.61223645376428,-23.41623184838239,-15.995833413321154,-1.0920066307090206,5.495022959342058,6.101635031301684,8.45287588818258,2.6047888334403306,-9.648383513244665,-11.463347512669912,-6.823894540636697,-5.77290805462378,-0.17301156773264736,7.939353188918591,5.133675602556794,0.3700841800413519,5.719998867447407,9.991251270830734,8.098062197030295,9.084151687111062,8.301865779534111,1.0985324062393604,-0.019329282244487045,4.311627409197342,-1.5681404953806894,-12.582345271439372,-15.270406591263816,-15.0742965810622,-14.683601267316577,-7.272931805049055,-2.809327315439745,-11.365209784453008,-18.07738462499327,-14.500086675098537,-11.806882284662368,-8.97025363387997,-1.2109781333107668,-0.5420952596660181,-6.609016766951005,-3.6412533705355714,2.250036707589432,-1.6907063709734573,-5.167849759490446,-3.0774280463134462,-5.408656781707578,-6.740611219179926,-0.6485065686538425,-0.9044321188454977,-8.50152480345138,-6.935168199312328,-0.18753175823593482,-0.3292111103614177,0.2810418336522113,4.155189596684919,0.6591149448568459,-4.289956340088672,0.007660395489915928,4.118212171272065,2.8914719470707926,5.235973801368718,6.433735968320145,-0.008178112530057291,-0.27641883058973593,9.405497299967935,13.091816754385453,10.397404865319654,9.946715926111237,5.43251846772967,-1.5768310449032836,1.4909886290145857,5.934398774987651,-0.2139950881321635,-3.2745267181036577,3.0128727284272703,4.327729918725299,2.7107811822998826,7.4996097265546355,8.400432360563233,3.4277807773123836,5.571130859480552,8.655369164360362,2.270060714108533,-1.953267709254625,1.312656019586575,1.5814495990262314,1.9967971238081645,9.403035354973895,13.084562716322981,9.969547789241822,11.622436051658244,13.761222423936616,7.706196672859843,4.585119324568428,8.18973987961368,6.898899115686856,6.1174595195858865,15.168523802987254,20.709908764853722,16.378306136353398,13.773320711446832,9.288341716254394,-3.5113287609228525,-8.79148028054972,-1.0164125865126503,4.120374298238142,5.85423265370051,11.052124519181662,10.70051643620319,5.161430787591788,8.690214535124156,15.585939042862124,13.809404861166668,12.037576329303029,14.136159462223839,11.322362293359532,9.482692744482325,15.53466272069556,16.913393882931455,9.466765955611443,5.877565645612466,4.890569268226904,-0.5152416088922251,-0.32661985697433393,6.805014224734029,6.1538579867524135,1.5176463747363174,3.9148349511124314,4.237308389319436,1.613774344556477,10.140049340796764,22.26072543028547,24.50360126018537,26.16846225108536,29.49125426277883,23.80912277878594,18.25206701442314,23.31001745616713,26.06636552740589,22.294642572377796,23.95209467937987,25.752540453413246,18.269842145696146,11.973296606656664,10.168302970568725,3.388845632965292,-1.769146555142766,2.2276893085856573,3.2674605200885587,-2.6675656591015366,-5.157099384156615,-7.09453203793357,-13.513698030433572,-13.161208099858406,-5.308458755793847,-3.6734478789546126,-4.328364553025371,1.961971875437086,6.6223368115664485,8.707764166911423,18.538744663056445,26.239322988325213,19.774668147929376,12.453420267397394,11.308577872957652,6.150877850683054,1.5058351173438205,3.3437017733795487,-1.7589995122136124,-14.029170319938022,-17.13336370543846,-15.511547324168045,-21.695716933341277,-29.926190205998147,-37.71485046148518,-50.22499719445035,-54.839064605405255,-39.80957013534959,-20.184028271858537,-9.143265157054234,-2.26292674131223,-1.708354104479577,-8.863641741388472,-7.326399904882612,6.28042991103349,12.706409034164857,9.953571797166873,9.53082333728836,8.483204450382432,10.74430056496468,30.22931416438239,58.30840444229716,80.5388144577531,103.03384632222166,126.61125286768457,141.1476822464928,154.48801734641103,175.69834187379115,189.80128982488202,186.73263784067115,173.3190154683936,149.2469099912043,117.90969183162053,97.79886061570932,91.3667710984587,82.07550448701815,69.19310041062893,61.84857678130726,52.98224745446788,37.51453453093183,22.645585506364068,1.1327999812015879,-33.8153288698237,-62.2879332842234,-74.57733248955279,-83.90987835692472,-89.12535238438068,-88.07324617068446,-97.85468959346025,-117.90740021273434,-129.467901637951,-136.93806786199514,-152.20969156074668,-167.1968537176079,-179.70554682285663,-197.34203417382724,-208.4481331760191,-200.89948574762286,-187.90161898403164,-180.29351816259637,-175.67088541267287,-182.2274455908091,-203.20699966250336,-216.58016875284846,-209.57968786823568,-194.21353160273065,-175.9230517619798,-156.99715626790646,-152.79295526939956,-160.78690340035587,-157.67591553627324,-143.77202648471746,-133.20261418233343,-120.90311682166138,-106.9777721270047,-103.91814957326874,-103.05534686669318,-91.55572494541954,-81.68468154822042,-79.54689176118772,-72.97337960383574,-65.82575070994059,-67.19810156513003,-63.946437746618074,-49.72775327658556,-37.9266208001292,-28.556541167018658,-15.574165172452279,-9.926891416647601,-11.070800540834204,0.12076475343931747,20.816593267269166,33.37917133328185,39.10748825042014,40.98170825803734,35.259157892687384,36.36877486581585,56.92812845175451,79.46796936791027,89.40671648486924,93.68760312614494,90.77714136421946,77.19090831997958,70.21046525214494,75.82093631639607,77.13282327374323,75.97881766415766,84.41973110123782,91.20743137317777,90.54646802259666,94.62420031717241,97.5437483323063,89.4046833136906,84.60490926874158,88.04263971368643,85.00506092893852,79.91282578232855,84.92364887532366,90.59654960367372,92.48229094793288,98.85178760223974,100.31132253917625,88.27840741969877,79.5329109154285,81.55267979167901,81.24869588783817,79.09146406665411,81.5789741029105,78.3695936839708,69.21886824204508,71.610418758289,81.73035645866514,83.73982315103677,85.07936747772578,90.4382331025461,86.62767977520619,79.37172799394007,82.31620582378865,83.35391052195845,75.7594412571332,74.10303044173729,75.52301655456978,67.78444646192011,61.515782334716135,62.01448927250601,55.472219035089566,46.52643535948171,48.559173636917784,51.997196824820556,51.265249161144155,56.22911407620166,59.83436144009657,51.84489546763549,46.22411371368018,49.177728787962785,46.041137547646045,38.53022945219571,38.44438492427456,38.7344546798612,36.981966539851776,45.373081705012595,55.38369736998009,48.27393644402807,33.1693187932503,24.147211076708153,16.77144074677951,15.96505679802615,29.54825614403384,38.071651823291674,26.496230972256186,9.011820138700912,-5.7500482833393365,-18.050081437127773,-16.412276896088883,-2.328984633747082,4.848442845100016,4.134881407094957,5.594743259715464,4.459972234528552,0.03643459571294638,3.0756079604509257,7.994513013925381,2.601194876566963,-4.628849850462568,-6.82631409756052,-12.247749001063058,-15.67193811513058,-5.9815158205775925,6.097399634685507,11.207958390004428,16.58619374000398,16.306508584997566,-1.1301445110524195,-21.004560328504116,-26.78452446265101,-24.1928754763816,-15.887473205286991,-2.1227957299766085,-0.15952613203268562,-14.807215608099524,-26.36126129341535,-29.887731111346536,-31.878911664994558,-24.971456357394718,-13.197928264000657,-15.097480868813925,-25.864687620281067,-29.62834706921692,-28.174657047084402,-21.57025023926707,-6.8914419011760835,-2.7191613640463217,-22.198876717656454,-44.21342125300653,-49.3713627314452,-42.24608236564413,-27.22385874284963,-11.281869503268805,-13.994592357798076,-35.329047113400115,-50.96951949448908,-54.18001466246921,-53.567129593532904,-45.615964789786304,-34.231132241056365,-36.675641809991745,-47.61885881097995,-50.0117775285191,-49.59767358814871,-50.13117966797813,-40.302828433115444,-29.734453794096503,-35.8281537761802,-47.44294472497849,-52.11746379871269,-54.833792295462274,-50.053719547025175,-32.9598540203485,-24.176301855431664,-34.724786049384846,-47.42234945801049,-53.92269058625435,-57.78517540556946,-51.77511642712865,-36.282837760199506,-26.974102087314485,-24.299099476002084,-19.517673705968143,-20.71247420772955,-30.35200448465511,-32.069226257959414,-24.667103609033788,-21.673165180664867,-21.499064936773735,-22.571937496007926,-33.498345084339824,-43.98503824245304,-38.44593438250682,-29.89825397474895,-31.519911292707512,-34.596430654607616,-39.64854853745054,-52.98112754586093,-59.801124765321674,-51.98372918425713,-43.324557170713355,-33.90550269864241,-16.745238761525528,-6.088876304878472,-10.68855466921805,-17.26102477276174,-20.09329798455095,-21.653264383381234,-13.473524804717659,2.988199195495822,8.079615338686338,-0.9084923287470175,-9.980466990519703,-17.586234742912776,-22.53919355700523,-15.726019151857672,-6.224451836273349,-9.538138843202994,-16.277938750667307,-15.603925017692635,-15.198707708288216,-13.49163324435419,-2.57157330140037,5.937361842336065,4.666244436205241,6.334026546646529,10.879100983490742,7.476900400097456,3.618976925531694,5.286345565919676,2.514490058709683,-1.7099670614803415,2.4461724836373815,5.150437894374737,-0.21349285081468494,-3.210840361213505,-4.980026912086466,-12.948989851671135,-17.315418179623677,-13.82247192539376,-14.658314512799688,-18.075155873220215,-14.369317267248139,-12.740863739595198,-19.36070346198952,-21.75127360677987,-19.412710981797513,-21.301149070421168,-17.213125512737385,-0.9909594372412327,12.285983012415256,19.07708247684584,25.70939273429838,22.524871585898303,7.641500934740153,-1.0879860007956463,-1.8395333016525568,-4.090007015357761,0.041897564086123884,11.664191777597718,14.515505088841074,10.14429429074302,9.705329457906778,5.661596298697061,-3.677313461070221,-4.050796905174892,1.561372107919219,1.3223523680622757,3.3415939212396464,12.474082364268439,16.359002533684272,17.066203406836387,26.310494790439073,34.54098100238871,31.806667357381922,27.681763361407224,22.78564867305782,10.353654239013585,3.373165678244249,9.354645946842071,12.27495633327797,9.59863551704839,13.074578768732895,16.37014954248839,14.529163433149762,18.48860339035613,21.97895029653039,11.682647357105889,1.29789441569418,3.2001853526477513,8.388143927416307,16.38526997788313,29.198326170220763,30.45753324768112,16.235111320728425,5.80567850834802,3.934502644359558,2.770553541422583,7.327958343974223,17.079783331077703,18.23643390104791,14.002113922146947,16.99852916257153,19.71728555820971,16.00733048591868,17.548804589383227,22.131289340687218,17.438812884634622,13.046275071149715,16.478372139836992,15.097593943740781,12.607765925729197,22.183661329669036,30.77872242772837,29.102404338475054,30.227027975654178,30.41407605410096,18.59091610227854,10.37070744674478,15.801619101972692,19.97767067840257,19.346393147858393,20.203102742002688,14.175167481413826,2.1088079705798704,2.6168395068582555,13.066076601752902,13.604285140553976,5.484874413186825,-1.9360726030775046,-10.805225432191595,-13.539666790371037,-0.22160390123771911,15.010320280722066,19.932246237299562,23.593018802736285,25.377448746408486,16.629536240379224,9.291241697586333,12.991137179681198,15.820136841637373,15.234323023534994,18.446761634093875,17.442766147483475,9.746837060770616,9.330867093081949,12.534136934485254,4.651760489774088,-5.520759240111131,-6.457802352274754,-5.324968595338855,-3.0262553498257203,4.419933637869827,6.227411081853432,0.8755414409602378,5.060027032883265,16.730200038961314,18.659981873321446,13.981863432927558,12.39523186306119,10.784962338046933,13.249449677330563,25.17015940288208,30.288765767900287,18.901210221504265,7.672616853050194,3.075833302830847,-4.114250609377438,-7.8464412356214455,-3.7221098602584983,-5.977075335894385,-13.979888694298875,-14.539244727339758,-15.043017432191139,-21.073680242747706,-18.79606517578936,-9.887566279658586,-7.604686011650091,-3.4783323927307324,9.487173051220866,17.56231928776949,18.212928903502345,19.676428821262103,15.58579682132907,5.7541718712343,6.215096267256407,14.172934357172288,12.539683630381266,4.49920034844327,-1.5646357194366949,-9.50715067919074,-13.32889912589471,-4.767515057294359,1.108604509707598,-7.335700385286687,-17.26332232849342,-23.366027908684142,-31.262132963982992,-31.609242977363035,-20.84299801152244,-15.379296817101412,-15.897446523870263,-9.460244726769986,-3.1483393819536456,-3.82724016158491,-0.5953428450469709,3.739689506516355,-1.9107597156479312,-6.2090381524951574,-0.3940872480980815,3.782780343201055,5.870589253607671,13.456376300227511,16.49483057590944,10.073103589993256,7.174634589066613,7.679739299153214,2.208720488264165,0.16318350416876737,8.510724157999876,14.567513736978375,16.329386392261164,20.80729727297567,17.09968000850267,0.22325339785063036,-11.347423135257227,-11.749052783971102,-11.85060045052473,-7.3381957035629295,4.838575981159904,8.831790059496331,4.688785755732796,7.149444558806793,9.303452616520538,4.251640327649968,5.231361040855076,10.82080351424212,8.97541372519025,8.61039697264288,14.65031478354775,14.291195154728427,11.109702537770303,16.537950469405306,19.96546867543637,13.240010690064949,6.156664042072082,-1.9597014504499952,-16.3142832918615,-23.169131478302965,-15.926292035204693,-10.434478881429191,-11.848911189784717,-12.379313770209732,-17.70929708691377,-30.811377814157463,-37.73568854217804,-38.024511582281754,-43.6784395038399,-47.89434904585387,-43.982111312633194,-43.990799740866535,-46.506733777103456,-37.99475944808613,-26.650019834082833,-22.84537201980957,-16.847767997568845,-8.327977271780028,-7.340111194034122,-5.700440851221356,1.7404067351055588,0.3566518048394949,-9.42701171492443,-12.265517560179871,-11.25974739262809,-13.055198897397894,-10.595345258167438,-8.681980259724405,-18.653660124947184,-28.72815122401975,-27.589476042194256,-26.61140906516867,-28.12824682591319,-22.649325834437413,-19.16447811198846,-24.462282966554106,-22.98024892684958,-13.597570622676216,-11.730708315334974,-12.243370956471983,-7.947168372064404,-10.457372912440023,-16.950597772401146,-14.22514094104756,-13.469292654047882,-23.657927612224714,-30.20818421532408,-30.749638654207978,-33.25054348939683,-28.864163393630754,-17.42335952327146,-15.991030697015889,-20.398843363282886,-14.89647681126147,-7.020384301155665,-5.642236853382725,-3.041040060205973,-1.7137439534347707,-9.30356835707168,-12.49358245853252,-2.242932514630786,6.076955570777079,6.539364650427691,8.899129000391918,8.884107945658315,2.291296222214986,3.2745505268317125,12.809719418845603,16.193505917785046,17.437904321392047,22.50841655788116,19.20677586483659,9.886747910053293,9.51253068282057,10.458714095924943,4.344139299253361,3.9871543802456726,9.869062008866502,10.612590585349976,14.830047006785618,26.801396435970112,29.059474260618252,22.210100988959418,22.5658602562486,24.514760249655136,20.563763747092928,20.359746280479897,20.389616320304853,9.409343986851615,-0.9023630046201805,-0.14438379279924174,0.24909843066383008,-1.2648622756902892,6.220647353077949,15.870709164881454,18.80087046659719,23.793642648836162,28.180534477484265,18.29415734838428,4.56894654768889,1.4665526861187461,0.8525880117362767,0.961517131068571,10.26912380860679,19.034266408808413,18.796809607245255,21.01179982733423,24.529471238421845,17.292916381917138,8.796740719629033,8.621760073328494,8.025789945938223,8.384136499351353,16.773559096921254,21.381951826206937,15.237751628062533,11.500494754045114,12.165882991981924,8.269684673041535,7.603908161933622,14.868877806315025,14.361929747044448,4.530013199872303,1.5087797632005095,4.39805464569113,7.53961083382387,18.914640728805228,31.123039607937415,24.872331166342036,8.231275485626531,-0.224636287795146,-1.8765058859246775,4.064381348840438,23.047962644264988,37.33889757784026,31.562331513273474,21.425738615490584,18.329776454097804,16.554551492457577,20.418424304788697,28.88803491958,22.99451003342331,4.238532155290952,-5.319419051970225,-4.3548214346596925,-1.2876213641809526,7.614198535383252,14.752616977845054,6.274622778264858,-6.395259579046954,-8.974156271872923,-8.909872692808314,-7.468002172688891,3.766655815303965,14.672216748190836,14.015950585089683,11.72802494667597,10.942566957941171,3.434632166294702,-0.41155432372721756,10.170887439655624,21.629973247300846,27.11423814611062,33.663708115702164,32.44840982539091,17.98534356149892,8.128115163192092,6.951276194681918,1.4801404742635977,-3.206497599991446,-1.5703374734875772,-6.274469199452762,-15.444599277949642,-14.8703140676908,-12.424054949776126,-17.332899438272367,-17.878514249003775,-13.776224588970333,-18.36148574503018,-24.73018644957261,-22.81600223179252,-22.578221110963963,-24.188995545662813,-14.92860230978883,-2.674621214001956,1.0350356217598355,5.355869210109438,11.261479851046674,7.778440919175791,3.3657925197170666,8.46127965766155,11.747381188286612,9.141393912874005,9.251222112455379,5.15396146828297,-7.515412756656371,-11.996083719913278,-5.515209945312034,-2.6974273844077095,-0.9537509456092194,3.498348756337692,-1.6895721375595643,-12.308658196159067,-12.757222269484538,-10.617675685544699,-13.502949711211327,-9.22936422433391,1.3436172880549342,4.8280712572188,5.763911125150092,8.570853292524733,2.2744320392313164,-7.99766048179761,-5.127629020339838,3.398081229465243,2.8472208065118094,-2.2181388039000987,-10.59246605861036,-26.634712471816513,-35.61064637135124,-27.276840431872483,-18.86322524804721,-19.439501020770695,-20.256501578539005,-25.1406049069378,-35.56098246955253,-35.42388420178879,-25.73604419892613,-22.570038000592696,-22.10736249571434,-18.704083603414027,-22.904472647265596,-30.663926436539807,-27.218995811374953,-20.21613396781651,-19.097463270861393,-15.637518371390527,-12.223276066594767,-18.353529911011304,-22.95481857655901,-16.7912976405581,-11.910000108015119,-11.923475610351513,-9.008329498844091,-10.669478147891706,-22.073257657620285,-27.517816530320903,-23.105743921237753,-22.124238540018013,-22.260748510201903,-20.19427425157918,-30.188181344248438,-50.170911841145994,-61.69893022964486,-68.02274751593582,-77.06969209381573,-77.8573296613263,-70.83940831261305,-69.4824142692123,-68.35105933438808,-60.27336422347842,-54.310758063464355,-47.97550546616376,-30.33555750306607,-12.113741508034451,-7.640896690509707,-10.289165190050873,-13.178618059576749,-17.22022530763653,-12.902641246018696,3.293479430338789,12.244321169957214,7.191836394465485,4.777434299006868,8.400405387503358,11.923002591084492,21.630407914862488,33.18342167497342,31.6478389843341,26.176172558983517,32.10677068920782,43.29226203546346,58.64416962188383,87.9552630884306,123.64251435555704,154.29806315811405,184.62200491254742,210.96789780256222,220.38052043646414,220.53716219394775,223.00617823178175,220.3992483565826,211.675801539374,203.3304737550269,183.80888692657436,146.48910657586634,110.05664948236335,84.61052422589304,64.20697592530547,53.663485670613284,51.60439740194724,35.656219107036875,2.6916303606454655,-26.1701817160355,-48.72775249541829,-70.64800599305167,-79.6069706682359,-78.41836784927318,-87.91871038148359,-102.98645963515096,-109.79303184830859,-118.47068186321158,-131.43273429566935,-135.64739823734547,-137.92289875815516,-147.77518384198282,-152.67463110880277,-150.69945290158805,-154.5794736341123,-158.44950754267452,-154.18717162866855,-150.0490774400527,-144.21555569432934,-129.78546062209773,-120.65306574525826,-126.09718454599818,-131.03039270315898,-127.71026411277256,-122.66940189515311,-111.34897799961693,-91.92306808272178,-80.20370282782844,-77.14046242396368,-66.1651149559558,-51.68859472793126,-46.844687116980154,-43.33509631282428,-37.24943375962216,-39.137691891594876,-42.18976555462318,-35.287236552197434,-27.86793276626739,-21.0155841301675,-2.4477486404297526,17.19001942711463,20.10861059062081,14.032919541941183,7.891972656695817,1.2976291970505012,6.492400370699,27.272861566146535,42.48355031146715,44.24628262209654,44.26356942308729,41.91326475805514,35.96911844322268,39.16432249261635,50.334669909520755,55.206520167417025,55.68805289263163,56.08597858486925,46.84895220490422,33.0680889375354,34.530121587196085,48.17035922644648,59.47362316482689,70.28954546756748,77.9037084575059,72.04733069494642,64.77075403118737,69.79274691940087,73.31133275744358,68.08874529238656,67.30429717221382,70.28514130661792,70.68508699065521,76.32776197103661,82.16097351987328,72.39880606045493,56.97758416958087,53.072477087266435,55.73474834708018,61.60715431795983,73.61343990968015,78.08501349119456,67.19249188146631,57.11246202184262,55.08016122141147,53.87452110541194,57.43694372909164,66.68551411490076,66.33766038457337,56.40418539590816,54.024483814210534,57.07318755537372,54.929946229210714,53.59690480704215,51.73845472991573,38.811672998334956,27.20937182457176,30.337943452470224,34.34094659666593,33.0043891724756,37.13133440384041,39.92032144688335,32.78041175726048,29.07364944581458,31.089162658741884,25.606281417614966,19.611251410295996,23.05686811995767,24.624428771866498,24.095296307797383,34.56541830822014,44.64077342397206,36.96196215425862,21.040572885573148,7.074417806030342,-7.492372658213535,-12.534175147898871,-0.5034082375829882,9.544538412321142,7.785049671928882,8.173475536776824,9.213920203706872,0.7610043052269666,-6.908087462502449,-9.563588284796635,-17.685408229052832,-23.243230306609185,-15.931006873730835,-10.074705680412457,-11.060872284815419,-6.2986718834653015,-1.1846573918038426,-4.738918879363468,-5.062013966687153,-0.3700797016612771,-3.15992713648851,-6.944792948962032,-3.5191688418934888,-5.24142321547908,-14.182266555406164,-17.6842502853929,-19.287261180751265,-25.187119087001026,-26.358966312560785,-24.281765002250427,-29.128398596173987,-32.1460352588619,-24.943307352500117,-19.508202988270767,-20.271180256069034,-18.57372472654886,-19.653320489046997,-28.694651687865463,-31.930659153951623,-27.85768580308111,-31.28977337610094,-35.8624509528735,-29.415442545530333,-24.07300362159549,-25.197665323717548,-21.36484673148616,-19.586571829247156,-29.224029429387137,-35.021135874751295,-31.665839214600545,-32.61897428930809,-34.37657386091482,-29.918610009160496,-30.912960854499968,-37.93016976747096,-36.89919357414998,-31.97425800880194,-32.723607167985705,-32.45379141702483,-31.827034510464415,-39.43514986923352,-44.37324165427741,-35.72413831232827,-26.003066641283738,-23.02311594094764,-20.032813076876216,-21.45469485293328,-31.712987580128157,-37.55435859780171,-36.804652998386096,-41.93886006114665,-45.98603804626018,-38.17707137897795,-31.371118792319834,-32.20302946322519,-30.528801983730965,-30.478408325933728,-37.002532838442065,-34.643421922523714,-22.400702741078852,-19.490761297395554,-23.75440527413878,-22.779604021409654,-22.327237599189086,-21.020667857379618,-8.25660521257993,2.5911377376634825,-4.280865885009602,-16.651826119293293,-24.471899696703822,-32.254114415752284,-32.63129564445716,-20.79992435992397,-13.747487277730954,-17.415892738283326,-17.90608975049502,-16.065604853721638,-19.208333569434913,-17.368742264816053,-10.112168139355958,-12.082821841017328,-17.310076377785606,-13.44062685002137,-9.879094961520877,-9.51795716846587,-1.527106157127355,6.353152188405437,3.535065190026146,1.2082567673626161,2.3680827883560345,-3.4736491015089617,-7.441066554654835,0.9915111916044617,8.658086459910596,9.745837112720391,13.145418711288016,12.146164159818627,0.4225994760398457,-7.117447532089308,-6.069455500069647,-8.412678250175196,-10.274355571756558,-5.26084338744351,-5.943185847881837,-12.356601086152779,-6.257144324583869,8.745352255097664,17.916445390426304,26.122777631784956,32.31642962717198,23.429114047559466,9.529837625530647,6.359286492644983,4.404259227403909,-0.2487659840049159,4.72921994398924,12.004441549252622,8.058835019849518,2.990209558951441,2.195156589636895,-2.2858496947508105,-1.3678517391643314,12.563764660092222,22.365842510293565,20.9592197738637,20.647622866735066,19.17979259519341,9.864998217689564,3.1544263110075295,-0.153378413399838,-10.503651756382745,-15.886849260408063,-1.666524365232239,17.277388534946624,25.36301206085669,24.905508744303233,12.565639317054863,-10.226864776089144,-20.81112152308748,-13.606486749825386,-8.975729855011028,-8.162206993104235,0.47006332697764597,9.032721947620002,12.552822029009075,18.795597679445024,18.610863165063215,2.820239390437204,-10.233787180766045,-10.154725496399994,-9.442398954624938,-7.200931135472619,3.1088670673666123,8.869099059902775,5.281796020738804,4.165926784546025,3.9081421560249407,-0.9082216111319594,1.0832241328119983,11.961605032576163,17.006177006692695,17.40082713872263,23.202696752262405,27.011079826134736,25.60910825493791,29.276038148620067,31.726007153886084,23.60793604679386,19.538687287669905,26.044828622068614,28.55733067625008,27.333218656723943,29.834714263298057,25.84472742379829,15.414729165301523,15.068524049858562,19.70694401769085,16.41289674369044,15.411032177144858,20.551238376240853,19.172292292460607,17.18981138334825,26.44965399221283,36.50090475378812,41.92210607641719,52.48808818849239,60.558047353920664,53.59344468268549,43.37290708164175,37.91914270983056,27.658801870064543,17.702861149238828,19.49940736216216,22.942645425452124,20.43805189901817,20.62588064707939,20.054362973547313,11.021876230430404,5.180856400433891,8.062714213848764,8.178300045461382,7.773673802108836,14.583664958472076,17.570124701557514,13.281916897400386,14.752008670140224,17.821669551407936,12.394174045340055,8.239032914623426,7.125004520964423,-2.680786725444258,-11.922773792146298,-7.6350034260895665,-2.6186016590572283,-5.118926109278895,-6.15932179999957,-10.115247060966285,-23.276232034872635,-30.174872623782296,-24.642885387451532,-22.14401515071336,-23.45407446255878,-18.539281217320923,-14.453134500193599,-14.62101543643279,-8.504305236857022,-2.7880359373425194,-10.443269152886765,-19.56088626579167,-19.20799033444163,-18.224729306806626,-16.2154102091534,-7.61304015078929,-5.1105805456723115,-12.994612640366531,-16.02487021802201,-14.626289124499202,-17.950331592319344,-17.636434385064387,-13.1196988721803,-19.191007696937486,-30.418199420995638,-31.927220702079453,-28.923851862750425,-23.798253046034684,-10.227146102430382,-1.9486472815629057,-12.113472897163916,-24.18815828571677,-21.927603517005224,-7.86438554347944,18.62698719586202,53.895496138361,74.84999844391754,72.78426128497819,65.86032110357985,59.026288385125824,44.9523789182091,32.8659021929063,27.538160177151237,19.277942153869127,14.932304333271368,24.045953985819494,29.553755349393747,20.156461911500937,8.948292590122737,-1.3699461290473478,-16.239187132404865,-25.301466510000523,-27.663293619017573,-38.56267243473259,-52.122969156737234,-53.10882775756798,-48.784361567680165,-45.08149950640504,-36.28569346797609,-31.737640768214312,-41.23703124364403,-51.80317763071736,-54.399427660603166,-56.22903832391346,-54.55510370729226,-43.37328520829182,-34.91431323929359,-35.6851219258623,-34.500131776713076,-33.183040168913195,-41.99896306724094,-51.009638859735816,-50.96586305289545,-50.7117354660859,-48.593021202503884,-38.17703046007553,-34.190258938972235,-42.09145349182834,-43.60311171396479,-36.93216006639298,-33.044257059986805,-25.760396311267122,-15.060229183129286,-15.75803738430114,-23.137390817951513,-23.88251560024782,-25.23234834576667,-30.696129947317885,-28.424340424557677,-21.487088142265147,-21.31074779801076,-21.072748950334365,-15.03528914894629,-12.670044232802951,-12.937829896933163,-7.6802119066811585,-4.903827362975997,-8.120163960651732,-4.27487463895088,4.919036462608267,5.788764377675836,2.33937795931573,-0.16426302329545808,-7.8515151688553,-12.020671443929057,-1.8913072799028128,7.117059206828709,5.240223725288797,5.990538075857959,9.625773004493043,6.518940620458553,5.137645931454825,8.19715804099944,3.3687181592283353,-2.6813120518089253,2.999020349782064,9.333802834946436,8.982729135902263,12.555988633185045,16.780308087835056,11.43867561183955,6.622911306043063,11.207198342735188,18.36864230749078,28.723030518534205,42.938165591794856,44.010281161438144,27.130400527224566,11.858380519815636,5.59157013098868,2.06541417350317,5.818400496419031,14.619433331504316,13.61311814232777,8.24407322316923,11.872423600437957,13.760187938820616,7.307161370281171,5.472814289019473,5.989111741773749,0.0750132153815728,-0.14279311388273697,8.74854852525544,10.741672540777959,7.8334771676657535,12.26473518825809,16.702353615986713,16.991022704781273,23.252577628501236,29.033175248713036,21.52461813345851,10.919611795891347,7.3734445250217675,5.5521679655501135,9.870287613341649,26.304931242585482,38.339260569609905,34.009583484956636,24.46883352106334,15.791113463507912,8.311825238588717,14.505518018387884,33.75488361543901,43.0944709746706,37.22321406954265,28.936118877333463,17.615661242573974,5.445966255420205,6.58605009974658,14.680117317940635,13.81911194850709,11.914066349686873,16.669491655994886,18.085361986736356,18.156578303582016,24.340192812421577,23.7602422879781,10.92757649007766,1.5759722883208753,-0.7405070560164717,-1.6911045062630143,6.108156902329826,21.32809497899631,26.992439341648055,23.95787178354246,24.320173342732073,22.424401950646942,15.990402281818342,17.879689684418782,24.680091066249446,24.826497608572534,25.84091772407934,29.65586677227877,23.256990303191095,13.701018731212063,16.872156822704756,23.537302427586354,24.90498749176511,29.4441566904271,31.408840382680893,20.253596242671563,9.568392531095906,8.479336037773546,5.756207020417868,3.3205622434137485,10.298886897236617,13.945763995258018,5.973530730488654,1.0820961755555065,2.05242428848935,-1.3686772488256298,-3.2450023320048995,0.3997906031054448,-0.40125178977303566,-0.3486746434014178,10.974309265286879,20.033604951399766,15.470845482950388,7.902018043353062,0.3097612593516388,-12.63817857668875,-20.979101579128912,-20.881138725078642,-24.503472942094028,-26.185728279568373,-13.701222563838627,-1.318421536051435,-0.717402638983835,-1.3468293678563095,-3.0751388041512135,-10.940220193553097,-10.232776968985942,3.2483619425527275,10.97758137880417,11.525954767427411,15.154719441882861,13.219974913999998,3.6951402234158395,3.3071292375832195,9.693027191084553,7.8707340903674465,4.018596020539954,4.1558586979638745,-1.0254559381722705,-6.267668456805071,-0.06778590032993215,5.240009917984996,-0.07808916092086049,-2.9020337429456355,-0.5158595872307792,-2.2209326057560186,-1.8886510860347343,2.510531590295756,-2.3045597757354948,-10.233095061073008,-5.395951265944918,2.0511585396684153,2.6030217975122834,5.871749243978903,7.191484820921984,-2.0887667894918924,-6.4321306852836955,1.0273660197934902,4.834955126799002,3.948907510146486,5.089771264325002,-2.8377014944007994,-20.69847314233731,-28.43700958351746,-24.888577056643562,-23.9253450766446,-22.281038654450423,-18.590986752194073,-23.239149611037437,-27.697902367395187,-17.967445634081322,-6.367415325989015,-4.0630958862566535,-2.3134458073965503,-2.8866340367995016,-12.720851976995096,-17.27640134864695,-8.799234278197808,-2.903424940345002,-1.3145272869854983,5.147343367210308,6.563334715824986,-0.6841752775967338,-1.4394023344753468,0.9389311964485376,-7.731178803629982,-18.710429975217732,-22.551384577846317,-26.115045246883895,-25.658099190221808,-14.512904433433084,-7.32808852470237,-11.932611553018448,-14.142970339815683,-11.252012494480018,-11.325643704047348,-9.120069837041848,-4.422814974231443,-8.54839232114172,-14.487000857274563,-8.588209592249779,-0.5021075557577139,0.5680330524964411,3.226881526116632,6.204224419398024,2.1009985530466846,1.4811815020253474,7.1264129083792565,2.3338795411290314,-8.818650731017726,-8.15738070068625,-1.9604651468053471,0.4001812509378937,4.210779282853506,2.367979362292436,-12.571971153803506,-22.410059066020622,-16.70617840835856,-10.148821131496845,-6.532780442530483,0.04759717158401644,0.8599025885734733,-5.562175104869297,-5.949735702056326,-4.185872973849246,-11.315150913725835,-16.830424115030585,-12.427084400060272,-9.46354039560317,-9.008863733690044,-1.8808288093949337,3.013392019443471,-1.5704729910892525,-3.0478519411217206,-1.7926376923392229,-11.145164202600046,-23.098894872324824,-26.034434690123753,-26.928970235802307,-24.299428614871065,-10.570446865491498,-0.295541161982968,-4.204437460475744,-9.69308055570108,-14.197209126732123,-22.901592320978708,-23.560412694238465,-12.640398755529889,-5.208807526373205,-0.66886999689968,7.879017004889519,8.723993780333915,-0.39253157010536155,-2.691821605899343,2.088577919768766,3.325686342275146,6.43063611705823,12.469151973706774,10.62158373782505,10.020491922146919,27.867041418694164,55.5158471393585,80.51959360365743,105.7613502309002,122.50526176744721,118.03250074936017,107.09616713343058,104.03600129783672,99.66172460177333,96.01754549937962,103.32102048340897,107.49631642222333,99.70757518139666,96.32234778973324,97.83226474374376,90.32829203262888,81.38643168104447,76.97673649229642,65.82824797798253,56.86369405669325,68.0152783654221,87.44033220039553,101.48927698792225,116.45869490499646,127.58932107956024,123.38421823688617,112.1972355051857,99.3461812532892,74.09422815883984,42.978088681335095,23.812171685463923,11.188986179943136,-2.336049483254252,-6.414971550507825,-3.178204191394859,-4.92751600530805,-5.417341910415049,-1.3295221804919126,-5.520744176575865,-11.669849133681815,-3.7260126292747064,4.248056544583578,-4.5804355798733525,-20.34124358900188,-38.06765163688839,-60.657654576352655,-73.00041520713857,-70.72583036865882,-76.97318524976693,-96.02419603785975,-109.96562349948775,-119.39542876178751,-129.63933054387317,-132.23809878648666,-132.53587958253678,-143.7665218305197,-156.28905168427906,-158.97239830267083,-159.4851700814446,-157.60241135929255,-145.5589664577446,-132.72589340468107,-124.62236673801515,-107.5118818653041,-80.08600817197507,-54.56967987451337,-28.596982817942408,-0.6390529213717899,16.910326461989005,27.088109698618755,40.5582672289014,42.714454998582895,21.68421304636596,-5.607539548339409,-27.093838229800696,-43.80918139418087,-49.07249181215648,-47.94560965648092,-61.34035728244716,-84.39181119657444,-94.64240376805162,-97.6437391735407,-109.69259411085237,-127.06467637911126,-148.10934451329703,-175.0943917829146,-190.8429006173865,-187.2512680856578,-185.64781881200543,-192.3814573399515,-193.36135553727567,-197.02829917877563,-215.85322409574638,-235.5837919780842,-247.44139327034756,-255.44602145924284,-248.91200586030595,-226.49029205975535,-211.37598092886387,-206.557923969917,-194.0682067247712,-177.14654923974678,-164.64354750320882,-150.6213447465132,-141.3136019067076,-145.61067770423597,-146.67466050439464,-133.95466807463436,-120.7776425205983,-107.75311482701045,-88.4829222425358,-77.06011800203267,-78.14444936792248,-74.08093542699973,-63.99176219801984,-59.01049647037671,-52.24549713100852,-41.65583709311692,-40.6921798783675,-42.12573335290963,-27.223648174122346,-4.73963331966498,10.829622936564405,25.43291575939685,38.117527310979405,39.78707125695289,41.444377327591006,51.64285674383483,57.019587374095565,57.30289667452708,65.00701509559961,71.35722408567527,67.00074102088904,63.25537984692933,62.90461528795016,61.662178281641545,71.42662167337974,93.6567995773551,108.17711459705114,112.19823353451808,118.33720448414911,122.80879087761473,122.30286937145283,127.91749404910102,137.10802511419595,138.82740410629185,141.64438875809074,151.77528151988218,154.83395286008493,147.5495899581235,141.12597870496484,132.6800395645443,121.89601763167627,125.99754994188757,142.713115561047,150.95247575561953,151.1550005117406,149.85003365792832,140.68725844798038,133.65719968040042,143.80862854715113,155.31199498608672,152.52646837740588,147.38596170742824,145.08399785189832,139.6293671083705,139.9022706638675,148.76825633099867,149.98495081154314,142.96819445846228,140.5047591948904,137.92196905534414,131.9783161354331,134.95461575105125,143.49763657125703,142.08887910499544,134.39727762432648,128.2189679492531,118.9066127284497,111.67539968884151,115.47280578444997,118.50461170935235,112.73185201320045,110.81390745403101,112.84693353467084,104.83904036893293,92.26013827253792,86.60150246746599,83.63840930828928,87.12577835401859,104.59872635214207,116.1869736328662,104.80694258249815,87.6841740893267,78.8088618892451,75.36464393743954,84.03576120531824,102.59209730316597,108.33325575029183,98.50155965072499,90.28612525989587,83.57234189635247,73.864773591086,69.97277501469131,67.78102745489271,54.802616112892736,41.37072354703854,38.54737821199502,36.64901683958826,34.963502035176155,41.11967218171673,44.255464789173026,38.0998395840072,36.709315243078265,40.22585684744407,36.45671742655328,31.786297245418577,31.67468681715581,25.686210649541003,18.340821669394476,22.33489659129885,27.463549526328787,24.07045854457131,20.10777815488119,12.403737744298866,-4.998942021093576,-15.21107431886763,-9.32197772157069,-3.761941967448478,-3.988296005823313,-3.4253027850497286,-8.796801705324635,-18.72911516752204,-14.724007183801092,1.3050659101070599,12.00907980218299,21.29204737731136,36.68703072161996,48.48421104606045,57.70875136744992,74.0584310206588,84.95526640848622,78.86828130513169,69.35963833243336,62.73198027008593,52.21892772542778,45.81521979568525,48.08796209894709,44.74659012205934,36.73607136186274,37.428110341664315,37.79541672270501,27.870396620021026,19.06387310067782,12.381339089274473,-1.151556524024759,-9.196562729434039,-4.089377690241201,-3.283541408077368,