-14.602967254068144,-10.217280676588462,4.822283780274646,-1.7908796043900148,-4.671907986045661,14.329609799879456,17.282831965479822,4.659000563453858,10.45059046533244,15.267923834771441,3.638740141262971,10.615174944826284,30.713698277093584,26.503065701148763,19.52914710739113,31.595340781887106,31.357605340884035,21.59956954352311,31.922051492479913,34.8130268169608,12.213324746491184,5.6185767887885065,17.901948560538436,16.162259944653997,19.003049626969805,38.57002390108595,37.65574036983835,22.365490287352998,29.554194399826972,37.35952717555872,26.396087472734003,29.462976375416122,42.48022774241923,33.46009842477238,26.668563904831906,39.36794519470586,36.05279035876228,21.0661384869372,28.002219739966556,33.41506845841037,18.730397028993202,17.212539337183568,24.7773845960863,11.16852398744583,3.335279945797936,18.96070076832438,18.910782037647696,2.988679399233848,4.243705188006931,2.9295850108657158,-14.17357431466429,-9.97784010187052,9.383698636742226,5.908882861989808,-0.2321173789301405,8.468184396751091,-0.6741999364618536,-20.016951044807296,-13.86822452736582,-6.302264667185182,-17.87540688661416,-15.38309071719862,-0.9629506976262316,-4.271696240206229,-1.372003985353317,21.23476672361472,23.99407696199211,10.223118984865678,15.860536103242904,20.981272295319393,8.039707730774417,7.105569511419831,11.287482811653266,-7.529843497359483,-18.311238348446338,-1.398514184368298,4.2250087504337905,-3.8001261774941586,3.0800010602687937,3.7388362173587266,-11.727488286334264,-4.827941762019293,16.50048524475281,13.974116179724827,8.648876533515846,18.392942448678205,11.734198719980466,-4.136878597208265,1.1195723125771968,0.014405907236874738,-22.279294746281316,-24.646505927537106,-7.9594644918444395,-5.654008628933569,1.1749320189357513,23.002430402322602,23.20133254660115,10.932354884440855,21.77764699779103,28.362661898904072,9.723974023730827,1.5755007455392924,3.186600643257805,-12.904496868438367,-19.71202144994853,-2.4683685682294154,1.1825336486383216,-4.118318446427747,12.836522673505602,25.361910315342673,15.796472767867193,18.68668049071457,28.63249003694244,14.532026738862037,1.4232436102017805,6.466839858448946,-0.375978412057405,-10.073612566096354,4.684592863076073,12.054163305875901,-5.444246458607238,-8.251112565075932,4.612915206806595,3.9297332667711435,8.393670734042448,24.632026338547206,16.425006527480292,-4.050761986165857,-1.0495090112941385,0.2957463320972778,-15.981766226979552,-15.301305301963719,-4.564515956379051,-14.769694368879849,-19.051392319802666,-1.1081909588586445,3.264815443807203,-2.024411713715375,9.78451538130961,9.275582202235569,-16.09873765265157,-22.81929339429996,-12.154791780879595,-17.03138932085425,-16.075201336438226,3.20582227737689,5.6355204136511645,-1.400348158404332,11.02376408511575,13.443820239312874,-7.9420647141335365,-13.055613972044497,-5.840768990039977,-16.647112818521112,-21.132098827954202,-7.574571985277065,-10.254075675749545,-18.457143082379897,-1.33575532756237,11.834410840527127,3.2543412504747455,5.709304085531382,12.293787322270624,-3.2676072706925368,-10.126548631067603,5.575066724561757,4.937121638147885,-6.985034910517999,-0.487106045580453,-0.7787144397317376,-18.11434598465645,-15.31378648054903,-2.793809337805901,-12.5080743799018,-16.136441301748174,0.1285028458869979,-0.19115022680518123,-9.170088339710855,2.685724686417635,7.7541544819336945,-7.095319481592524,-6.330959763209627,2.1078278566456996,-9.187259098392374,-10.702180778602932,8.989643877871103,10.76733026250669,0.6831463790953256,8.099455576616615,9.121423603091497,-4.796614404505809,0.9682770550554709,12.455583597316785,-2.1743926178539574,-11.876551159893372,0.19344449571263223,-1.0153144931281775,-9.080177255996395,1.835038196032265,2.260734566941978,-16.837937384224077,-13.958248713391217,2.275665951321167,-2.427979038456927,-3.7526593607027934,9.971431612089072,3.2472337253358123,-13.149022683474719,-7.087178109234319,-5.050318577808626,-20.193854563714048,-18.031850416372443,-8.204213057319548,-19.353646271480063,-21.764495636498864,-1.881146201732765,2.896080637915155,-2.3553476447607227,9.218296136774537,11.659264302760437,-3.40773860011391,1.2581958635542643,14.915234833826117,6.537354361207156,3.08156602069474,16.39093151729449,11.89207184408651,-0.7482684195680882,5.952765230363754,5.1374064983994625,-11.237934540378006,-6.309248981439367,9.25336197944291,4.590488150695128,4.091558545817453,17.102180378037566,9.696295595814608,-5.9064426294440615,-0.5437493953516492,-2.5702830669861756,-22.19773562543951,-22.638610637985572,-13.964927189989341,-24.88656910587742,-28.129107597208748,-15.313660557360382,-22.945399859657993,-37.993818111002035,-29.285733322332845,-25.02365681151997,-36.2130319011595,-27.82939548729852,-12.063323349203198,-17.4899101572033,-15.460347546819253,2.736871931593467,0.8977347125026411,-8.774433036666565,1.7306588561456833,2.600955740459449,-16.486911919416084,-18.955251429614634,-12.758208458012128,-21.74390708168996,-16.477891595258594,8.819789564330312,14.050363321111385,9.041258963809037,21.44969962317725,22.23790645291556,2.8485532145788612,1.1048524596616023,7.338647830423052,-5.121806951226777,-6.89811761401754,11.088177275528643,12.67928617528873,9.016213907662213,26.44967876927991,33.1748037407741,16.881697797431762,13.679271777112232,15.943458350954081,0.07442719990145719,-2.921869727636995,15.45715782009023,16.80103041214276,9.81842908768337,19.377158646351948,16.87318561716878,-2.0614427966030924,1.3282891506172154,13.519256632459026,4.2012767281552374,0.19915756589713415,9.869254512914548,0.9748510971707862,-10.003038550303545,3.9765737094005846,9.643089389268313,-3.349001460492036,2.439011254113943,15.848308824689637,8.969970773951532,9.654403993275137,24.282378205905406,16.664748939305554,2.3072203384486354,11.823335807747045,15.519805950746624,2.183805908471208,5.3751289339978765,12.13694718003064,-2.4234167144031256,-5.195145682073228,12.458712846474647,12.17414163291578,4.83836379974025,16.667999364980925,18.06175989308631,2.138153294494588,4.996328338359859,13.006157950572254,0.36654304434046026,-0.7368874226714044,17.560642258274623,17.51694435250959,10.705461970895689,22.97221292422649,24.203975783704564,6.994061351271892,6.856857544351782,10.672052857804395,-5.550672731715701,-8.412766742329836,9.825429874582776,11.09207276269536,6.037170040817972,18.72754961919006,18.669994996664947,0.19896232567884997,0.338954685777634,5.452395204360683,-10.836441747906711,-17.162615206650635,-5.053231665723672,-8.927505911748831,-13.854717820596075,5.238989623500919,14.877027195121482,5.604775012408973,13.54203958139279,28.894802414405163,28.53175163290137,40.44807506384924,66.3260024726269,65.67845069464911,51.238234747611806,53.87296836145717,48.87922241660293,30.27563820583885,31.084455036395997,34.37102556169735,13.68618108746822,3.0430904322677046,12.111799092577307,3.2272265608576993,-12.379980971881,-9.050536361914403,-16.1913483166453,-37.24211452740678,-33.97957932966265,-23.513272262783936,-35.47284658127439,-38.810671614517396,-25.945243008702466,-32.535975856438014,-44.41155766420978,-36.734856781794036,-40.07491043639063,-58.668800183795476,-54.97358046353388,-43.576445704833944,-51.34603123877426,-47.62092538509269,-26.26462289650631,-23.992729341700745,-27.222149289026287,-11.94799555174902,-9.923225093995303,-25.82146286979007,-22.582758804066465,-14.458887773281507,-26.07412468910783,-26.09492268142661,-8.911223329707024,-9.98679419357066,-15.373386360711354,-1.4429658035318793,2.084968431742657,-8.462978640357367,1.0714326614758578,13.101558858059652,1.9766536902048566,0.3411751479217904,16.602491872691946,18.68748439423406,22.056831865357623,45.27683140139733,50.431831216194865,31.600464382589234,24.65868100027552,13.671234205174734,-21.57951504782799,-42.200606593616875,-39.81078786404351,-50.02981966658793,-59.0071052839103,-46.69126500710756,-47.28354560912736,-62.6751993021902,-55.06355820001646,-43.19097654634742,-54.52577488450061,-56.977790565335496,-44.04901915788969,-48.62352281267023,-53.45665331353893,-37.19823565796759,-35.14871468940582,-52.31899448512787,-52.16609736670553,-48.47494112780806,-61.29466753189644,-55.912207934271066,-28.872482847246125,-17.960931325199496,-9.794184020821302,15.656299622851241,25.155352236290685,17.71394603800662,31.5594263207971,49.058786286214804,42.94019630630805,43.92864339076082,58.638653535756056,57.091077227280394,59.599181780057535,85.58288836070861,91.871156312591,67.50018652854098,51.75817422650947,38.30130514048931,9.792504605417616,-2.9475267279020243,-0.0014629775927277322,-16.21508879188307,-28.663447015430968,-8.263134450720782,10.61049180773809,13.214216327628735,21.626545613230437,15.422670784788068,-20.46408946553658,-42.262999761495514,-38.50766066782618,-42.66897231923436,-41.475138531390435,-15.528876927813585,1.1572521738292272,4.120279556516383,26.88329048658434,49.56962838062302,44.03739225871951,38.261653158235035,35.91255832120184,-0.911930754002972,-63.092777816769654,-123.53883827166767,-193.63606497651213,-249.2296737756849,-241.01988094106576,-206.99563237289698,-209.14415554476093,-232.17450165989038,-255.51188841255757,-274.008697917965,-242.5466775677103,-155.38659217781893,-86.27372594905995,-58.07379693774405,-24.193760880485936,15.32300800240926,39.384779883791346,71.89254862070291,111.63567592348966,129.40042395365035,152.02676317719724,202.58150607169523,234.68174462253907,230.68199037397633,225.8120434520487,215.91977959946223,190.44595416721842,184.1439788967505,195.5092305823665,186.53496936849731,173.13699018968165,174.70134331813057,157.5993727636995,123.11362789466448,109.98181633957061,102.90898883043637,83.2416851728186,85.22141257424519,109.9458280553947,126.33300197109943,158.32467990769177,223.13109254051466,272.8787669150599,293.9127655369566,317.5101811087815,329.412673579905,317.9461109700194,319.45590800102735,325.16154148109746,292.8224900947336,247.00948813261118,218.9175914166425,173.79109835506677,90.96635003713598,-8.54562347181411,-119.90836028788976,-215.27435219770462,-220.66566276247315,-130.74101007396428,-33.66907576970183,7.131515334600987,-21.496493811656684,-115.3962321306966,-216.72403739099457,-253.12707286462333,-240.65893386747445,-230.75949994537092,-220.5784762927969,-208.4167200859459,-211.09787436851894,-205.0379049326498,-179.09018692138042,-173.91299882869686,-188.06465557417624,-180.61381308485576,-167.25797037282166,-172.41840330231577,-169.38383644591391,-158.2179426117027,-166.2501543862194,-167.70338804443682,-141.4246102853934,-124.52891438165521,-122.0987181716752,-103.50725069076852,-90.12132470090461,-102.04269398455853,-101.50180891991546,-82.2160829378895,-75.80513249559671,-66.11429019282524,-39.40868176478992,-32.92045445501127,-43.90569777963246,-32.589901577962,-17.16894319017433,-22.693099830580206,-22.29864303198606,-17.42069979130854,-33.91341163529658,-42.990551665225055,-28.389037814708406,-34.23963639575616,-64.19989009999543,-82.41995523455917,-100.95075049160221,-126.52558564237941,-121.5211303999227,-94.00945070315963,-83.09627454837214,-68.06097738165747,-25.55171405966646,12.009749186831893,34.30330674316095,55.987764381959565,45.25290454227802,-12.143329099812263,-56.83025688094823,-53.820784303712415,-23.52878531929194,29.345220373620254,89.21010774686349,108.83976245216267,98.03023161108015,104.86485694201995,114.37517012963922,100.62079577210537,89.06049690790246,83.79795786000732,68.80242810362849,72.92602155364494,104.58755482211237,117.29139301310968,110.41489611397242,120.50225458820188,128.06816226315098,111.83500905658354,101.14226849613725,94.059334052225,64.53949280079962,41.90441389441084,47.35541364299902,45.492293424929684,35.641680328560064,47.90666888654364,58.87428168223832,49.527833283819135,53.21116156214126,66.14662336969624,54.41277040768986,40.73356849182749,45.86209329534235,39.12760899630024,25.304612816798404,36.05159783167976,45.460836755046685,32.101714347674395,31.07776155930147,43.124087193734866,36.0048937210868,30.738496385316843,46.318415244068376,51.48507584349033,52.0385143717296,80.73771192882876,111.06765215291279,120.81374286452186,141.28582872743775,162.3003560031192,138.81089423207695,85.95149747114993,31.558555983030644,-30.77195563630773,-69.43019233705493,-45.70261032123271,-6.234013913774961,-0.8291443048864493,-2.3743526930592873,5.4117694142158115,10.051249965711303,36.88659528354091,87.8100487047535,108.51262077026286,97.9923097224962,99.63552661007452,99.89052901312387,80.62986304480039,69.94040137742296,61.73811149775965,28.472556284418125,0.24635416481253802,0.034826265515240706,-3.976872847216554,-11.640598281883474,1.414563543849102,5.836355755750377,-17.75459156605156,-32.25616750355331,-35.190533459113276,-56.108799121512696,-75.2323298660014,-78.20669275482966,-98.79729081039537,-130.99791503093155,-138.77889871480392,-142.75691685555216,-162.709838611875,-167.75702281992318,-161.0032910997881,-172.8673399249925,-180.2692526040505,-166.3963428337703,-167.49859043916524,-183.55637165103136,-182.6041483929098,-182.80457998457126,-196.78242523047402,-189.56833272845665,-167.22609180572346,-165.64535938363622,-164.40973412358642,-146.04309728197566,-142.93987429424374,-150.23559139850897,-136.7920142983981,-128.5839067616261,-145.66051146633356,-153.1928426928775,-149.91921678155012,-160.8525344216227,-156.97433294862353,-122.92093660867437,-103.31219984116967,-100.80193128211813,-77.3642014310071,-45.474874111211946,-20.153597626177557,22.480346790162407,63.28017623534398,62.22671592668263,49.272296037553915,55.52370660829666,53.27074638337676,42.03486790506787,48.099442511971546,50.165530990452005,38.25546829530874,49.04210150801982,73.44847602230698,73.52447126928897,70.21971417885266,81.54713858427607,77.35134706211528,65.289849568221,76.3537887927545,84.82790283136944,73.51388375239924,75.77805501348988,85.97860044166481,74.46041987988154,68.21689836785694,83.93967322113909,85.48163492325628,75.05760997518577,81.53026883794823,81.68388688809753,64.20685092557544,66.76253942493953,82.59787527098733,77.65298368876995,74.89192700865468,88.80120474768816,84.9527475992171,70.25794174751277,75.5067885875054,75.27539038696388,55.84557212801297,54.29367462865399,65.1757786230304,56.659864223429025,52.12691786957425,64.96934131361677,61.00708337397905,48.05207431168725,57.02803140361789,62.51638171807935,48.914118981292724,48.82576966324364,55.7271460135968,42.617826887719964,37.32710251005309,53.017824340981235,51.77800650897689,37.288425114802976,39.61489163141682,36.97557997698975,19.140162709342345,21.190217167584485,33.768902986474465,24.649066156944457,18.928715027564834,31.26135229164805,27.81911094789517,15.133562512029895,22.448741026554885,24.98571443081141,9.709237941422906,11.214427098848743,22.513589544859517,13.771903671290346,9.941507441758716,23.70606428688386,20.272795643092117,6.864572437166174,12.961336904797935,14.423636874854246,-0.3899000952129752,2.157248874473251,13.095152673387672,2.447708031361018,-3.955546931283315,7.556992737017282,2.760846880626909,-10.724525412368715,-3.7558663185861154,-2.926269231821896,-20.707693865772008,-20.439878254670624,-9.131719233553287,-17.20251508667306,-19.433555927465278,-3.287414032601786,-3.949561591425098,-13.675259303971316,-2.927817775930526,1.4748827985017166,-14.728184827367945,-16.45804921429217,-8.851199848756067,-18.32720524150392,-18.246364436381423,1.0017212365216563,0.14902595288814968,-14.836437760761552,-12.762927843908159,-15.085484336809996,-30.283606985676204,-23.603252511436125,-6.84876793429782,-12.824446880422917,-16.972702005895655,-6.477583370933788,-13.52581095748575,-27.515682856177754,-19.233713671890722,-15.795207347412447,-29.91396363001165,-26.744900670415003,-14.839769002275187,-23.26766999662711,-25.251890774213074,-9.513575427422685,-11.866645111161201,-23.295692029129647,-15.0043590903,-14.212796142949399,-31.918993392124598,-31.614827968540858,-21.209501628156637,-29.185206242048526,-28.99808424181205,-9.682488026135642,-6.800004879938661,-12.849295644320632,-1.8331532940908621,-1.0188209679402283,-18.990741952343647,-18.251355256434717,-7.339844927937252,-15.679899311435427,-18.7361138813986,-6.416465750175107,-10.61688471663999,-18.65687191299801,-3.5702723729718366,3.024147342000487,-12.84539473102731,-15.210518859232932,-10.133831999711791,-22.521167779106367,-23.8374187067029,-5.6851258234261,-6.720962495618516,-17.65038998434005,-8.803382234411883,-6.999082132134249,-22.397126371431238,-18.923696262389583,-6.395675223652445,-13.972691819362915,-15.196969360623942,-0.41601627089522886,-5.519743705015108,-20.113817248105793,-13.994310386590527,-12.63345168754123,-26.57174836809673,-21.775404331348554,-9.063684188749981,-17.375057843942184,-18.98805203588428,-2.1397239008646984,-1.7029449680320234,-9.193380342783712,1.3903078236530382,1.9873149976479374,-16.24309997365772,-15.796448793104577,-5.361364998810007,-14.323001117176583,-17.749827189099282,-5.244447150117686,-9.316624515754917,-18.103168631941415,-4.008261889170724,3.483673999635715,-8.177985591548092,-4.820556798221545,3.817324630719293,-9.255749081983067,-15.125945874175628,-2.482263510403623,-5.390402135954806,-13.575195753215391,-1.6867160207603815,0.6807800225471687,-15.50185788959207,-13.50473495786871,-2.766628293937313,-10.679230982365263,-10.308898196534427,7.400121694645333,7.501331388583044,-0.11589476652697428,10.521407606214023,11.32647537492291,-5.983923102317787,-4.9759114961161295,4.188044333213973,-5.68226322379098,-6.584131123883198,10.227975982481695,9.236524585626324,1.5017227065086889,13.39773633037814,15.443214883315253,-1.8500352936680615,-2.4510861869482525,4.271745613382013,-7.098971033652636,-7.6902385398475035,10.548908535574283,10.67858448538188,2.239507228947642,11.466618709614034,11.110906449895118,-6.2686054425180995,-5.060163709551411,4.542506756040051,-3.234711222962006,-1.4665070898295065,15.846343811455156,12.45169498525298,0.3758274183148984,7.927436551345899,9.074432094228602,-3.597229961978587,2.39666207986615,11.830478071869427,-2.692552195277236,-10.287012549681924,1.476214121856061,-0.06661417874184572,-4.699871792081827,10.775087578830979,14.920750110118103,-1.5790990982604223,-2.319582272438118,3.057306485088409,-10.02803341727221,-11.113062756709926,8.522356932540447,11.517528165163503,5.551876953736973,14.280725130760967,10.297246225116663,-10.46543542452952,-9.003726095480868,4.268452204014426,0.060519640116382334,1.8021496581280052,14.79703490414219,5.299805402335,-10.375750368535748,-0.9560736821397038,6.284511986857654,0.008144006410568672,10.157704367954087,21.55158226711082,8.873718639386727,4.17190821943214,17.10592235864918,12.76510866171672,3.0718341521433388,13.596854446365564,14.907763204483341,-0.9304881269507232,0.9286434477311145,8.56193548310558,-2.4057634068780356,-2.8044880449569916,12.689602537823086,8.418056228973349,-2.1631210743708005,7.276784038811316,8.297799414459769,-6.527896433632924,-3.595413614815109,4.308340869409665,-7.029601296749244,-7.951776080352717,7.630493269010752,4.442069030339805,-3.7133119424404173,9.088873662213409,11.895730065501011,-4.598232534118321,-5.43826903828924,-0.7344737117795241,-12.99999775895948,-12.173307967442925,6.600475326322172,5.041425529780813,-5.444962017910703,2.581958075867382,3.4766631753717014,-7.949024190862856,1.126803202481966,13.786787949183113,2.31186210972169,-3.0948998319864796,8.006107879360293,5.042295357765692,1.753404862048062,18.92416072050262,21.786857337111886,1.7724893934867367,-3.887979536118174,-3.041695902651611,-16.09094048924586,-13.161715675083952,8.499077629524631,9.85587018370561,2.2900156867012904,11.715770238351844,11.45746708273548,-2.590052829107189,3.5039887321489838,13.72348439375708,2.3889372976108385,0.14101523576186858,14.306142205127083,11.604890882056253,5.703983581663907,18.63389042128796,19.107042162577816,2.6507782255050287,5.404888255908588,13.365792035646951,1.0296143312708521,-2.2643888745092644,10.14205649251823,5.306159695333265,-2.2369559452773733,10.174683536364451,10.417489392103287,-7.033557711215481,-5.265328971613263,3.3097534610846053,-6.712171389614675,-7.766537827762306,4.864149266705303,-1.900047300872438,-11.75252121358234,0.07084639732131492,2.2901159250405865,-11.861553039191373,-8.23412799656335,-0.8271891839044545,-12.598252527810764,-12.04520368925061,5.765469557739946,4.751025755463125,-1.8710486848633976,8.886536856545248,6.925889774089718,-10.711295919298184,-7.482834701547442,0.919819678028098,-12.083372330678142,-16.366536538287296,-4.618060114847356,-9.300301173568668,-15.244463248879354,0.2920251352079486,4.8778910920214855,-8.682263735563769,-6.145334454778405,0.14011989505301958,-11.946233974334486,-11.931788178816007,5.76658056198473,6.5526886488536675,2.8254911775705858,16.4694692426652,17.047823444694192,-0.3862377074372416,-1.2073776507775675,1.483071925737545,-13.553632042034303,-14.932452531064015,0.33051978250210645,-3.6841380352578943,-10.949432024730978,2.67265973601927,5.973890276363266,-5.8583423374687165,-0.2210952363234524,5.515250134311704,-9.304235410352176,-9.467034754158188,9.181819203643796,9.994972362854767,7.229161383003291,22.589171733143925,24.134728965686516,8.101265715979414,9.136909114908498,11.87417300949759,-5.112730751663334,-8.517035560433534,6.393020516694259,3.8749831331395352,-2.6034095007329574,8.106011048750492,5.5550331432440965,-10.962456700754004,-5.387523709884946,5.2282193181210275,-3.953129654885041,-4.048839132243876,7.500409368880479,-1.4191601464369983,-11.442134508943214,1.584020975602905,6.6235719773109025,-0.5320349667855941,11.212279766985741,21.172647251409423,4.858239986206885,-3.8541950160105825,3.7566843041597155,-2.0774105902756155,-5.203318197620568,12.27714871381741,15.20879474514792,0.5725486126528603,4.419361535316989,11.070973920407024,-3.066059798030075,-8.427308305545107,-0.7178256746463938,-9.860717699397814,-17.19833113514256,-2.001860941137517,1.896571509546476,-10.626861158348293,-6.041202527408946,1.1416487235315724,-9.212313521729738,-5.562730205184943,13.931558262646213,13.907423281879922,9.838305134325077,22.706018539032872,21.480519428986504,5.350386357815978,7.974686779532355,10.182673448340761,-9.411578057021854,-15.634312628851191,-2.9387507067883876,-4.439565970175995,-5.518783304273871,10.584693821943818,9.215709713155803,-10.303397122459668,-9.877529117939396,-3.82271363173487,-14.31363689329759,-11.852261965188607,3.8385859800059876,-2.147158161975722,-11.37923869223266,0.8584429979172157,4.88020617030674,-3.343626122233151,5.270939005942583,9.994936679048944,-10.054717691499976,-19.1427122457622,-10.479835963640998,-15.631620980731578,-18.84162713840714,-1.1589085452282948,4.743956540412444,-4.4225150693225945,2.8047204804471884,8.022070748334077,-8.577803530569883,-12.547734641671067,-0.1468761769608351,-4.664812086694701,-10.201395270641235,2.246071468152766,1.090892236994104,-14.244571355809693,-10.273467661984386,-4.267409262759125,-15.782421354041563,-12.406301852632518,6.045169000276226,3.7157018472643477,-3.00783096131057,7.8616252132905275,6.8850648428977825,-6.9268796423514365,-2.2992329745129316,1.0650894019393906,-16.146393882302846,-18.189167756861263,-1.8393927371331067,-2.2446669498909304,-5.301449448355246,6.566081773485133,2.407959054932369,-15.133783319298502,-10.680910939676654,-2.942277600759764,-13.785701776813426,-12.37365492271249,1.8006071465714175,-3.6798446175566957,-9.08596120698265,6.39810321399933,9.306193072012864,-3.8840263296322233,-1.0332696341897654,1.4848595145618397,-13.74475881185354,-12.823500166759956,4.2316432912285125,1.2156009863673711,-4.944920056118502,7.6221420061236715,8.685934344023586,-2.898298831168196,4.1863994761021095,9.69495001262321,-6.951368643235376,-11.268078106275562,0.3512159716559893,-4.29669226256161,-7.269321639090255,10.035192156983623,13.434707991446935,0.34493559791711714,2.6321683716859265,3.083331620643916,-14.817575929309854,-16.341110618239846,-0.2890306083047891,-0.38038463975605996,-0.7070099174992128,15.766426288279948,16.461052471212476,1.5971914709229384,4.602410532387102,7.535140898680632,-8.463181582146934,-9.629145214590757,5.403658046995891,3.081982207707505,0.7078026144382967,15.754359398872927,14.101537815697329,-3.8638806941204766,-2.8056643238089105,1.1554450721712866,-9.847415924472951,-4.81126950643522,12.175620316085169,5.3956255961717625,-4.59286558751918,5.928558182678092,7.648314457635181,0.33492292688959635,13.045354101487456,21.51888497997086,4.546546786981405,-2.109035807293306,5.431716452113481,-3.9232672254638032,-10.276879233523156,5.5983341309200245,9.575645145609531,-0.007972643487566877,8.831007950116174,16.648107807340214,3.9765588776548766,3.751199931239311,16.95029838117682,11.70423002946311,6.872857529631261,20.07807585525356,17.74202573520468,0.9968901726666175,3.840924983121069,7.762145892228429,-5.843999247991649,-5.378351386131905,6.847760968322218,-2.0397206214691677,-11.357890898597269,-1.1145683147336989,-3.0314087547732766,-15.548229344665085,-5.974620046239023,4.42626666460025,-5.5972202382655025,-4.17861494632837,9.316081276544736,4.036700154622751,-0.4240573877119662,13.266802388876705,12.416290440708789,-0.8126228300304374,5.948933590297036,11.431500408567048,-4.222617973955219,-8.832482819370492,-1.4742815752559637,-9.886681477007723,-11.94442469023933,7.300723472134288,10.186806434112759,-3.858887939143256,-1.4396024516999266,0.03927092347864378,-14.528631651956374,-11.368849193445392,5.853698787434959,2.510340747709048,-1.4023635956496396,12.768179102988578,12.365525897621826,-0.8878032938431328,4.989319474046809,9.272346111126424,-5.566800289144615,-5.351099890988239,9.038732405908835,4.610883122961313,0.04995021816780909,12.641227597231367,10.38094865659249,-3.3052832624942106,4.870224286305632,13.302668742073347,1.3240570179006799,0.5491509643206949,10.564163591874197,1.9686695143431816,-3.353142741435449,10.96151379304807,9.77245439027497,-5.233570784800889,-0.6867942522203991,3.963691876129636,-8.398655032756588,-5.418180523527433,9.518056443138663,4.448657014036464,0.500348923238647,14.676536395379728,13.613023257998451,-0.508525365467535,4.325304947939044,7.447109686340227,-8.249592881468706,-8.957909166476718,3.377767542331232,-3.0284289616183644,-7.503220147617892,5.5966584650404805,1.926748925874417,-14.73557311919308,-10.484400318423674,-5.336745812352127,-16.499909425870023,-12.240058937814464,2.8792313766128697,-3.4363755607297106,-8.9107218409127,4.747238389112298,4.001270610202599,-9.698215237695809,-4.583248375732746,-1.022784484706626,-15.723393839452328,-15.16374058464958,-1.7305429840401674,-7.01410083190787,-9.20383218634648,9.071020718450082,12.855256779447561,1.5800326635953112,5.7082653479008805,5.866190787355338,-12.242394398794062,-12.927240966164963,1.7593417138780607,-1.9031947497649249,-4.734625152114454,9.740354694818205,8.707646678445318,-4.956808375938426,-0.14815400214339114,2.341791258905359,-13.331207082040095,-14.163537599234115,-3.0870565861820074,-11.285599174454518,-17.40981814140682,-3.5093850268597455,-1.0770500113766077,-8.104891449199688,3.5301099534337306,9.758522729543069,-6.131132032880996,-8.720369294794585,1.616651700809367,-5.085322639347052,-7.749944588906644,8.442858192086089,8.92068408667652,-3.5437520577887023,1.754871782000401,3.3372719592157942,-12.920349016974928,-12.179269467031396,0.8544108347526498,-6.6671386326866795,-13.350020819696441,-2.99438793639544,-7.75189357060969,-22.31074043671766,-15.782224789083555,-11.701765727599508,-25.789686432123524,-22.605394886509906,-5.676930946677093,-8.141812890646722,-10.014063070661335,3.382753350427934,-0.784354644860338,-16.060936018120202,-9.077597643427008,-1.7610889337551896,-11.32414451911153,-5.843456785606577,9.621849494792668,3.93685378697635,1.1952801055576092,19.74537682970314,27.04719201308972,26.775679416259056,48.839583049203874,69.60962096728508,74.00307388110635,98.48459944682155,139.41754355651182,157.2154025391186,163.256609264364,173.34970089116683,161.8647316478611,141.34300481317442,149.1762967544744,158.98887607019546,142.57683943205203,128.2717050435651,118.04163304624367,88.39407433268838,64.04831142444719,59.10234624680514,38.71317809983981,7.4646849343858115,-3.2225770811724486,-16.124374725118056,-48.49492677274861,-68.96055725799893,-81.33641930394072,-112.58972036557392,-136.56814682324318,-137.6164521998897,-151.15558395777117,-174.37156821036396,-176.89181965397262,-180.4783591515555,-199.95748878291272,-202.49905966012057,-193.86907144219325,-204.9065140084089,-210.4853651525608,-192.64445661895525,-185.30018594977113,-187.14911873772343,-170.95581059984863,-159.88579220444979,-166.98029818005074,-156.80778907144787,-133.9028744816249,-130.51031837021256,-125.31446582187252,-103.4152865874446,-99.04185091924082,-108.72273256576527,-101.64256370745663,-97.39629626903589,-106.45886258598762,-94.09223531619435,-69.0545976280762,-66.83978876324781,-66.65315576037618,-51.61591340784794,-49.589064437623115,-50.948765355824065,-27.491074161908404,-8.64699692713424,-12.797336337008742,-5.845415823526929,9.422353012113167,5.868406974792801,8.357928612165438,29.549543545266218,33.40881705702543,25.557494507244016,36.99297776130597,44.05256616657202,32.60637546577698,37.18993504063837,52.56410927189581,49.42848761326154,52.015998206639395,73.65640412409189,79.55570153771522,74.75587105600303,87.594739572944,92.71970575508442,76.37602841566974,73.93719792385329,81.49022083332689,71.83758619440407,69.45859837310805,85.78472088444263,85.45970924555638,74.6836450624419,82.91884019720834,86.09893250184325,71.68433251085816,74.29611860923472,86.91598297172385,79.87644461306805,78.10526894995306,94.23708807207018,93.76889245764733,84.43617530104206,95.53309748543968,100.58749713499716,85.24795487540986,83.68087589884895,90.43504126410983,78.49201482330133,73.49334046662177,87.45753284435952,84.96489157739812,71.69793927266795,76.5142406503727,75.63817972489578,57.18010631116192,56.50763595608945,68.13496374582263,62.41038446457887,61.240201136025654,74.64378994397605,68.33957746958839,52.138549231788105,58.610599320928614,63.347484756159155,50.583900074073185,51.879061085824205,60.07275820675185,48.3044529652249,43.813945645259565,58.30612392794325,55.09319401329641,40.98864980333639,46.14236920389076,46.588484626711875,29.80112463279889,28.637807288995308,34.86576880025379,20.77170877580763,14.092500264386992,29.06218927524653,30.379856678683637,22.083498711439972,30.189610053590208,29.064360578387866,8.624556966106326,6.751862475359768,18.23008673392068,13.076558384313858,12.690439053367323,26.468846961050726,20.72415927851175,5.556413948357997,11.458370436210608,13.330634421461603,-1.5290415231841274,-0.08905908902067372,9.161406124119436,-1.7615165010327063,-7.445917491267208,3.3972029705567603,-2.3170974677981615,-15.039174119117725,-6.218251840305054,-2.51188505834712,-17.396917806259005,-17.300508771050485,-8.768091916140682,-18.575925680499957,-21.190282917928407,-6.061978871994091,-8.480023826245567,-20.74571030095766,-13.987335355918496,-13.03085896275634,-29.138479568053715,-28.04194832550029,-17.84710125584715,-27.040851911754043,-30.772894640876263,-17.884521777469327,-21.51315530474983,-32.471229979809344,-23.410168018366,-21.938782265199237,-40.405682632709066,-43.50051922527632,-37.00611050290778,-47.08417965203613,-48.07383883251286,-30.33246412280627,-29.3660826944611,-37.17822154215379,-26.718877645931492,-25.18118736852483,-43.833990291957235,-46.997223502040136,-40.52451780477512,-49.85081507029788,-48.93908972424697,-28.77558308172741,-25.554679791150885,-32.253126646325605,-21.793161444112236,-19.230453153081406,-34.663456168224606,-34.360930009561315,-27.419214003131117,-40.810297594399174,-46.960522940685294,-33.61478092481104,-33.9578996851053,-39.928791701051146,-27.2267365910891,-24.778495787571952,-42.103104415427005,-41.96974724621955,-31.80681378817278,-38.63486315137169,-37.234696920786334,-20.391360890272164,-23.374945704235905,-34.8516743437172,-26.363368743433387,-24.69964936928222,-40.83293519697007,-41.0524923635873,-33.15544965476476,-42.35852764120482,-42.26106121617903,-24.2130482707472,-24.1333035080502,-33.23022099907377,-22.67069213452143,-17.349244606226314,-28.413682295209863,-23.804556513422163,-13.67667314251337,-24.308067153579113,-27.590648198388543,-13.075489028593747,-15.705230146965482,-26.08170614631069,-16.566334916548335,-13.015567559567417,-24.815775445127272,-18.74805912290364,-6.326420340842055,-14.971530591121573,-16.897293042167203,-1.7335122536459862,-3.857964377343925,-13.492397604594567,-3.354366310921453,-0.4726042751948356,-15.706827027193256,-15.25902053714936,-7.921843767291371,-18.933547489334792,-19.47135877036483,0.4640885739512033,3.261503991809677,-5.253101203834113,1.9743705332657013,1.6940413080526475,-12.818200521053896,-7.1923342673823445,6.202699478720937,-2.419619482407523,-7.121425772613131,3.773603877660859,-0.4030370829988166,-8.846578158673978,3.180373735957861,6.954208257188586,-7.914048100412081,-6.924154756531182,1.5198771107426707,-7.903814599809518,-8.553924902708967,7.2938214969283335,5.403607338358382,-2.866284185318178,8.269297172664176,10.855331551017796,-3.4201773029760565,-0.4574693712225506,9.39982879152594,1.4558442897389732,2.026800328209837,16.83729851959895,11.976646988909415,0.5622458695817709,9.941834114198898,12.852805029109287,0.07425090233575382,4.566487361336957,14.645629454637705,4.490011162617437,2.3973903725620067,16.662942462121194,12.239577511820258,-0.21279711736024076,5.3220375860508575,1.8874823417875009,-16.954018394103908,-15.113173522353922,-2.8178444161765057,-6.134286391371042,0.38198021003235283,21.313103088665354,21.167668618571664,12.056387433768808,20.258213611083274,19.40272497303185,3.0852771953204066,4.642896700023523,12.174571435226177,1.7155743782790376,2.0035619645063942,19.887754279822715,19.15055637318924,9.190307923680104,15.658634199802302,13.092920166382319,-4.268995635857922,-2.4325410087769517,5.762802548150059,-5.456966250470258,-6.864128756958066,10.432939755961476,12.148899876720222,8.373934887638509,22.754576943742972,26.831923667832616,13.298479657450475,15.72630122033218,21.401260540336317,5.909225708746461,0.13847124758156149,13.216835708672694,10.974838507649736,4.409908298983197,16.95046847045343,18.883422170790418,3.0779513510310625,4.934025363902258,13.058122009066315,2.2032177377231887,0.8056803151630543,15.59044165055938,11.36372324443323,0.6520440222679258,10.112246059448562,12.424636296282577,0.8207026566183151,8.794068970246641,21.80440268555439,12.679605138892429,9.908394046759904,21.43921754361559,14.208785231973387,2.2460291559821464,11.28895533835101,12.457041149285766,-0.9237437619731228,5.552609951830938,18.048834433932818,9.903961375387013,9.075754883876925,21.985426533337723,15.366972672651714,4.769991069264283,16.646121053246237,21.068340364351762,8.618532224639432,10.279266245559112,12.83782288233427,-4.892665234207094,-10.32247533521496,4.441517541777644,4.060639152686424,-2.1165329475210575,7.886476554834611,6.719935187184931,-9.165121430187842,-5.004484522557886,5.813708159454568,-1.9064511471338585,-1.0291648240170042,13.296375932593332,8.061056178904153,-1.9268601595586032,7.543800523946385,7.900725328133031,-5.047566529560724,1.9123453526694218,12.723869048476226,2.160215342693677,-1.2468996116842104,8.442202524617743,0.12152963379214832,-10.057662121668516,1.5887107920012715,4.672089825703532,-7.564976151454861,-3.30807115202129,2.626965798430904,-12.463890304899309,-17.556404158312212,-5.032376339399514,-7.000231854696318,-10.899818021403219,4.115824171757327,7.059154965118492,-7.693274362091945,-5.381533027760771,1.3776306194872698,-10.71245203724939,-12.409917124919762,1.4148563440273705,-2.769586916167402,-10.274078654898855,2.354048815648447,4.646576093398066,-9.202523907869224,-5.398739981312806,2.594942091340507,-7.534630561355749,-6.19228331180787,10.21122028266591,6.954247681998024,-1.7617952691563241,8.067340930226697,8.29750419461568,-5.313621738626127,0.15651744773834242,9.487355099508594,-1.326588017500554,-3.2935867116556663,8.97778172225323,3.40956179203633,-5.175509692623198,5.54460777942133,5.678942964307239,-9.058601278410421,-4.56691545655509,4.727601858161294,-5.075407018792389,-5.1353369036133465,9.431215259174248,6.852611956971485,3.074547788454472,19.66659955944177,24.355038426054886,11.04902121539125,12.850071419105483,16.34014566010605,0.6757435572368058,-3.5533658335440004,8.361282056591374,3.8652934239069277,-2.685120889613723,9.376659509913274,8.752925592474995,-9.510357035035845,-10.7851077962784,-5.66017796508849,-13.804549536162186,-7.639705632399474,11.694950644409012,7.148393704109373,-5.716398371553717,-0.09665720824464152,-1.414843222759206,-13.820975931972661,-8.918759864946496,-4.625501176019824,-20.079323945318105,-20.787322763122766,-2.1548669059447416,-0.06193238848488347,-3.2280312791875483,7.7869436209887075,4.558490606216975,-12.279827613046285,-8.217972390853573,-0.5811600290209453,-11.927082953703943,-10.722310177102512,6.389988809739467,4.825949783837825,-1.063845088687379,8.563451759042302,3.3598702805384555,-15.421408017578404,-11.019467365670021,-0.7865106610531178,-10.287102765716456,-11.604157708533211,-1.4107565467319256,-9.580381272000041,-15.803884140815954,2.026985003685052,8.745080270758827,-2.513721061075314,1.831127255682456,8.081968623168535,-3.5631058808138203,-2.6975056077234103,11.408590652030286,4.425011304787857,-5.408630257022716,6.436117382919245,9.728156616244917,-1.0021131777814611,3.543308126324862,5.723949681878497,-12.763314652721812,-17.155107606633997,-3.4536173068771747,-5.426531722596856,-9.065515361054766,3.9613109208027186,2.3368931890463007,-15.349809952122285,-14.751984862699473,-10.502383621762315,-23.03951644613916,-22.54037123166507,-7.353387688856682,-10.281652611586777,-14.239578769768066,1.6759655758148941,4.78753854745818,-9.735599986517125,-9.175972039101403,-6.454830934245885,-17.39651148364866,-10.356364970008336,11.596838004085969,10.205973115865284,1.3315133212016583,8.9475604148734,7.081868915834806,-4.421296569825593,3.6744569796502926,10.502713139948904,-4.3427401843671944,-7.255073169322882,5.614282031553148,2.295601031379416,-1.3067432715935334,13.579367893245163,16.349933256919613,5.743462252133168,12.187908020049056,16.576150197232643,-0.6982409551428219,-6.138979619038042,4.974248494131586,1.6821191343408204,-0.9035635597974933,14.172863151505878,14.67310909935168,-0.4305797025343736,2.1918677888215514,5.955333063196974,-8.733943785423396,-9.915420523412118,4.908195600940433,3.3976575002190703,0.9653087894108264,15.124751355830453,14.873455787254445,1.1167197884980817,6.62709154041635,12.362386003860001,-2.2887574429922264,-6.038052505647977,2.9231273845666825,-5.472477869702303,-12.138633662058728,1.505934427868226,2.8428129361110925,-9.50030243182057,-3.5449413025548564,2.6530664728143973,-10.168570763491402,-9.718300831051465,5.055530019975844,1.194174836032806,-4.151077977683732,8.125816831105132,6.930886402181719,-7.843271550144583,-4.091550080536208,0.5293043081637405,-11.911937239280503,-9.92131644511942,5.156513706361137,-0.13825677467703468,-7.723774372857854,2.384108716743399,0.5134779295149086,-12.324888291991218,-5.396100855395742,0.6603904028988756,-13.11514084127813,-13.581622620796917,-0.43174680166503254,-5.636709946084265,-9.716917534710335,5.895989078973477,8.65856022528366,-1.2646454978897106,6.941584927119575,12.605676697912854,-2.528903389622835,-4.538232232929792,7.771597035840674,3.6790240784048196,2.533099830737546,20.571628212447152,21.964683209882644,5.412311374922663,4.2167262265790075,2.1786969525312085,-16.00378098318438,-16.510596647952966,-1.0771288988888879,-4.140834174794907,-8.202037784035547,4.326105959155273,1.5592899067194712,-14.239437420769848,-9.534046355982587,-3.407730347927107,-15.182023567615568,-14.272650216782123,-2.513020333653145,-10.443514554606404,-15.990451910619356,-0.4579708392081674,2.112051221053619,-9.145050601899973,-3.8758161653929144,-2.240779122515829,-21.168895486660478,-27.05283039196891,-19.021735625498486,-24.618630928682133,-22.08288457508961,3.029484560016529,12.445354392333474,2.288110682278868,3.1922685254103613,0.11779686327637195,-18.17388691169909,-16.51356368173841,1.4522416329128687,0.8347618377450519,0.13124886737365216,15.740538513006177,14.627416333975653,-0.02664670795610924,5.369009192114801,11.321775871299902,-0.2524009122082891,1.997486453377293,14.517734910578945,5.050612321065737,-3.4553113678004888,10.047698691535608,13.693499549885093,6.963734052581356,17.82675913044479,23.311933693895718,6.1281303178950015,2.1641133811537983,13.199459080412396,8.572997827699822,6.982235332153696,22.83868787146465,21.252155495049145,5.28771092068149,9.359297131522702,13.78228993398947,0.4021776525337746,1.1201526125990369,12.238603881779854,1.524596498392012,-7.864485212646807,3.959134341549982,4.174111263325812,-6.318866270245346,2.1449989489329626,6.725319943749879,-10.219987662786298,-14.193012088671846,-4.719750046064608,-10.604196913918372,-11.215603204730138,7.16024171921957,8.91017770505543,-4.8917790625002135,-3.1995668830067197,-4.4173512295764885,-21.720069657265768,-21.016142536841876,-5.66140154529346,-7.340742130776586,-5.793812979378437,13.094472505904129,14.26346521912779,0.8859592719197149,5.525364710611154,8.081126775507188,-6.876907518133791,-5.965557574312138,6.996753690854257,0.2609433596540729,-4.107671440871055,11.427450954085145,14.026351072452353,5.196193079737041,13.494811239294055,16.333544045787455,-1.5730524621324822,-5.007045850710874,5.413336140681411,0.4476273038242651,0.3512740750446595,17.950264650996292,18.499759154864993,5.3607901272146234,9.415736658613067,10.563978010677097,-4.4171270924680055,-2.4373321850103618,10.927369725068893,4.353121038417854,-0.854722144474097,10.060167040070404,5.140700668951242,-10.50324653470857,-7.133645293382584,-6.956018059523692,-23.49921771500891,-21.103583538756215,-2.009403656657323,2.9912508767952,11.772885681296053,32.625078236647134,28.82436339611187,8.645981665549815,9.139865100770626,9.998927115591759,-6.383839689837161,-8.875521760564546,-1.4139695599514877,-12.248388071717423,-16.835246128221065,-0.41517680535032664,1.1901272890840553,-7.272237180311617,7.852373376696993,22.671966773631002,14.47831459520351,11.73735679414582,13.613833477810566,-2.5306323082432574,-9.82766782609483,5.226645121240166,5.545867953698767,-6.4468445217004895,-0.1025567882854368,3.902773353587911,-9.011594068767506,-7.84561639899986,2.1534676153230565,-6.527916982472027,-9.993380433496906,4.440879761007644,1.5570021274761885,-13.371031876774925,-8.75068470238043,-6.039860911774143,-19.060179528311995,-14.73103658306053,0.9544226700452905,-3.092274419930267,-4.318395507429816,13.478947068015792,19.631919624759895,20.359419895742782,44.376762096665075,64.22558364152442,62.647967840605986,78.28087361477013,111.94199687230235,132.9476639972595,158.25788889935396,190.6571185076905,187.32222240033275,158.29043094866157,147.6913978493358,141.76421087965304,124.75282284125704,121.73757043969331,120.39760816940039,91.25426438601824,64.36890487017268,60.25990261935235,44.30155543298807,14.323426811555198,-5.137273230995836,-33.709118526805604,-76.32134065176453,-93.69432016617968,-92.77112428900554,-109.32874130460529,-126.38709797727937,-131.09889776945352,-150.6197338551822,-172.4586232475589,-166.92961850321555,-161.6550365020969,-173.89258937613755,-171.9424354717318,-160.51610867364752,-166.58405917236402,-166.73128536725915,-148.32358091118314,-143.90129564613414,-147.0990826882167,-130.0730143073391,-118.32699006044136,-126.4419939349126,-120.53169267601709,-104.5919731313179,-106.39039460789142,-103.2342703467302,-83.5011803305887,-80.99839294966438,-88.87831129157698,-76.39144694506311,-65.38338999827805,-69.45311964481851,-58.04545724215314,-39.77282346235786,-43.81632115577409,-44.90552556417416,-27.699559560881404,-23.044366014587418,-24.843247746097113,-7.963304220308367,2.0882415690340976,-6.9332667795410625,-2.2761100432777415,10.316098069071815,5.177482808715785,7.773931778613407,29.526936023855978,34.6460189875831,27.613187393143853,36.4652370380129,38.914128890890446,24.69898055415719,27.319181384537544,38.55056365224515,29.554517222158218,26.105474652399266,42.97797769867111,47.15006463754743,42.472721786593205,54.21842119385348,57.53494955520287,41.033117542258324,40.719262325739,53.185799853190616,50.83484924359308,54.87832366769305,73.3202798116912,70.6191080993593,55.09900017796932,58.50704120618849,60.15587476151168,48.964835940245905,55.258183820648405,68.63791378950864,61.2613801679274,59.1648502754624,74.39328259542008,72.59226661593048,59.494687987565705,62.15778159642544,58.0590656802556,39.395825196107296,41.14717988547627,53.905827809473635,47.42069922363052,45.430781584334404,59.28542152135567,56.159358147554016,44.38582549044793,50.79000041275075,49.553453493724064,30.438696842622956,28.223804138921984,35.25070052857174,24.582270925791672,21.529940625011857,36.03848404498537,34.17381587810403,24.350039781270247,33.37824070174558,35.140530673452474,18.167286799722767,15.510062587362953,19.90279319309449,7.651023498503868,7.216158315947794,27.95035810834898,31.563932959433274,22.135322528210835,25.50522129190054,19.25859196967077,-1.9374322577044927,-1.984790520969971,9.030042407361233,0.9895353142255789,-2.0610993209502584,11.387410630980892,9.652059179008763,1.9070572674945314,13.329034725593672,15.355129196384087,-2.9141918141264638,-5.499414807962049,1.4135442454725045,-7.902968789206547,-8.282609945254283,8.767978094810607,8.290030864057512,-1.029744297820136,8.451308245658614,10.901829169951043,-5.1608110228482165,-6.344089081170137,-0.2118350319331821,-12.388956206774022,-15.883366695994688,0.2214913819765636,1.0122789422305485,-7.11960680087081,1.2861297049574612,0.6080010767822266,-17.740403192568788,-18.07898137843914,-8.661457820878615,-16.352194187112943,-15.520705929215945,1.8188910792221584,0.3181320467714355,-10.373011269461575,-3.080689358851035,-3.2087911156127693,-18.68519503273117,-15.824640521785197,-6.31168770737503,-17.700326511082604,-23.33234419898793,-12.519467456249384,-15.927303446346011,-22.412753285457732,-8.584125588170904,-4.079765970065998,-18.834872633639648,-19.100258088744734,-13.545569609643923,-25.837316281610853,-28.925912313806652,-15.039069336692963,-17.48810945674692,-25.510574923809116,-13.877611504711998,-9.989722430464319,-22.379221354763896,-16.517704959051912,-3.001954834602907,-10.111800031040126,-13.207921294703658,-3.578034188419937,-12.225619174987184,-24.850064510597598,-13.652969040170033,-7.099592049506497,-17.70264546451755,-15.19240854459081,-9.847048506736083,-23.797147779548688,-26.823415454282404,-9.936426604300282,-8.600940929380267,-15.555715777854715,-7.6807968913762705,-10.426802660292426,-27.975238530021958,-25.0721442705538,-13.993606761032082,-21.70382162769474,-21.715795698175455,-6.0508334620232365,-7.263404065840642,-14.046931500949286,-2.623136815474867,-0.8758202440141686,-15.636221808452555,-12.824658963431919,-4.318086865153447,-16.047001290948426,-20.201491667067444,-7.730178538770823,-10.497383093951596,-15.951283380437012,-0.6479446437537923,4.103965703646579,-10.959794602480326,-11.280028359570231,-6.895983622899811,-20.560868836035223,-22.033892691189056,-3.5573876342774,-1.1377294969687486,-5.933617893184273,5.6007040363824165,5.523757956362578,-12.583999014008961,-12.714479448064523,-4.8148277025240755,-14.471667344527528,-15.655215376740337,-1.6993539293587183,-5.298475781523046,-13.666551868887517,-1.567751563236457,3.391192685759006,-7.00123598594852,-1.3652928941901128,7.457206711639019,-4.342540372491037,-7.777657597166446,4.759306597957921,0.22949737758655342,-9.282117660959518,-0.0213552069488685,-0.09330509604018489,-15.394213038556828,-12.484494223717379,-4.323223759372389,-15.095442984125102,-16.944158637654624,-4.355420868696328,-10.194349696103018,-20.011142485475215,-9.03058720562133,-5.913287729206419,-17.65251993018783,-12.503764073294,-4.424168437941759,-16.719027518071147,-18.868251275164873,-3.0387654623975004,-3.167556435425092,-7.932537125840352,5.703216937320517,8.454399325583854,-6.4875790072422514,-4.959174831106183,1.890218580717614,-9.192745153523475,-10.052195828701983,5.809774228110703,5.682035010319927,1.7077192057379573,16.13252140005993,19.33861624184761,4.4642660990133765,4.5650188570516725,8.100157842230088,-5.67532923572992,-6.384127174602707,10.596008355783397,10.016821660036607,3.8330962984109473,14.391694832547104,13.474992763978712,-2.2603520728603756,1.3445525039706476,9.706001455685836,-1.4005123968860378,-2.6067956977100035,11.978164819780392,8.888921291197809,1.4327428112941676,12.385286911771198,12.427811624050634,-2.8545414598562813,0.470173970219232,7.583534857504754,-5.012353937231254,-7.0054054533485886,7.099905522681667,4.312641894579835,-1.0049552427871853,12.46995077434847,13.960764455277722,-0.2957688982655071,3.285247529054192,9.520213044528038,-3.765030093882218,-6.522640624824285,5.261697353789666,-0.9177161610176805,-9.053735475304055,3.5149384294314254,6.472230993366766,-4.992693974202668,1.7785248058555894,11.3909272123635,0.6905671803533613,-0.4090258454959488,13.676057507229958,10.630821181782537,5.041365950930781,18.525409803562702,19.5134684148364,2.517046689056775,2.0733233388248093,5.951155374511196,-6.908294988771418,-6.837060843527786,9.778019921345566,9.053475349506009,4.943903444030468,19.268903832360543,21.75908369714074,7.613753465715876,9.961990927371012,15.353925952088009,3.666478411341183,5.413301212823272,23.801225975645096,24.60443724798595,20.196445925258736,30.030463147261127,25.028005808107586,3.918399242438425,1.9183664442775976,6.565596991055645,-3.2590728673546536,-0.2927077860890672,16.03172336687519,11.33359489956339,0.9673506494098913,8.371186816327086,5.988476939911404,-8.48169602934227,-3.0618834031716067,5.533396331018935,-4.7239662079477895,-4.0886842004106985,10.351914913158643,6.214618235008288,-0.2983372825182833,12.2879365847512,13.756776543090368,0.7753256110577889,5.155448308518291,10.232758226755891,-4.9266394381419065,-8.9620183712255,2.02167927875392,-3.39060748109671,-8.630642218200121,6.391929334669491,9.865284176343636,-2.631299764018655,0.5944291892017781,5.365385953585422,-6.603734512324593,-4.484231640566085,12.883420558287128,10.515815674543692,2.7322748913626227,11.623476622814854,9.86673041576152,-3.8405483417122586,1.8832834666927774,9.158077172982523,-3.4286051873336554,-4.2234286292900345,10.936436575241991,9.399031584174327,5.664221876027758,19.400067417137084,20.502375687699043,7.4183656448830675,12.85140777402058,19.423039712478463,5.425952801779076,2.0440342896617483,13.446232775802088,8.945047812439487,5.167205697789738,20.4887149266511,22.234036732082213,7.885427487107819,9.970354370614274,12.901969549634305,-1.8664850135725874,-3.8203589146479384,7.0368527732813435,-0.9668056758297929,-7.980702339757997,6.481018220388878,9.021698981647875,-4.5663112854369,-3.398269152837144,-2.911286925316436,-18.641702263229675,-17.136121885455953,0.7204393154663569,-1.9944327713464252,-10.215769725982705,-1.6956810919457341,-3.622575146574488,-15.515243483209158,-5.6664220481954555,6.309041117333186,-2.0982347887889885,-0.8231309318915323,12.523248831357074,7.1935516108140884,0.5389354135377515,11.132555904356215,7.829765354313318,-8.983762227132019,-5.6706983807493705,0.6784418733014486,-10.315013144788988,-9.042320918169814,4.536808165862394,-1.0466543445854395,-7.176094220770345,4.727160699650429,2.223623718616463,-14.45764564252063,-11.739513416707876,-7.422796551964838,-21.24780074810512,-22.479712367881483,-11.082944260078538,-17.725575800876896,-21.614009221074397,-3.5826813655180496,1.4845692100560886,-9.868595905084458,-6.838208339259888,-6.974551681845123,-25.753504013320835,-27.943657871292437,-12.658530950628716,-12.889121466255805,-12.369847543012636,5.00858644169793,6.477740728857798,-8.08811517498079,-6.182399156069263,-4.298244488529379,-20.33559011024521,-23.74286014394966,-13.938128601205392,-20.13690387285147,-22.60169857218161,-3.4967622415582547,3.2753332460396796,-6.310717049188412,-3.012713578261864,-2.9638275214007876,-20.667282448518343,-23.09856355193353,-10.892225276451308,-15.717725766365781,-19.01235216080343,-3.0143310847148763,0.18050677958242312,-10.477993143728119,-5.726754189575411,-4.813247560190783,-23.56137063062958,-27.159784917949274,-14.080699800713706,-15.11927230551756,-12.988310645035607,6.750804383999142,9.500870983610056,-5.2958312108429,-5.417168609822043,-6.214325177757948,-21.747413524008966,-19.049000389785228,-0.3526069093855222,-0.12463118656355565,-2.189771648348752,10.231423038705483,6.610986844484542,-9.32163217270415,-4.089330057202107,2.923227062123483,-7.608014825333437,-5.915855211868088,5.464581196494849,-3.124072198249144,-8.637896382776809,7.642163509288214,11.427749892818092,1.0980026763589823,6.920560873469573,11.116215501132466,-0.982375660532421,2.6531915471054783,17.96017382414966,12.381483964369881,6.509330658989933,19.144609442480107,18.987849687958793,6.6852968321254576,11.596731615462199,13.724131844029927,-2.7813631162132086,-5.105440454536882,5.805149808883682,0.5510368840346427,-0.8071213619752432,16.73565058114563,18.839964262326106,6.48405802310976,11.452846216300694,15.705727036999525,4.2514086622995055,8.923960842508764,25.42190700328381,22.327309480295973,21.703509148798908,40.729820295440184,45.34649449771849,36.27161124668796,43.81779449953518,48.821199739062806,38.3239699428091,47.06414856542097,70.30236464800151,72.10064501879447,69.54829559503975,79.58133023028135,73.21538449461544,56.49749067983284,60.34305086226692,61.115416487679354,40.82041771519271,33.18861338800319,37.752538980980724,25.730384472331522,18.343329865268956,30.570039182837267,28.7388233601212,14.713459778434743,17.418502878152704,15.16864606789088,-6.102543078718047,-10.72383403515263,-0.323368708736675,-6.740989176890256,-11.851725807239784,-1.8634280108482058,-8.33666715432833,-24.823385211511088,-19.218324884485934,-14.669681761414635,-29.644644852955878,-31.987094068177903,-24.046239961765128,-34.68009205812361,-40.76362448632828,-26.366480939213922,-25.77508468235635,-37.38821001632615,-31.92153199057385,-30.457206220145288,-46.72511933816372,-45.51007517371462,-28.556731469603626,-27.166336982345516,-23.273764491441398,-4.044984386392978,-2.760861648767718,-15.12377517265045,-10.1414048028734,-8.821523173263552,-25.332505420315478,-26.031917019080566,-15.07660657074281,-23.02785705868129,-28.263369137884524,-16.292910209667568,-20.824632292197588,-37.62400855766977,-35.44850041388081,-35.13964645406913,-50.48027567409956,-48.21250956115857,-34.84161693000967,-43.59701811254151,-52.454611889965705,-43.13422101857665,-46.22204528786581,-58.05537091516697,-49.78222924925306,-44.39416177677207,-57.21986432411745,-54.31090852504833,-39.553223635792165,-44.08844652888217,-45.643010227856436,-28.22967163464075,-25.33328751368083,-34.43058949042606,-27.258199623064346,-26.43123717575303,-44.735687136173134,-46.09258644945131,-33.40214299951447,-37.095150012321454,-36.33548627190259,-17.96387970533141,-15.902974485688889,-25.544518356619985,-16.812753630501792,-12.549633081693127,-27.913726214670284,-29.611772159578138,-20.866625938111262,-28.78922292541758,-28.56318023986814,-6.744747475229558,-0.21546225706026578,-7.157117884852655,0.6661060348225911,0.22235383316743684,-21.048971261107607,-27.043592703648244,-20.70026713427093,-29.811941329933127,-30.117035087977072,-9.459237298186924,-4.739528820996612,-11.830932061046948,-0.6119166014769704,6.293853304965328,-4.550118242107984,-0.10549712393017341,13.058551080732753,6.119159114974235,4.8720526610524,23.69825965222673,26.797421335206284,17.342521474182902,23.77188649241249,23.433850078806998,5.147130879876174,4.058783994278976,14.149547306803981,6.172563815315341,3.9471651689654097,19.98059490184517,19.675099796852162,8.551920016480953,15.991577387291082,19.753956355377603,8.1861074814583,13.950794935415638,28.012115937386938,20.168870798406978,16.57570451602826,33.189742568661245,36.17591781378754,28.39810519898292,35.67810759333001,34.279065452870505,14.953003850545086,15.692364080595683,30.92865624139703,27.91337216659052,26.46772310175409,38.844353339300426,33.84893059478638,20.71108232108903,29.050728874878082,33.57955233323912,19.916670149931704,20.712676634242555,30.547505179217836,23.442441187298478,24.42146833891415,43.91356948637439,44.97226454298789,31.92503987336046,34.68985546981734,34.20435251018989,21.497152244796673,28.065569601620226,42.424571504101166,32.83987148505355,24.345438857417633,34.14411956211693,32.80728742572227,26.336791711436923,39.17244162444325,43.924001525207984,27.797753243480983,25.564343197045872,31.88101803557906,20.08233370413729,15.772628361131527,30.74292614153305,29.990958758782774,19.373966060692645,26.86450879969598,28.815843947269563,14.382375404043426,16.957780612089785,27.36109667709613,16.107022970492263,9.240260698287809,21.21019239966048,19.699793990292513,11.109472165602638,21.327961466814823,24.48430024650625,9.288949112026488,10.249284701553378,19.958881655116976,9.474229653539641,2.940698595632255,13.013883594449485,8.339730119166234,-2.316880204645692,7.96834296899334,12.058617238297522,-3.028991946932801,-2.9751177027434204,5.899606045167486,-3.211163505440375,-4.801061405672796,11.574303632868743,11.220455567905038,1.8624920332300121,10.111384145732858,9.696409828329063,-8.833980607568076,-9.35796115602367,0.2750357795123146,-7.992258399991715,-9.478866323875359,5.607971969430687,4.363252334022981,-2.5439885794793042,11.628247099812798,17.468883232870585,1.723154562822451,-1.0384558245798061,3.364827517353994,-9.322361927094978,-11.729081851577803,5.440259291366208,5.751188696630287,-2.8323859395086974,7.536079070077237,10.18478527972124,-6.435816140147835,-7.205177309979831,1.010009538193641,-8.666734714557384,-11.130324917246897,2.5574875835677036,-2.571397628356333,-15.96046501358541,-7.2272951433285275,-1.8987421520924217,-12.64242925022527,-8.028362555438552,2.052204165634348,-7.842060172526088,-9.508723277261158,7.093620654326305,7.094891408015794,-0.5059159696826878,12.249599436982528,21.79721302921192,18.76029449240483,34.32618562634179,58.09432583962122,62.29081358525737,72.95639429790458,105.73212753258356,129.1483670213072,144.00536878244367,167.5348046526865,168.1856063936412,135.31002976037527,111.58948737259539,101.53551010979498,83.50662185925134,77.35464779282904,83.96882844005016,65.66389566391916,34.52726936775041,22.798091244819155,6.616216508518113,-25.596769500793112,-42.308946257949884,-52.80212639255731,-80.71676576430815,-96.94853567830971,-93.49514695226007,-107.96814104622203,-130.95605756250967,-132.89961283054694,-139.05252068575294,-160.67272486882976,-165.68730936205202,-163.6720806945031,-179.02362450890524,-182.46073789928332,-164.09300289161112,-160.44881958824686,-165.00746431239324,-152.18313679596525,-147.05346710315465,-158.20825967569655,-152.3418197214656,-139.09868240085382,-143.64939470152189,-138.0229932223902,-113.280039828942,-105.64642989997414,-107.21322216892311,-92.47153698484031,-87.76867163264328,-100.1542458404033,-94.17960737556263,-80.59060198883037,-85.2281393849525,-78.70128660761847,-51.60620322054861,-40.75125195063474,-39.59224215562289,-24.88887697875067,-23.437488151091596,-39.641485108419396,-34.843563902473505,-18.734129314485717,-19.8555141584177,-13.958102806772,6.687849281833593,9.809406862380015,7.318715436905844,23.752655362770906,29.579822124143252,14.895931530570813,14.021504735504001,19.45909258485735,9.742078086584549,13.675820736392241,37.273166846035984,42.94735553948867,38.704100202497045,49.731093483772135,51.61303452049637,39.53380409716132,47.05254731183636,60.599513023798025,52.87098196223117,50.459824480165,61.715900566604574,54.727296432352155,42.23301530479659,50.1927355595852,52.46136818380846,42.11193149571921,50.209831095533836,61.11506034337306,47.88632271488438,40.213435315494195,50.614843080639645,49.47670092111049,47.5587301815319,64.95517035721561,69.40165028399286,53.51711308547685,55.253167182055314,66.04797177537132,59.470057870119284,59.691473403174456,71.61086943633649,62.582633050481206,48.780131427405095,57.7355102727869,59.848516765114134,45.552088071590234,47.634750979942126,54.30064553462548,41.88983856287301,38.607054235872255,50.40451308090909,44.580681457832014,35.63022803189959,48.10497342014801,51.81193981054288,37.847562548386506,38.36746535715518,42.123901722876276,28.1540770255592,26.11363535493129,40.779827896029154,37.12984008265342,27.13179567827809,34.08937404587398,30.259046540969734,11.470203072446884,12.323806497971434,20.33417472951896,11.5184567074773,13.197490474392442,29.719359368576253,26.476234016745018,16.020895712058287,22.486925939709746,18.59344318225007,0.7801378553242877,4.193819852376098,14.727846495736244,6.2469430379030015,6.035338300106513,19.356055802114025,13.71494824924703,4.468465622051443,16.043275156484313,19.071062518743425,6.660353277573513,10.51089347603472,16.126063766262995,0.22964597307864754,-6.2547261649207755,5.044951904748027,1.8655387162325856,-3.7269679498611277,9.427694341794213,10.439595820745046,-7.547018253186849,-10.232013944064807,-7.90947850995385,-21.132867203899497,-19.66215731241328,0.3744240136821517,1.4256068855980213,-5.585398417803506,2.8495793231086815,-0.6188818682929669,-18.07361297932902,-14.005303212438825,-3.871069892583309,-13.72326749847954,-15.713616648129214,-5.529024950991975,-15.592216082588042,-27.69994689472115,-15.616355607243065,-10.428416479558026,-21.04443532087919,-16.373977919695726,-10.563090971951885,-25.189179665952885,-28.222658784534286,-12.701686480328327,-12.727978499432984,-16.238246966257705,-1.4277104673869738,1.050187364349727,-14.782967403748628,-13.992417169460047,-7.799819683813759,-18.200700059989327,-16.9747484043715,-1.609567824907601,-6.655114243934559,-16.453566676850567,-6.723696039835258,-6.749164363913854,-20.984345066924647,-16.869319475287483,-9.87638703335621,-22.43229912153096,-24.74407922649898,-12.255010927686616,-16.713641653339334,-22.420847557497908,-8.541475421747377,-7.37866339993931,-23.5911364101082,-22.246774959054527,-15.663605311861222,-25.085351511042838,-22.97998632928935,-8.481402946794942,-14.949755157247003,-25.198616803417977,-14.728319160525796,-12.646089192589415,-24.37451391065845,-18.918029067863124,-12.342315201522233,-26.7355217744472,-30.915411547826245,-19.25770577043427,-23.87749294850281,-29.439800831790897,-13.929841779550788,-7.609052745481726,-15.059998124078719,-5.027853130933183,4.298996472935037,-10.719793337846568,-17.538918315486576,-7.72484265108651,-11.13815996745883,-13.33166693191726,2.5191500676638405,2.314818892405134,-15.99528939944203,-15.893420081260949,-10.91805778501761,-22.126313620972056,-20.49091640509071,-5.016118312704271,-9.058041988611938,-15.81320756429449,-3.5471510413918566,-2.8854535206046084,-17.14132079628026,-14.096514869373845,-10.405083013616073,-26.97981391238788,-30.66081319751384,-15.863055582733685,-15.804913013031108,-16.77846939304909,0.0015281258259962627,2.636391821475026,-10.930674090896197,-6.052401946618923,1.7977320399947219,-9.396285974390501,-9.935669627868622,2.680360164730425,-3.565558427762726,-10.931746687699526,2.1996350717221747,4.725071748769205,-6.6190579274390355,-0.014047776716874516,7.399700458832936,-5.3775222491801085,-6.921585601935236,6.469219120601478,3.1618812334090243,-0.5563234310354885,14.25558880852798,14.761996637405272,-1.3924037079248333,0.5721303117620247,5.850779711238687,-6.246528368012755,-5.840945069120744,8.12760761983708,2.8277903008365195,-3.9621434778241285,8.558619385390358,8.56922976722493,-5.786540288067174,-0.6020224059009234,7.550135798938374,-2.8178187649973,-1.8798834500048667,11.05675731610884,3.107170008666765,-6.749907134404298,4.255541173571815,5.472017830495044,-6.01770771956722,0.8999390549482404,7.853421833260285,-5.777679486249908,-7.360010803235994,6.8387290270043835,4.443115967571351,0.9815577636510433,14.766207009666026,13.74812886001983,-3.010452943113254,-1.154789097306538,4.145237703378546,-6.331516382095921,-2.2346358992588953,16.064786497653504,14.122159240873845,8.576880483890488,20.087758681876792,17.896911829150863,1.3403051855771722,4.534188760164426,10.86164434463337,-0.7765564356728643,-1.22542940827452,8.90206498419839,-2.2825612120755503,-12.83831261144529,1.6623867288253091,9.64423042342909,5.020954630630808,14.548150690058975,18.530289354983637,-0.004127371172165439,-5.33108724241356,6.209804728675671,2.574074943748686,-0.15228189385327007,15.520183746964825,17.100845968451257,3.201312449141523,5.7641325811152635,7.968264594987683,-7.2752649823848605,-7.3052630086104156,7.642823200081524,4.652285655140252,1.704707410986401,16.833499108562048,17.166800704128836,2.8797051459790914,7.412336657895227,12.943394515306785,0.8121549683274774,2.3182556327626185,15.259258316642587,6.299588021143746,-3.9736075717045205,6.304367090327158,6.496589488504176,-4.701029723132123,2.8648118142299834,10.25926397875045,-0.78975206842403,0.658050692089895,12.690296431617037,3.146131362450408,-7.615437479999019,1.8339861779016147,2.6539912365441753,-5.564792230083841,4.133797001765091,9.803741778865234,-5.0351672839362065,-5.2369200645090626,9.587098751844314,6.669618024646516,3.5006748666309093,17.293840927158396,16.849463708093154,4.320623168638427,10.93008002481919,15.311945518853612,-1.381231886963464,-5.42815233720737,4.489949081680843,-2.1045686377968975,-6.244658095092779,9.419119755906602,13.07132814189051,4.736094368985135,14.048215915520823,20.688492740058045,6.599959166546317,5.169192369199381,17.725899986967715,13.21842510231702,9.249021106810845,21.474407717213108,17.048452226086,-1.7263042653408318,-0.7315913211331497,2.5509678915509126,-10.296598513107465,-8.946665903486695,4.955664117766703,-0.09931172989435044,-4.389946851206354,10.58828885481313,11.92399760050651,-1.5395671273357419,1.573376644438965,4.168624475863061,-9.798322269530821,-8.462721306871824,5.741288033975441,0.5245697702263037,-4.549363557446552,8.3774679070493,7.42613956470682,-6.709421339539197,-3.48820445747278,-0.7591288403197044,-12.51174082259541,-6.092460604409692,13.848827881325711,12.73973249447553,8.81330249370965,20.187828231820315,17.483132525872158,3.5717203972764158,8.472866290494627,11.816014920460535,-3.0334830163490922,-3.739006341624174,7.441615934627479,-1.3108591003848566,-9.324233573041647,2.748687925738637,4.345907453609697,-3.8090170460752,5.5335258164256,9.706096448323892,-6.8761026741943985,-9.230033709033563,2.1605480862629056,-3.6387707844053976,-8.201136924839542,3.686583160007375,1.2431084979092906,-11.182961883555807,-3.1153708342832664,3.814887370729969,-7.630453309445181,-6.237244571659979,4.07192418570755,-7.624109146760021,-19.530644062484775,-15.069244086614576,-26.75167721604263,-50.14575249370709,-53.87967325457248,-61.05961907214647,-89.46290509024207,-104.70610426344665,-104.89959854725433,-113.07449589491583,-101.19445826426576,-55.26215534648284,-20.271253293573345,-5.423863305913985,15.621140515519917,24.37546655908244,11.16031873218757,12.895486230977077,24.84264059564765,16.18751254017367,12.9235559433731,32.95753858559979,41.19282807306134,37.877686680495046,50.12013957650494,55.69385745378829,41.671565814006115,41.74635856518332,50.5095634661866,37.11866898879204,25.50126238085442,34.99465337250868,35.37029724550791,29.24162389999826,43.394890680688285,52.6748691525745,39.01505412403245,34.79622180922001,38.996965404761475,24.839802909495464,15.972138159121059,28.40144043631292,29.149589693450906,20.92806370286204,31.777032063656296,37.077040876293964,19.648835327439812,13.534759297117173,18.93262280599219,9.928529888941728,8.990552530453563,26.65266572877713,25.395469715461566,9.180991275645955,10.635698128312738,11.155352197117589,-2.672811634899122,-0.6314868976178842,10.150228564738834,0.5046370989727489,-5.564817101939542,6.970896450885376,4.799094026457142,-8.203252973603618,-3.2544489294355454,-2.771912369544517,-20.448121690782326,-23.192706773067904,-15.759069945911428,-26.108164618497685,-29.286325282882203,-10.993925314011873,-6.993441495573744,-15.23212140516275,-7.7974352098682775,-7.274740589093812,-25.377159754797404,-26.13174912883462,-14.039102847434311,-19.67560065971309,-21.023761480824923,-4.909847656997828,-5.608864652284403,-18.165953412508436,-12.479067455260935,-11.232660794161134,-28.752230467200835,-31.198501167927198,-22.490603414321285,-31.963526696240653,-36.34156000256094,-20.363488106714858,-17.401518121828786,-23.51640534303974,-10.10788587384646,-2.051731999305977,-16.057165711876635,-19.099462229203137,-13.38141357510213,-24.63934960365354,-27.637910519037426,-8.54416269012631,-3.428559029865681,-11.132318357381605,-4.1969518868338564,-3.841678741040485,-20.403995463233404,-18.845161437243934,-5.527001814888569,-11.146454717106796,-13.41655420441419,0.4551043886737318,-2.293254771647639,-14.84163443395416,-8.143265117501118,-5.4995505537720915,-19.121934473554607,-15.50831398970638,-2.239595563707463,-9.235280586901018,-11.535263849815742,4.785701648734156,4.883503150109765,-6.857886880476258,-2.3022724272317374,-3.758932671242697,-19.95759143663713,-14.102596309940907,5.372668846290173,3.7791477762063375,1.232013220701564,11.313036458442893,4.509482498484894,-8.820994379912083,0.8499867792274998,7.219407322188607,-5.728942352067118,-5.720844818306359,2.47981361112381,-7.84387427846497,-11.34699180714334,5.512151708190813,7.610912196348844,-1.3522497002820857,6.510587391757145,7.900816523897781,-8.724947690334316,-9.101968878410748,-0.13682675882746098,-10.155069327964785,-13.458443113412716,3.4732268933792323,6.51101200561717,-0.4016671070214408,7.975196409302139,8.044715157249165,-8.586571736039623,-6.052990817270524,8.179117007860354,3.4089247584160036,1.3183761267556904,14.16972321015359,11.019145170026865,-0.140159354570085,7.735753431371672,9.188312734628234,-7.714965175243066,-8.053834028866518,2.731057729655082,-3.501612186424021,-4.0495488542416815,11.449961698231713,9.751802666021511,-0.8875855880890642,7.169778772356655,7.851469085037129,-10.875082444333401,-13.496660661938119,-4.328037753957157,-9.961878922022178,-7.335189722944349,12.232572481851035,12.368440931288635,-0.1921136402294339,4.658137905465145,3.7066643919804325,-14.891183090416295,-16.41621684720571,-6.037588119846947,-10.936335034056329,-7.582512293919348,13.364363268040291,16.02809604470578,7.099572604449804,15.266181437115758,16.772776115573716,0.17320900395457084,-1.4380365999426679,5.614398146517836,-3.766678847157018,-4.7739750458871555,11.045653795996136,8.97784663262631,-2.6076450251424,4.092088355930456,5.117517427857888,-10.173057260835556,-9.691329070639712,-0.7749309824160027,-7.822772647026998,-5.526092555824133,13.81586889077549,14.58978724097912,5.748438777957459,16.101779286418388,20.46668505969234,7.010691388674443,8.55915410947496,16.918044596711052,6.444738098532418,4.982347317248968,22.751069850657217,22.827138419795446,11.790536201424064,17.177709343044008,14.744650822037222,-3.97277646432404,-3.441701206841241,8.182381339458802,2.8268695212873705,4.406408796314185,21.44669995158518,19.53980814860092,7.876519015464642,14.147826985583421,13.78763042387078,-2.435364431933939,-0.8661334805943652,9.451161587749507,1.2587929701541798,-0.16160697051412298,15.535900052709628,14.642839370051089,4.727881162027919,12.455138168327267,13.508582626440667,-2.213486652984286,-1.6921240509036766,7.0129431636136905,-2.244380742002093,-3.151770245689215,14.569071902848732,15.176712961447393,5.2202370861681056,11.8045292227957,11.421118027752431,-3.2443872726666667,1.6666317813341083,13.556830735688136,2.6711117752108917,-3.7701362718835907,7.940092074298197,6.611995750518638,0.5528148916259266,13.643662932587384,17.335228295887507,0.9499280811077631,0.21068249287598073,8.868329161125814,0.5449565423560578,-0.3401399854438083,14.571559007044764,10.56894733586703,-2.7426053063239477,3.3998680538132175,4.913108758801994,-8.186222316846168,-4.609608723446631,4.295429118744538,-7.727663965281464,-12.481469212588255,1.1867092376460562,-0.1897002454001404,-7.656879778930771,4.312362040019377,9.324237667882466,-2.0998608654433486,1.4769269250703525,8.197568021119766,-6.731397714850792,-13.322827279941048,-0.1405878477696172,-0.2742817169375349,-5.5489128068694065,6.733134729211969,8.910822554288401,-6.635703697201995,-5.366064116564594,2.8005252314602913,-7.970773501131642,-10.412688446865115,4.896520889774493,3.988589004487162,-3.2249686515022615,9.491455281356602,14.519503543222342,1.0135568354090099,2.3931811778529757,9.67389304523607,-2.853651399156413,-7.62783654670179,5.809162261631793,3.4629024312194234,-5.106464697171791,7.9160454720959335,18.087303642159263,15.993003801480073,32.534061172303005,57.5739242789434,69.6668980523381,97.44861410391911,144.40842642956278,168.63742781392025,172.29362426573906,177.06860887128215,162.5346212052201,131.5724119402731,121.80910026219776,119.9067371300697,98.36462330155442,83.2159146773837,80.70590275184708,56.09220752939184,21.058955266480936,4.138473761345298,-17.618788861316663,-50.23392903087075,-61.61450998598968,-66.26649341849803,-92.05861018426725,-110.64428739198888,-110.67005736328866,-123.44124655782257,-138.28558692282104,-132.70121574397487,-136.86753516102516,-158.898790763721,-163.99835789181768,-161.99740849291874,-175.53820899857584,-176.46510494017733,-159.41559668787158,-158.49700088303564,-161.05226374650374,-142.40610080372858,-132.0761164278631,-140.03338047556352,-133.727246871103,-123.13317126917363,-130.7397001548386,-127.38886029424015,-105.58376151445782,-99.6313901329238,-98.70783932200105,-78.29126879565912,-66.47161234160394,-72.27661858056238,-63.92214829428768,-52.64776767473177,-60.86504140836717,-58.25611759826377,-36.787842736778885,-31.099577252670723,-30.637519857013835,-11.973730528618058,-3.918353509599985,-13.271683612232618,-6.387886738003895,4.979201452743393,-1.3589582096087849,4.495914030119868,28.132123713538306,33.67546105957783,31.189385217516495,43.99685864433795,45.468061144669704,30.352437405543476,32.07522317183965,39.316040540232834,29.28969911814709,30.422248705781797,49.14267769652635,50.69029952662514,45.216946677659145,56.81526679674044,58.573519949832736,44.32234022025505,47.5696296794735,55.7323458779357,44.68063003942222,43.75444129805238,60.18522223436924,60.1640767406081,55.24454311778041,67.96009908481115,68.90791168934423,52.29504059623243,52.73494970195517,58.55046309220472,46.73271856238583,45.82208023061885,61.56187093917763,60.67470869013678,55.38283708377981,67.67729776431841,68.00002799607688,50.300509820469046,48.7798097120768,52.983169537307,40.76226931529058,39.42406530290319,53.48961332923941,49.580059911775294,41.54388939879623,53.967517332075964,57.404575752308965,43.15029570637675,42.57219202664499,43.996615609969,27.58674688382501,24.793434213002463,41.20453649439038,41.37140951065893,36.49281505059608,48.73524606696751,48.58005499379225,30.340343488177954,27.735951517104663,28.83041321096139,12.895870424140568,9.875036937968641,23.57363207050235,19.49741999987874,10.994574083745638,21.29684397677294,22.696033917638957,10.350270175448422,15.724250182886047,24.25919507027571,13.267879612079925,11.452987817309765,23.890232595469506,18.592086658193132,9.999020596687046,20.509915726774526,20.707762141041563,5.453524200769143,7.512851059839923,13.517255908034373,1.6788619298749197,0.4930910382810221,13.47395799405812,8.684077242001305,1.996540031864027,15.027221962019585,16.60540888415975,1.688217060232926,3.7192093342339834,9.711127758278398,-1.4231863805555172,-1.7789397419528261,9.255254578216901,-2.198551945562235,-17.76751692201185,-10.331436923377122,-7.387057647999979,-15.295754701283611,-6.09250259538404,1.5058905032784704,-14.79351089993946,-21.69090189793523,-10.671944935443332,-13.457446618074377,-18.084260113416317,-5.635506782971154,-6.011526024871863,-21.698647875554066,-18.986686403889856,-12.45245237878477,-23.833148267348676,-23.768692629220865,-8.924995302896283,-12.477209367325402,-20.028332293912513,-9.974699780882496,-10.800500914189499,-24.21410790776948,-18.05172945704615,-10.957564332390373,-25.51264176534682,-28.84095840338694,-15.496069532080849,-18.52176667763359,-23.928846320862878,-12.20343729622867,-13.368112304856874,-28.243659845989008,-22.555865195240393,-13.249753104245833,-25.194937462594506,-30.03240805759979,-21.66880610663062,-28.356250812488376,-33.01959127694813,-16.299161767261094,-11.989141677589675,-25.859554436564938,-23.739320873284015,-16.86966388393943,-24.703653941372103,-20.036962126673174,-4.27384636519146,-11.44276384036585,-22.946725319749,-13.931780253813416,-13.361711479093117,-25.86359188877188,-21.683344628895917,-17.236978943497697,-31.26304309443474,-31.798290565927022,-16.39783319811982,-18.634798644577987,-23.935566072632536,-12.083842989722047,-12.000038354121298,-25.116096907043378,-19.52751352550389,-11.293795787749369,-20.61015525044379,-18.209946237498066,-3.163765691123751,-8.324261854375049,-16.585338537077938,-4.667371986514747,-0.8277103561517885,-8.677222680483645,0.8141172463033133,8.378970642265944,-7.07979903336603,-11.988378154329096,-0.6362014757340777,-5.236936625321838,-10.624389640789072,3.3042250233729487,5.379761782450482,-7.922929019830625,-5.059550612919145,-2.017673447646058,-17.336389897523315,-18.48117123497864,-3.2408067336797592,-5.701420591016444,-10.76869372763508,2.977482806511704,7.3528237015086955,-0.014620658492170868,9.556051971591618,16.40665252562191,0.33252256444055206,-5.225608807526636,4.611331337794048,-1.4899114071705117,-6.982455654739302,7.73928384066802,11.01386092053478,0.45786779541159817,7.869887658523535,15.583699392030928,3.497918875599055,3.3424776466312105,16.799298019849445,11.300751131097606,4.781639401864904,17.899434326853072,19.057404914485176,5.754845112111994,9.44861096549294,12.626769062345545,-3.597116810273574,-6.955501182190202,4.006842298135849,-2.9154197802113773,-9.804291117242604,3.9346286218733493,7.700413446346647,-1.5822856340410958,4.821902096408062,8.412493440124543,-8.833665766796372,-13.235702227222525,-0.41977441050823394,-1.6182896100093793,-3.111254455766292,11.343817189604906,11.540592855457298,-2.001746118543595,2.936151888637276,8.738717815845032,-4.5607172021051055,-6.374031104020663,5.174763383586539,-0.16184368909321378,-4.516240069170047,10.442128148512339,13.437962555236467,3.332987444507252,9.919419023240419,13.802683532807414,-3.871540181000796,-10.294314012971771,-1.2246569477950606,-5.035979787505361,-5.553144818122186,11.298627728613093,12.082049170279834,-3.3789196575056275,-1.8960958314212997,2.186316119601322,-7.999170614689114,-4.312940077610553,10.269522694614448,4.354778707523121,-2.807611149561247,8.414906517823297,8.229452848683554,-3.269608172287718,3.695847141228053,9.288918664513966,-4.861913249204477,-6.790266513193185,3.66702887246064,-3.5404823654806563,-7.943141707027455,8.62251140842103,12.336989099819437,1.1306877643536346,6.024974495161391,9.540568658888771,-5.183204547680474,-5.32632045183399,9.524397346652734,7.060660664725244,3.4378971483513374,15.531253289171381,13.367761965176403,-0.5544179309057728,6.637502864499856,16.199929179660828,6.368642631151191,4.7194932420701114,12.134890929282946,2.704630088042247,-1.5729791838582114,15.467714915029372,18.287132978593746,4.963650241496916,7.532673119564304,10.233134679898171,-3.621259683790724,-4.210736824733884,6.655273307320783,-1.2646463959102503,-7.618877878443839,5.595931594313999,5.915680832159023,-6.455411665584403,-0.7767668057200963,3.927980388956236,-9.470647090386546,-10.287549406233104,-0.4851303575367103,-9.572475662452927,-16.577812715780187,-3.170596691492272,-0.5867949000438664,-9.324745908156617,-1.2244052651888087,3.253227398537518,-12.594032877633826,-14.984330671871923,-2.525991553486934,-5.539603810340312,-6.6101125334959265,9.692047663533586,11.20079626636486,-1.1795733150994723,2.503682728434942,2.7826242456155774,-15.99461352616526,-19.861901861174672,-7.946215435960457,-9.777032448140435,-7.787051643139207,10.996239886684975,12.90435106712182,0.26757091334836947,4.766613941138008,7.878342195341337,-6.199526929636095,-6.3233448351964565,4.582644944504208,-3.3150123932885274,-8.877576598264712,4.301854783480018,3.395410735137697,-10.567276558665494,-7.556756238568455,-6.179656747919356,-20.760069573040305,-18.479088693157024,-2.3801899387267405,-5.188892927669173,-8.384908990219856,4.886176745011278,4.258820116951055,-6.473089292756077,3.1937179483004883,11.030640341895413,-1.6481787463668933,-3.0188337025448693,7.082940600741665,1.433603759956815,1.1069265095955094,19.516927933613555,20.75865199261876,6.254066567469932,8.939802842992302,12.179906327827323,1.6199037159620593,6.850580799808764,20.393641596375904,10.974386030663988,2.690380534668709,14.062771227003541,13.392908274446242,2.3936167902607433,8.399900215931618,10.13562026299024,-5.2787477270720355,-4.153956699220672,9.173328243624402,2.9770151857961547,-2.2832503365047794,10.432333330653801,10.620219189024345,1.07463366071382,10.486914551312179,16.943296606986507,3.812526776200012,3.3588446414212907,13.046334218718862,2.4685040070378115,-6.327996696038904,5.15640165919785,5.746761558543237,-3.254183423660204,4.939210099929218,7.2319019138036165,-11.184155788464778,-15.238365671975611,-5.062727925003546,-8.897164559021991,-6.890821245428111,13.298820474721131,17.40178093036604,7.033863164624233,10.088669065472814,7.0253802466385356,-13.129007424368062,-15.604298170737529,-3.13410381821857,-5.835979235345919,-4.6829960038131615,13.023106987945868,13.754745759089808,0.8677961092666573,4.989675527887871,6.113906832335681,-10.140940703686102,-11.351707297289533,-1.9436357466839853,-11.451317731658818,-16.29149452887603,-0.6197104469547057,1.1506438467797717,-10.072070601951804,-5.609325930158594,-4.362051521293013,-17.795337764535727,-13.827750473987239,-0.7147410254918061,-11.182419964340278,-21.110207386569993,-10.082550190966247,-7.478655396400172,-11.834849009512697,-0.5855101753789116,-0.06857017277063915,-21.399637793649056,-24.77234651321986,-10.651787314584936,-9.766873209276556,-5.288493948377022,11.809250279686538,7.933813027334173,-8.998410039448828,-5.833587537358481,-3.6064550966852806,-17.881814296445157,-17.540867187652523,-7.475539339432849,-15.479693485185166,-17.193626458100027,1.7789345276623436,6.5957681345985275,-0.927758166124983,6.578515880363076,7.165300138022511,-11.32210583061938,-13.961554194665197,-3.0328712103286124,-6.153921376087653,-2.8062046834222736,16.848411062760785,17.59303110233693,4.911191657295264,10.218015111045041,13.3088854127083,0.6791962327168353,2.497367487956709,10.933967886322565,-2.619490174150757,-12.792501261353472,-2.85356278107865,-3.603682966531437,-10.55047394122845,1.8983549423571686,7.420340823250681,-8.521918677394453,-11.478638643155907,-4.983241729614143,-16.357031840590995,-22.397028552199032,-11.392245510065026,-16.92479724646978,-32.84741536040802,-31.090093343093315,-34.63384913366591,-52.399690061542344,-45.40378660643083,-17.935576053628882,-4.05763627898482,10.646473085965134,32.153923465051534,25.40684131110757,-0.4884823357903407,-10.834582036248852,-24.012792451510762,-49.56710973526678,-50.04949238126914,-27.446862067135395,-11.135091052086185,14.848929474743965,54.07478414956242,68.6081604186167,64.05553489325169,71.15913106828799,70.89003813897362,53.85191725684042,53.40155101348564,63.91364997450061,59.79446115970987,65.03930963517641,87.2795488449338,88.73769361731078,75.27228841774918,76.39678445583259,70.88741607814964,49.342851709928304,44.59583487905418,47.65430047137117,31.059912308856138,21.290094728213866,30.496221225375237,25.241012701332565,13.547328980782805,23.07888745802811,28.19614976570396,15.777588977283909,17.179243035017734,23.438232532969593,7.0757979885302715,-4.977324325220822,1.3646889377374132,-6.555022890206894,-21.731328654424395,-16.082184099844415,-13.61991286074595,-26.178929933132693,-20.637897280838857,-5.584767162252723,-12.509086088884942,-19.027492531119307,-10.718605564230927,-16.948660569730485,-29.15912571012038,-20.934157263996084,-19.321490746508125,-37.33607952986413,-39.82297926113017,-30.5406210348106,-35.61847264262715,-32.90855694713342,-15.015112146915376,-16.70339610334153,-28.911472038198205,-22.075740366990217,-19.586594570969858,-33.04731089654852,-31.530675375387546,-24.306900388486362,-36.78421655387161,-40.94498162436224,-24.35336133468037,-20.975149589027243,-25.42147216893224,-13.13943165950267,-10.089522374142268,-26.89753757296448,-28.804085406535645,-21.682360284027737,-32.01899007998993,-35.14689739198572,-20.071870989127156,-20.255729108650524,-28.111578209616052,-16.604082475603526,-11.478705503300793,-24.96314340113436,-24.41041580658231,-16.657646848440944,-26.487068113889514,-28.16937951840156,-11.988630249732669,-11.290779222410725,-17.684977474317883,-4.960745849324263,0.9621663993180558,-11.435359746187554,-10.101298823411412,-2.94909447436482,-14.255259836894801,-16.658478936423947,-0.13753223359839772,0.3252424136773038,-8.183845460723274,0.8396001386579677,2.753673653119083,-12.15504926034262,-10.638994353187725,-2.1569726539979683,-14.679414635230998,-22.004609009931833,-10.378261935465975,-10.586383683896013,-15.140337958297806,0.2965578701220384,7.912802141953025,-5.095024190336239,-5.552125790048493,0.45079146883450827,-11.489057157407643,-14.555110675731187,2.0940728784719873,4.918551209950868,1.2670307244049126,15.236005305665817,19.628046193394823,5.110641958366766,5.651985460806095,12.21510483293608,-0.23061987747848356,-4.161339747817108,10.258114430421761,9.33310630622813,1.288149063429124,10.66188223353682,10.949192295387014,-6.398741442864135,-6.221625024731429,3.1551823134119665,-5.2296046589898655,-5.9860388822897885,10.556069944572926,10.63096801975613,2.7579712145315374,12.539227558521203,14.073086512720606,-1.0043617193751802,1.3481867283347575,11.139641533201438,2.0257253335051093,0.8979271895870294,17.990331500183082,20.267278278986772,15.323244809675426,25.748982879179884,25.08437827539911,7.007437866864093,6.769890683268374,14.396836280797842,2.5842621505221066,-3.472267038923709,6.424183371205384,2.371041692266527,-3.979004032949148,11.060696809442453,17.86358417502832,5.408621726532797,6.1198160161774044,11.020479394860267,-2.3626067500067567,-4.266683924533162,14.542314285136861,18.505489495765946,14.614825098897814,25.965726441407472,25.985747125884103,8.3137245927364,8.332386756397856,16.246898025231065,5.427369116264959,1.205985310383936,12.12459329498616,6.220507435169404,-4.420124265901385,6.173234331045074,10.143530974958175,-2.2303139792719673,1.5541521619882337,10.924362787341504,1.2827502566030455,-0.3589274640488229,13.822199665152098,11.024984467213844,2.6844761153077017,13.862531265829029,16.651291017998844,1.4411851864853436,1.037248218181083,6.455297876069865,-4.888381083703384,-5.144256272376849,11.968050513216909,10.873117780030494,1.1799415843159093,7.958476917433311,6.708286256424834,-7.276454929557887,-0.9586861730343381,11.928210641910326,3.785727894901016,-0.06488012312374397,9.024003771452223,2.002751835222914,-6.589556003544573,7.552771032469208,13.647814969748772,0.10333945696082569,-0.5685122028782694,4.026798719189607,-6.582184482098341,-3.9094427394032194,16.4492073848683,16.337182331943755,5.2462632889237,10.469700453556742,8.06601859826954,-8.442240261178293,-6.405167129213835,2.3152370568515783,-7.449501894886231,-8.442679466108853,6.705913571669925,3.8866548740629234,-5.653206155400256,4.73425259368399,9.555525046336726,0.07843145586014,6.146269753581235,14.483082249718292,0.9852706232470263,-5.031641433234789,6.442750055418078,4.700664138894966,0.8144844972775023,15.344531928439968,18.113445310002348,2.264001008097038,1.5448995920766149,6.241326315404644,-4.733115248341138,-4.0870664447398966,13.316840386111746,16.19201499364498,18.990541831120357,45.85082147296707,65.40498034023881,65.2581088854815,78.99483359006032,101.50447922629105,113.12253525148967,139.49354799358025,177.48530342398823,181.72882469859832,161.85634802532655,151.3413808124585,133.52592503902426,105.33876398944486,96.02031094270842,89.96363227764691,64.1592480119814,48.719180181864125,50.70936341133898,35.258718393169616,10.922947959703308,-0.09185954166142135,-21.650975591015442,-54.972622307709095,-66.9028932183716,-72.23918542586043,-95.91535691596546,-110.59546901720881,-109.11821828789905,-121.62441800628741,-135.32329222593387,-130.00158488256415,-136.52292305135842,-160.88448079184454,-167.4145377160914,-165.46186824902566,-177.502826656755,-176.28335200579897,-157.24604310029693,-154.79385460775117,-156.72887871999,-139.90502061204666,-133.1754625964332,-142.06564467617525,-132.29983718117467,-116.09133995095527,-117.71787385872145,-110.9282380074147,-91.54509824735321,-91.97035975171136,-97.60928847160491,-84.33553563700879,-79.55701321423696,-87.75129183871437,-75.97140236959139,-58.2869969127527,-59.54663904015828,-53.165323671837676,-34.19938546803283,-34.69701308211466,-40.11630415900458,-26.058630792389334,-20.477088844348593,-29.252399949472736,-19.73243468365394,-4.839222180354577,-8.269602663530156,-3.190239949508376,15.253759579562876,14.883542706019792,9.582547075491801,23.408681916729655,29.3903383767315,21.707517248113515,30.383962355897697,40.832158439615206,31.60628336578339,32.748189937456765,50.72479885744993,53.632527065961376,53.078720309056024,68.47033953892749,69.71883341235278,52.37441257675428,51.17011216686371,55.525534336899725,45.02284480323138,47.94738534823973,66.54823122971828,65.37933012051246,57.31055893818406,66.21791969620976,65.10092192117926,49.6337801977749,51.93801578177997,57.28728958714537,43.07821874063417,39.53455220918768,52.84485159091521,50.57819461538291,45.92455844420486,59.53461468573387,60.36182049532466,43.15775282160561,42.05482809633769,45.3920725909379,32.85863273054909,33.70206593260442,50.50375558116563,48.422914299048,41.22401584241915,51.83018167858773,51.37264640058766,35.10014611356798,35.90686992332496,40.92416909869543,29.14491494636821,29.192091373133906,43.5194596213109,38.033422144912585,27.911399602337358,37.99651991738302,40.918048927656535,30.494876782774504,35.41297610454052,40.15162635359288,24.706664723789977,20.22579573565747,31.972701743512758,27.970220278997182,21.958628801203794,34.587281493903774,36.45155457114511,23.110200210864313,25.260791459296133,27.697550708898625,11.170181425714123,7.603041561415597,20.981393819193382,17.929499501748268,11.520468275629458,21.13389977482316,18.212187049533107,2.9416172143565804,9.338897090119834,20.096394636747792,10.263515443793663,6.890942123014841,14.126090408708992,4.34880919058471,-3.329311865895588,11.039235649123937,14.488355358001726,1.9474765894950181,4.807647749314121,8.425549916087112,-5.592095515527667,-6.227694065704493,8.333137136544106,5.196980600189803,-0.5243934041449845,9.536604682548603,4.283034942945259,-15.442225896042366,-12.747969649321945,-2.443485837065973,-7.2851942720116725,-1.568493055645821,12.001521353312977,0.2475078197670868,-16.372117956925766,-12.116390618074739,-14.500183460670051,-26.70365495150581,-19.70084261097525,-12.170055625568084,-24.565398423321678,-25.29250255985496,-10.834583393369263,-12.987698794056753,-17.601929192873346,-6.929612139352557,-10.720584040398947,-29.095035303431917,-27.721688867646126,-20.681744462944504,-28.90298133231281,-25.10935535491312,-9.639349992250521,-16.056185383235775,-26.555642168140913,-16.555147237993545,-14.451104027758724,-24.89252835386307,-19.546137325800515,-16.340329180327377,-33.413814761961255,-36.65100393666778,-21.908404917751675,-22.170712860371662,-24.09349449520234,-9.357605712470754,-6.853820369752688,-18.067172524709036,-13.114254457410691,-8.485045357579143,-21.81985229878551,-21.24738933900956,-4.759853795054835,-6.091697281980466,-11.686336325421973,-2.236488103634568,-5.512284733525837,-20.4864891938027,-15.096450981510113,-7.883807869248763,-19.78848176947741,-20.206437637517183,-7.209036795636802,-12.29546130537139,-18.4114881030265,-5.891798251894655,-5.136752576082895,-17.360441379541157,-11.219703246103187,-5.081609566960934,-19.697381613787254,-24.088056709505338,-14.476726705518349,-19.338679160603892,-20.853128513037163,-2.705083971471619,0.2864769084938448,-15.508038554504399,-16.85834291981445,-15.232802084060225,-25.486469230188614,-18.46556989944844,1.9216174806982327,0.7757548424844725,-5.145007259585034,4.490130767844345,1.465263990012224,-13.845966898848895,-10.638261410128429,-6.073251586742832,-18.651728930287998,-18.775678248301553,-6.200268655331469,-11.21285183603707,-15.454890215559253,-0.06253150092599125,3.6622063799851956,-6.498961147960886,-1.030738348281825,2.2446406158460417,-14.072377047588631,-18.075780345098057,-8.19094796982452,-13.664080626806538,-15.95295086211098,1.615542238987545,6.072164666322049,-4.279724939552466,0.6278900740713453,3.14271655081349,-14.020398624887603,-18.64565642991888,-8.121379334043029,-11.478575143311824,-10.969295799783616,9.665632708739754,16.19577659061341,5.535531588938774,9.071172326810727,11.64552879261461,-2.975256258857505,-3.5912331261364603,9.27845904762012,3.890916818510672,-2.0691015779063155,10.106212259816413,11.089507873827479,1.0364131380628154,8.405595932219164,13.513010953740135,-1.1412965740816583,-4.440776795452459,3.7358657717740877,-5.909906477365143,-13.84358612539721,-1.409293337802831,1.8063166869029088,-4.16963007438834,7.506281574067933,14.36213599326036,-1.8538440578924922,-7.159169829866902,2.6226774340635925,-0.26630891151216396,0.801782396696282,18.970568989161215,20.731866519399112,6.707621639119326,8.732022486741517,9.856497537676315,-6.441795144126876,-8.91623527319992,2.054709738951896,-3.2566737685195735,-6.216742699234648,8.530620534603493,8.330575183263548,-4.938166716347441,0.8014710739078748,6.867651647926165,-4.46507628739619,-3.1678491035218697,8.286270824036762,0.4595949814935878,-5.2139770407946635,8.553713973543664,9.488022736989668,-1.8047690784542354,4.5076375730717935,9.740147751268385,-2.1391931463876297,-0.7818869027116446,10.611276243911583,1.5894165059232908,-6.55939469975055,5.4169212000166675,6.952576420354748,-1.4947487600271598,8.281633927492555,13.768472559347991,-4.132840751385276,-11.969247837155105,-5.984484049557799,-12.839919332575827,-12.56523945464028,8.900057210253522,14.05312717388016,0.31022880622434723,1.12751431430928,3.6071922925286004,-6.479118098456331,-0.04091457402074106,18.17967243607741,16.052138136624283,12.332905758028009,24.53263959014401,23.054870900525202,9.376480113413788,12.160507479743867,13.324048914999047,-1.3768819135909585,-1.6942672754147519,9.0122459239411,1.6671468292030829,-3.099780396022169,11.11540636516373,13.419967698766865,5.455884756525435,14.63343691879476,18.987562351636264,2.9502085232895245,0.5195617187884705,11.80230419965914,7.6417196016399025,6.609008118921549,21.203760363893867,17.206791574269545,-1.0270677637588772,0.9457141129053945,5.366167585961976,-4.5642967322510595,0.06826737287623486,14.001038467398446,7.04466036631471,1.3629349333736709,14.245076353993003,14.17461325065777,2.9543191319416873,8.915982804888372,10.906446698553712,-6.826457084773708,-11.822973642071528,-4.029432957205904,-9.638283459626546,-7.90613728550985,13.267986025520978,17.805752671090318,5.7174813567892855,7.192097341646583,5.556881947122365,-11.018921154413377,-10.116205859075766,3.27614465023526,-2.338320548407559,-5.971361623488186,9.047274507171926,11.275032912792778,3.118647198133618,12.212628148950813,15.392483448063654,-2.720658730967499,-7.499229371943027,0.5691778354917174,-6.563888809585876,-7.8800641436227465,10.164823345209838,13.392171752681666,3.3622968570273284,8.375114513653038,7.760294877316603,-11.859821707900053,-16.688408601250412,-8.356122904649279,-14.970311344941091,-16.292790026132117,0.5978871054302228,2.5266829566693985,-7.6487819986505805,-0.7596242762164254,2.8962874609488583,-10.86309852451531,-10.029033742208863,1.1832166071708121,-6.957009279090268,-12.74498291299737,-0.888629585923554,-2.494017888244369,-12.471616346053914,-1.7634849863723767,6.9645522434497655,-3.2673213012954943,-3.4379319426938006,2.3234671584911757,-11.677151154535483,-20.35515950390026,-7.834767801488903,-7.362331803384415,-17.190340891196264,-9.141059331054667,-3.4667199578716117,-13.756796685698882,-10.127301714525137,0.6886285847805222,-8.883395509444325,-13.192708924674706,4.375631953645165,10.481632248039116,4.819597189449128,12.117736879309277,11.533578421092779,-6.432247050109531,-6.776503808231533,4.776148154063838,-2.93950564195577,-8.380336499045345,3.2752263780439668,1.0134837584902878,-9.929020037546946,-2.3007701811949928,0.1336065322623324,-15.64572337021188,-15.42370586138033,-3.518038028344919,-8.944595472797612,-9.824122022486765,6.081602073549633,5.447706087496086,-5.485583532496319,3.0089023359464493,8.029292991234232,-4.6579604230748615,-3.349028448287434,6.608520028023108,-1.8918602446057715,-5.057606400573501,10.09643764636502,10.053633595741362,-0.5986109012737915,7.371440569171497,12.995952957183244,2.7978465954609906,6.664228530269314,16.830402307070095,4.725326136564847,-4.792410534397319,4.872390324102639,3.8703016278854854,-3.1703580055604625,8.069887008434502,12.224297874602351,-3.4944459088631623,-5.588356052786778,2.139848384308253,-6.999805596911397,-10.959989621422762,1.619996243458103,-1.7778632328750983,-14.62710224620308,-8.172819119564995,-4.8388839170449645,-17.080830266762124,-12.881690188459952,0.8831731002695395,-4.103566570189176,-4.623447718081009,11.406780919911226,10.505025275112203,-2.006843456241561,2.7683315333352487,4.239361526475411,-8.63510033385659,-4.122875769324615,9.248368978311465,0.7001387518928359,-6.666171032735878,3.1509076814270607,0.951790502808195,-6.7674803649265725,5.802868063568643,12.642116256872837,-0.31177459285716935,-0.8187324832298204,5.927219529333465,-5.113861326395367,-8.473702615653533,8.030937998778391,11.105706523672639,4.896166947688293,13.557857756851213,13.214877942217358,-5.057519510171133,-5.982299768676492,4.601947901755665,-1.7323931296323813,-3.041877187095425,11.865289789368822,10.798953565558255,0.7803120956042529,9.583498173576874,13.518829183741005,0.2771824987421594,2.6375220048602506,13.621283375276821,4.253817240547242,-1.8880411021259995,8.707053884901816,5.167288893171477,-4.792911789059052,4.831067810830888,7.407372401059384,-9.772833266608242,-12.738483381504363,-5.3570778481588945,-11.877575371223013,-9.06132289093854,10.193253909790423,9.551016558313844,-4.16894940993455,-0.9128885756435472,-0.2830594698384783,-11.459679577195224,-4.142735933056473,10.74068053388624,4.618700698848764,1.8764461434727613,14.240848235603643,9.775520092546717,-2.84000340908504,4.771776905901362,8.439114117111643,-4.454797055823174,-2.6415046677771015,5.779536409243809,-5.565714011152438,-10.32187511309515,3.2327483430754445,1.0761378766206362,-9.494846343387486,-1.1702845825529726,1.0846398439696943,-14.012329855842722,-13.246162857478296,-3.1468604796699693,-8.406638136512468,-4.117654120934633,16.740160213239037,17.388506499738458,5.365312945486089,10.081658950406402,10.214950958392787,-3.8122895722823342,-0.8976559315763124,8.8595235700088,-2.0003886706466476,-7.678379213395521,4.270060827891836,1.9726510761530744,-7.295447187128302,2.109053254590001,5.689298760537084,-7.773254213882562,-7.365165746401681,-0.789607086933847,-12.773510953668866,-17.467050507684135,-3.2931536900544556,-2.2755353414578163,-7.516006350881262,5.502416991728789,11.307773032480426,-0.9095648074909395,0.028438757663934222,5.338838812648502,-9.348319004579377,-15.728791477961506,-0.8770304117342524,1.8414542323424627,-3.2673967758526437,6.712498485919783,6.801333415797531,-10.89182918473372,-11.35049891503227,-2.299113971005258,-10.83219000919615,-12.497490869232097,3.452083769303391,4.2444586496732075,-3.4304111223338603,5.629679751129512,7.1130706003157815,-7.812933893450752,-5.33271581375354,5.459986813496458,-3.597681208637777,-6.897925848813227,8.117923852049108,9.335467431349537,3.7807736864446,14.935554151285547,15.298265781132283,-4.049606103820866,-6.700378219608213,1.0397440620082343,-6.859514351384039,-6.741168861327939,9.275065801324041,8.858976625151163,2.0624097661784995,13.149551407696316,14.513375020836015,-2.7272303097032573,-3.7429582435385806,4.428384721149369,-2.967638276486934,-3.225842768736487,8.696144716716983,0.9415593313043988,-12.010934232168303,-1.3372618749583438,5.9540322323652575,-3.679496381033317,-1.3096027163664643,3.7581198355917804,-10.587410430762947,-15.80280783756823,-2.8099927951808894,-4.866965247888041,-12.153820979970043,0.4591226739668741,6.18418321196577,-5.328431990127587,-3.3793258114897973,2.2023895674468648,-11.13594863064892,-15.119644122588465,-0.16408567664328366,2.1619542280029376,1.0365115050631484,17.791451580629676,22.90940814673931,6.426328324550388,1.3321873664442823,1.3541739340222783,-13.006014155166238,-13.905635386551722,4.272687393272588,5.272002733625779,-3.253245624883621,3.730952498441618,2.8258339136915906,-12.275301556363045,-9.863951352633766,-1.6337991441917787,-12.38336030031985,-14.37519847748553,2.64962686355606,6.389468815923234,4.313789980102303,17.73327214823943,19.005035861365187,0.7287259627698504,-2.5848416108053387,1.4523746670671918,-9.866874270384306,-10.787410582444911,5.068429009694548,4.186871220770881,-3.8993309662744102,5.638164426200761,8.034644731128953,-4.723739006275303,-1.3017854999646739,7.942821489049056,-1.3593966218167761,-3.557391017620712,9.186000579230704,5.29945336895709,-4.5348020073166175,3.785850622256346,4.230114822575146,-11.486542083648455,-12.132151255131578,-6.791450481190312,-16.47852694596213,-14.227787550972684,5.403007687891536,8.092915477653598,3.0914934075891263,13.006880916526182,11.553414595112152,-5.8009783021751495,-4.250370780592347,5.324338715655492,-1.8112982790572039,-0.6688725735834309,13.57924218919405,8.7636563809057,-1.302660966118245,8.641633355500137,10.648465160247438,-3.2633905187394516,0.2526622393637945,10.00663560935618,0.5402544329413601,-2.5298976032888754,7.615667436785124,0.6020186541543406,-9.214291139724747,2.6187609536167322,7.315694136995877,-4.937857130395636,-2.9473317651814352,3.8365212608742123,-6.644597439860279,-7.744611359207039,7.189365413589876,5.488191216830105,-2.661406647042148,5.640342658137056,4.039858498709295,-12.803207113669215,-11.325606342234346,-2.709151544202527,-10.919533835275093,-10.543928738913426,3.2357643760145027,-0.8686902940139847,-8.576880529325475,4.087594425224706,9.142534775774092,-1.4203521230053768,2.0354350891759974,6.82561739650893,-8.030052308576355,-12.65210598899098,0.6274079706548195,-0.3116326977535713,-4.634260219407304,9.437688447524138,13.38055234576029,-0.2418155660942185,1.0135933934086157,6.911825791926805,-4.1751055365751535,-4.857952734507762,9.394508859085024,4.563953253869185,-6.539801836377,1.9543366325210387,4.328488199733271,-6.117329234938953,0.4526133855379406,8.56747241494724,-5.846336271148112,-12.591771470010487,-2.303306356828511,-5.455095364255283,-9.77703646143479,5.034578888865787,8.338043609206837,-5.6194839285739056,-2.0004118613831894,9.775993399152664,9.429166279792616,24.317178850099523,56.40188193419528,71.8217498889218,85.24425238734001,119.47395898487538,144.7475921927556,152.22351578015642,166.85432194142584,170.72589797222682,144.86288028159836,125.03590533844161,123.14347845351696,109.85367964448177,95.47760474181885,96.33187500619471,79.86687499435128,41.63464801444497,19.264854845656323,4.931275293600425,-22.140683458373992,-36.343629205959765,-36.613178821300664,-55.83338330811711,-78.20361203311836,-79.72251259555485,-89.5259969273682,-115.57874214165288,-126.9570403403944,-134.08266285820656,-155.9907162871507,-164.5051366001519,-156.24425558473672,-163.47052957387695,-171.22834591898408,-155.91078308403843,-146.9263603197342,-153.4527620472248,-147.0252559648645,-140.2508585796333,-151.26474492695053,-148.21895253049462,-125.26199264674416,-116.71949986032007,-113.14550121334901,-95.0357911182969,-90.65711048079189,-103.3828188551075,-98.63840729672961,-87.33071090876777,-91.01349145028541,-82.59950794602231,-58.56862094796186,-52.41070819512525,-51.84181865243597,-34.16065556108069,-26.03288812456682,-32.477662247970876,-23.568507966627152,-14.20642645388658,-25.222197601474736,-25.183638103749534,-6.853325784239445,-2.2271523441937275,0.07960999386680725,19.496761841543652,26.833877499706368,17.860169442267466,24.315787665165395,31.88640499545116,19.452284298422846,17.81606434386024,34.484280670034096,38.84711813436725,42.415675380942275,62.46795202415275,67.33877395853611,52.28136953705018,50.989519482985145,52.75875735159672,39.37791493948452,40.12048127288663,57.43186374851449,58.526239205478674,57.03452490733651,72.47077802839866,74.9122659800816,60.686699321215144,61.861272143264316,65.28504384069356,52.05981160507183,52.28101149931987,69.16762552717577,68.87582656909534,63.93280795958027,75.29408974581696,74.89329564015932,59.6128504203393,61.6954829351479,66.86789239736761,53.716165963552896,50.72763678830542,61.54651553836219,54.98664936746799,46.376607440815604,57.12403098684533,58.88527760238131,47.99348469991558,53.86875993791576,59.92150831232425,46.577335418059775,45.00444702795613,63.6905310761158,71.07501290825444,55.71023918988381,26.63719689637322,-5.539343469196598,-29.546093253215343,-30.30417404155073,-1.2779815077679366,23.425649425637612,11.504254291652742,-4.618947415788117,3.8952502874417307,8.08329216505836,1.038520368648153,7.16638623417777,9.566322108339744,-4.4562234724833365,0.28030846588673697,21.49401203965855,19.66465563051065,10.409809877074927,19.655985523663524,20.58006519185794,8.257116948324597,11.795797081737476,16.769547858171098,4.839540689785933,4.796515581116718,17.85114860982769,12.662058583588156,5.359293368132777,16.640739167315942,18.60702697080308,8.900520848513807,15.913874632046445,21.72133612410067,7.0729510495143355,2.9540106033014535,13.45086123860619,8.802078596485835,3.980553042942104,17.408094448554383,19.996564822630845,9.218949688509065,14.102720276580548,17.760981338045735,2.140188549169401,-0.6375927289951622,12.515599006437386,9.570903322432692,5.5205489357020605,19.442906864590032,21.844510434415533,10.862933691629175,15.940938461863572,18.747592208440267,0.38804865923432885,-6.499136333097795,4.240041106559278,7.430248442006677,20.200389329579984,53.48979017493429,67.89211955526417,56.487302303998106,50.967245134930224,43.39919027267974,23.68008629703953,21.86097642366435,33.57176316447965,24.664233846239515,13.803765331631443,24.14358217874682,26.812799588565817,16.27682747476969,18.97434342123183,18.422883842623268,-0.9530417123666117,-6.357044683470083,3.9364490558929344,-2.427951201808879,-10.45208881089362,-1.5297464235378104,-3.9728806803388625,-18.403927277920534,-15.92230643597862,-13.578865543688686,-28.39088261517679,-30.842675726809553,-20.532651097895688,-26.438714570482865,-30.642388793595373,-15.031750889084426,-10.164962671439278,-18.819626400500646,-13.105060500429975,-11.186863178483648,-31.12789375198763,-41.77470548740645,-39.90678938876451,-52.68410880386874,-60.575094252739035,-45.61190790067468,-40.35545221927254,-48.10217534063237,-40.24971356421294,-34.52834411435208,-48.121535638790796,-49.259853226551726,-36.11255279673495,-38.79692388057403,-40.294618012342795,-24.063595174211162,-22.699675323724904,-36.57639527647701,-32.72023171488819,-27.058802937555143,-38.3478123986687,-38.17051662912789,-27.17329742151574,-34.81598218044496,-42.322273229785395,-31.9401024787731,-34.7135313287739,-51.45453669475276,-51.590325574169654,-50.032575770865876,-61.60280753939017,-56.988915401657295,-39.64688708970656,-42.24213026635298,-47.18577049536629,-34.44362104753097,-31.162294980974494,-36.93718705802725,-24.960452746263073,-16.897711171743204,-30.749168942084797,-33.202342212999156,-21.521875954001196,-25.095669602192622,-27.064232465943654,-11.805569550552686,-10.134684955150423,-20.510871235173013,-12.965500940983933,-7.3496028210655915,-21.906513735731142,-26.334370019137936,-19.982231698595655,-29.12771548856943,-32.99879273224694,-15.866361781803068,-10.954202126548607,-20.214979739545054,-15.236388396785006,-12.921906859853834,-27.387079744162346,-26.461458715098892,-11.47770198696696,-14.245533207749583,-17.312447149211057,-3.144155310364585,-1.8343790144713727,-12.513847736138821,-4.719713414324462,3.329647601605078,-6.277173138083401,-4.048616729458658,8.145942166224287,-0.256035871051151,-8.68266661484611,4.307567716361004,10.585792160702061,8.361251066036939,20.787460370393273,23.80546007127503,1.8456674965817284,-7.595903727058607,0.35221531624972346,-3.286190550124636,-3.9160334983363985,9.670399070483636,5.545142558486902,-11.671738909673687,-9.188076679607473,-4.928857964037454,-15.814603967631431,-12.742254647971276,1.3370886132671824,-3.180794932201213,-6.250700464594902,9.226410183759972,12.51822632334422,4.437730604140304,12.793922123447084,17.27780263169753,3.3996738966631312,4.589885619114881,18.455211777050497,12.918875833669642,6.659519540743837,17.418045057807944,16.64005322481961,7.369671688889314,17.269179522240137,22.988778272792093,6.275458746526362,0.36730458512015074,8.016923599373976,2.381976027062178,1.694011630040034,18.432866031751274,19.045846567924798,5.5992000924212295,9.222818911545401,12.258864359531945,-0.7275127172517042,-0.2711659251299987,10.275253603473494,2.7742932001762437,-1.3515984939452983,13.189236213622195,13.94443896079876,2.4192850187784836,7.869213235459536,12.122865845865402,0.9166856890068633,3.941893226209599,16.325977404013628,8.171288598695337,1.4536563644503366,14.395519565208923,16.395632396886032,8.369624285367117,16.484471089170473,18.457236842774464,0.9319642988783086,-0.6062254327522951,12.65275530437627,10.338656394027469,10.015762241771846,23.61529314104117,19.276498277228804,3.623793521516698,9.625847682057909,17.135382578629457,8.347542070282671,11.351775259925043,21.322142647797964,10.967904475517713,4.554581192437977,18.84575661009943,21.226524579954628,12.273096642848337,19.29749260149172,21.939509694501965,6.005299340384739,3.999096494288608,13.656533436989701,5.216498761674531,-1.7122567859789162,8.49400175371105,5.8664088863451855,-4.764698668654082,6.349498742620938,16.925925185127152,8.746064760895653,10.401054511963602,18.46917929982485,7.193238278825675,0.3539612648743915,13.114191236761041,13.37342966900258,4.260606481308258,13.78094920514619,20.160453517569366,8.34497445240537,9.018340859410443,17.965816004615945,7.705816240736195,1.528257294178584,15.136711523459715,16.564988043838728,8.201086717084749,16.848109659640752,19.74745006981243,3.354549561439339,2.5969993672441003,15.293107084662253,11.528780476623457,10.320533835149298,23.43825156785831,18.351388418630673,2.372445092454649,8.445467517916068,15.576078993308167,7.109870491001828,12.337222307640207,24.909318218080813,15.570025319185241,7.718980267105577,18.20497243955291,16.4606379938299,5.947673352508824,14.426438837190727,19.776161138036446,6.014043955645647,3.55170291146569,9.690600118417,-1.5548654838358784,-7.029598452926971,8.17607777685065,11.313771780860106,3.2648864123346346,10.174914485926223,11.97851783518555,-2.5636812205905537,-1.3656136135390917,9.519713019546872,0.3246400336102546,-7.154717450567079,2.9233810624453644,1.9074312598625474,-4.827828066781787,7.7567958103508845,13.98642748010308,-0.671199615537609,-2.870568430025932,4.735191020386726,-4.360085535961719,-7.494765331577742,8.264419099383538,9.858221296053479,0.6938409021948111,7.695030116928249,9.017082470747487,-7.6990627410520736,-9.918437678485475,-1.1199245096800556,-7.811954399928931,-8.683783892993404,8.157556084943385,9.346458765793995,-3.4671766628006084,-3.1139099704403073,-7.038835246597203,-23.448670529736503,-19.521260092476894,-3.1730368164943163,-6.350725423953746,-9.063110237379231,2.5726604327612748,-0.3661445317176035,-10.550720107468255,-1.0447386017530222,3.9396213140679532,-8.797278703080018,-7.03514159175414,3.0787413368435246,-6.540183222552677,-12.452279458959637,-0.7894298541140303,-1.7262549934542677,-8.585050197112531,3.3911626257698346,7.248640923140042,-11.281856426604943,-18.7145283825774,-15.850375051112078,-25.214042987779795,-24.195264366262677,-4.184311082915976,-0.905882458115407,-10.556710072958346,-4.067310459594584,-0.686724976439903,-12.027774217743682,-7.676125180222884,4.779953471476811,-3.455983924411897,-8.796588183643237,3.6796846468842883,2.7505756397232313,-7.280750915514069,-0.09293954888155742,1.7260378623434591,-13.709538043817592,-13.991171467706092,-4.7573235561559395,-12.813699295110151,-14.552909439510666,1.962412432071801,3.430614452543943,-6.474007682244693,-2.1241255876324736,-3.7174485580669008,-19.029332136487163,-15.799282726361794,-2.992143091050482,-10.213185834191176,-14.721966620937435,-2.45743988976884,-3.2786292715784517,-10.968321232233134,0.08577447136288363,5.672373818255299,-6.516450729525949,-4.8064114722421145,4.231956320635053,-5.853039668571207,-9.820351807098715,5.833057347491074,7.609482962368527,-1.5040275492066506,3.7146915424849825,1.7253672559760524,-14.876082058577493,-11.520812665498879,2.689023227232468,-3.331422074848084,-7.805891265701306,1.9206149601137517,-3.1373914870918864,-13.337163812855438,-1.825336401268168,5.93118782158908,-3.391476104427854,0.5487323384969875,9.566302999936488,-2.8695772690956396,-10.645714563132774,1.368116902424613,2.4443907951345722,-3.417227917222675,6.676855314207668,7.585414432336498,-10.843375228770732,-12.978507989876633,-2.418279808528251,-6.115170209859743,-3.925468147481831,12.090421256623785,9.243179376010282,-3.975955735431496,1.2215594153058271,3.2691781854566475,-9.02756001027855,-6.1207035010466395,3.293436652510271,-6.6469916405697385,-11.273833703960069,0.9082448510091155,-1.2602425045101686,-10.011935525194469,0.5007870933309473,5.527931868562758,-7.215379347774961,-6.8932176060801265,0.5116781524904477,-8.436915363039391,-9.611987820952312,5.22799484675884,2.574316938241764,-9.04496805670765,-0.624533709087487,5.472742864879922,-3.9101270249331437,-1.2296996456311273,4.3255157609421016,-10.07157875837813,-15.346356894400406,0.17150038605243534,2.0509133101321786,-4.10773792920766,6.451748451286078,9.039360269039035,-5.777618278439194,-4.986322960346314,3.617154086741286,-5.395181986158623,-7.011757414158537,8.053286406514275,6.486287708224127,-3.33627798688127,5.027147409412752,7.391795778484054,-6.081872921336833,-3.7085028737217165,6.227582234433819,-1.7628481773652522,-4.178223854939414,7.72413783148364,3.0116657796032404,-7.812188347618422,1.380174991064127,4.633075535276326,-9.774326479559917,-10.340124385866705,-3.426986602745946,-11.960017019065138,-10.917256803618463,6.8881571201591125,6.656902213109993,-3.056248302942853,5.047849006298723,6.63292449676059,-8.949300508536712,-9.797970388255024,-3.4022563061901456,-13.931721340012352,-15.960887859137085,-0.67429809327328,-1.2404403370951984,-8.929501283342221,2.2135768613953957,6.77769534283753,-6.695808229924673,-7.723212873001507,-3.145612837115662,-13.418252740803627,-10.775999550421004,12.387477810912074,19.246849304268284,13.23242033249076,17.88368454487094,13.24500824366881,-3.2577216242919,1.6689294570654418,15.050476578535411,7.208324285292388,1.3570475503192123,8.624646070641669,2.1569842203705116,-5.460612773278552,9.014061295003835,16.860168830114944,6.898686806657825,9.050410813788778,13.375466791208169,-2.034846165414274,-7.985684001410298,6.076441313890462,7.7024777524215065,3.3722419347287307,14.441372243114301,15.28840445028911,-0.8897239956915701,-0.814128142671608,6.936965003989646,-2.0174305340328633,-3.0125444080759567,12.657525521475515,13.601578676778164,7.377318859492613,16.541887600378644,16.587016212677074,0.09084806990409522,-0.7451842419977415,5.440318600682414,-4.7835367214348565,-5.481034479860022,11.130468152989703,11.464110544669442,3.3506180206451464,9.85166715389073,6.669843849556477,-9.917288832995485,-5.379974204876608,7.898627280694134,1.4185274935929,-1.4743717056353405,8.430267104368752,3.388911503257053,-3.1469366255213695,12.406694130231408,20.14729418489614,7.392107027187717,4.129744730967576,2.87856227302054,-15.31123445077963,-20.575803271160865,-4.389353950627271,-1.5542182416690868,-6.140918411032898,3.722591574125211,3.9385855679011144,-9.608025170338275,-3.552740832585564,9.790641925690847,2.647160404701408,-1.66872913820227,5.612348430678915,-2.9631111157402517,-12.855590827425258,0.20284728181781553,6.389619054905893,-6.60498432164959,-8.082077857301616,-5.0993945293840195,-16.531707960007836,-14.191180885433658,6.179274424590997,7.492318023452955,-1.3692551656836582,5.602605839375863,5.089688169970051,-9.728337316528629,-8.615064046662178,-3.3325197686028387,-15.958962298075395,-17.150401817029124,0.9196273635516992,2.4898732907929553,-6.107176377137513,-1.0546166500971466,-4.250725691048793,-19.10652896644445,-12.574720320802466,2.4442078933337728,-2.571037788783231,-4.20025366567907,6.634882343295885,1.9574805346076878,-4.7176612293785904,9.61430513135716,14.890466225425829,-0.0755768363198479,-3.8418839876399935,-3.0198760443497097,-16.09757040426114,-15.832692830003479,1.6447331602794275,1.2259989625073189,-6.95133255730518,2.2079725669494517,4.43511901405886,-7.4289521520889545,-3.326197732912533,4.653312701476018,-6.925015444760068,-10.931890380771614,0.6545894360816176,-2.9676237000377994,-9.922901052601508,3.5346421045495076,10.269104028285815,1.1868542227501218,5.682200695041514,11.870847046972978,-1.8873825249758154,-6.011371086889555,7.881885512196775,7.341921169176722,1.9004055536458369,12.346942069419992,11.376936732546524,-5.586274695474445,-5.087416443376352,1.6349396292807974,-8.034502732402416,-7.040180441151895,9.45895423013826,7.712421683630826,-0.5504658263918336,9.018464982392855,11.033025461913905,-0.39635705105765595,4.785265018946944,12.056221286669196,-2.9787857139654195,-11.767587262601662,-4.218414188699436,-9.658923951392312,-16.161332773927846,-1.4772113407484282,5.083630747325996,-6.39364742570031,-5.023754118725659,-0.4687623161155232,-12.910548427230424,-13.410962579694973,3.5753217141965417,3.576661887082769,-3.2234032605705907,6.294209502212608,6.97230309181897,-5.974809566917253,-2.055544586776891,4.863217453809559,-7.859623204008707,-11.649594428739352,1.7229663980683325,2.5910562306596407,1.8721329778503135,17.657035085629712,19.468566910774374,2.112753722505178,0.6543626918544785,6.251725145265583,-2.7411051163244986,-1.6576725523363085,12.05967028740901,6.845864504740865,-1.7711288383433375,11.668672538514972,20.562800493870252,18.19133093413646,34.36464692663328,54.08728154552899,55.351773361902914,70.25499910188161,106.64828607421595,129.89207108756227,147.62584322284738,175.45223758732413,180.83627148619058,161.53311248642163,156.1840828264306,154.88636791466396,136.00231471856858,126.85063222771154,129.9168369792013,110.90757492824618,82.7402045482577,70.083762209681,49.1041043134084,16.80190097273066,2.9085874988988945,-10.543962814019698,-48.927163968712826,-82.36950686308705,-100.22608975752055,-131.4249449046398,-165.96997306541613,-184.6244987788892,-210.8489544204871,-241.07398321777765,-237.84057297249637,-216.48602380267272,-210.27678039996616,-203.69132083037243,-194.37237904631266,-206.82934726509208,-219.39012828730282,-205.61813160020745,-192.5203975119187,-186.64660650791402,-159.24841851556945,-126.93957473488535,-116.61990877629701,-104.78151219269157,-84.68458552554355,-80.89109516307587,-75.35200117618771,-47.54070134979371,-30.626939378368874,-34.260623341781404,-26.322836098687304,-14.659093073264827,-18.615413858608104,-14.278452631096865,-0.7836190842464363,-8.228588368271616,-18.045778381430605,-3.4317018458948843,8.049638016381275,