-38.394715184876,-38.98711711355506,-37.78983550515508,-29.127337835482308,-23.625646616799603,-21.172022507406012,-12.037464224671794,-5.96672777512533,-12.560916417559584,-18.742294382407064,-19.853234431705538,-24.972827605220623,-26.381739189580866,-18.43078286393277,-17.191659261679977,-23.373233906552386,-21.38907054048623,-17.920536520955984,-21.47528674202961,-19.623209237219605,-14.10481047234122,-18.517322604653256,-23.84411073783291,-22.139769816472878,-24.315660958149095,-27.512259908487742,-20.231844939161675,-12.535420409370829,-13.957058361162508,-14.081711806902112,-10.340526143617666,-9.447906615413235,-3.1269917231567854,13.113869726937263,23.855815556474855,25.108850458377013,28.084116157085514,29.102893424909453,23.598082477287566,24.68502416467031,33.198264874413546,34.44259866097922,32.45317912904716,37.11029157391014,39.61974713652522,39.37544711320818,47.76204853532803,55.11426777551325,49.567107302368896,43.40053993684076,41.92035256825883,36.25316172389173,32.12113450358166,34.00541195960488,29.48698837963783,20.39113899344366,20.66239265175655,24.00754043205226,20.976138006144453,18.883586122881308,17.15248248567301,8.462440581031064,3.832309449022631,11.155163896674553,16.743454374851115,17.03824911569414,21.974037186785463,24.17802834714464,15.56607811703038,9.760769370611074,11.279873108229781,8.665611149269896,6.53232195693961,11.35121714808577,10.08919679568504,2.521254145079386,4.873596770518074,12.206252554287902,12.908951322461574,15.27290024364828,20.494569607993977,17.770716555623007,13.661165683197138,16.454008620398163,17.26191856060377,16.392493268782665,22.749993565626248,27.050790876070604,20.444460634837476,14.872927687907087,16.11432146516184,15.219689268938387,12.862354899357573,11.165007453243058,0.38427254940941413,-14.957924261352149,-16.394086897763856,-7.943885485921908,-4.070735089322327,0.10784007735596512,5.558190788499947,0.5470736753216037,-8.086599877591448,-7.939478651547562,-6.985106649859869,-7.33253339235792,-0.9798913713571071,0.8894005001125551,-9.737698839706212,-14.859445475236065,-7.229226379767628,0.9596666791287549,7.767795346286052,11.142995695459376,1.4628614325206608,-9.783099416352693,-3.3443412794320966,10.993259363386217,16.37497474064076,16.872961891544982,15.389171011796734,7.482488118505505,1.9832427405914357,4.660249062790198,2.3929260877689726,-5.819188154772474,-3.6654895246675054,5.5800720446110965,6.573530160783227,3.31791537683093,-0.15973030503063015,-11.375179095729834,-20.9556452980629,-17.984496464347426,-17.560773285657447,-25.678147012032255,-27.865308218513427,-27.78445603312513,-34.25972035607844,-35.60897993690026,-29.627283894443075,-26.968559630080634,-21.878476203449267,-11.926739101386717,-12.325081565112937,-20.852267155304197,-20.60168942707638,-13.912240374907977,-9.166954770231463,-3.894439020464696,-2.2520408653760233,-10.235713864148293,-15.622638730032376,-9.215757071954446,-4.152033240589919,-7.395573788708447,-10.505112153824024,-15.94767042952727,-27.113215255570875,-30.618432936481582,-24.539437757767274,-22.464862318885928,-20.248738554399083,-11.584568262658516,-10.285622225129543,-16.44482325256165,-14.941363165466552,-12.515242568007999,-16.787629222824766,-14.113150183541428,-4.768644350002211,-2.2926579407247214,-0.4175607843620065,6.013867491550341,4.364549784238803,-2.094153519938831,2.570628709266502,11.595853088090754,12.406408899480393,10.638238135262464,8.632925203823747,2.235539701739656,2.4384620704445457,17.257251900170377,30.422134287093414,31.00453841849282,28.75649103067046,26.24825227522928,21.05508964727101,23.630506472129888,33.32276541090499,34.04103949640564,29.95304907398628,34.09039736712396,38.22305279511001,37.66204529980502,40.4402370003873,37.89368307955215,22.005743763221254,8.920272912060131,5.6969278686463225,2.943369548875397,5.608363797471759,17.920600838006354,26.049786006696426,29.50679836259337,41.55813306359937,56.404276985420395,63.82731735924801,69.27154054594288,70.59944217354533,58.64301044713703,43.833446754059246,38.510937995377944,34.718504681124465,29.92469847932027,33.14321504455167,37.392525238669734,34.02717137261318,35.523543851395544,46.116983112420215,51.31540280548737,50.14839427097063,48.00882105344506,36.54053826391841,21.110836425428424,22.082015399866048,34.36355381480064,41.11826608833418,45.858450099758954,48.512465609295774,40.644743030682235,34.27094170705617,39.90114722087346,43.097945036467166,37.900332305839484,34.77901377267413,30.92326785579565,21.917741337850273,19.27833952538026,22.849777712130784,18.19194549063068,9.340375732661535,7.211332701475857,4.571693337913338,-0.9055952853103528,0.2846069669394371,0.4300791674364801,-9.82996263626746,-15.776945010253703,-10.679323479518857,-7.216187903064176,-4.029763676998012,2.734061870735631,-1.339742916540463,-14.394060514456319,-15.48553429491879,-7.146318274348867,-2.242361505935307,3.2258597944796197,6.2992528902816165,-1.8331119029764076,-9.170492950814099,-5.997531114769326,-4.697652481943423,-10.435323914176648,-15.181282130650558,-20.196660160450953,-26.120614460696537,-22.602227447946795,-11.342277108029055,-6.659759221150081,-9.139424379733725,-12.21547352266407,-19.050660394011455,-25.504891358018924,-18.57412729190741,-5.712059354285542,-3.62693447931834,-7.6847535606531245,-11.485460824242049,-19.144836202659302,-20.79111112242,-9.080343787849284,-2.7231878468106587,-9.892795845768905,-16.32799912695379,-22.67047127610717,-35.042554718619385,-42.13979879588923,-43.55003462695635,-51.009077843603066,-55.376051442277074,-46.62438364714209,-37.813185243420016,-34.15203771239289,-26.468070213147755,-19.705962873417445,-20.266508973822166,-18.44856504372197,-14.147513460971993,-19.58703232417607,-29.771313819143494,-33.32165087248654,-35.84855695611182,-38.67311149484562,-31.061917265748807,-19.69666247152042,-17.842256075032243,-17.25607841170151,-13.626976645373514,-17.247277640281347,-21.1022024933613,-15.23643908456306,-13.515967806414013,-20.5167286805715,-21.12240247889658,-17.683607917717517,-19.054119907645507,-16.131548227543753,-11.099528916832362,-18.166376196121092,-26.619737269674424,-22.599582597719483,-17.579501482173484,-15.995487572402359,-9.627845998456747,-6.871922256832427,-13.414796071926887,-14.498353029703436,-8.463677466149155,-9.944299693421128,-15.952710461396018,-16.610701441055742,-17.78168350225363,-18.58941337911474,-8.252001476903612,2.437222768678252,-2.4597869751797696,-11.792270356124643,-13.575413561045925,-11.860643208627133,-2.113528685912126,17.223051208284858,25.91843263396359,16.883666205617743,7.18084338794754,1.5944737290502338,-2.9111099825187208,1.8443939057579728,10.447680877032663,5.869016462187679,-4.349168547445982,-4.6410835114058635,-0.3363360394992513,3.773070344034759,9.57320126644152,7.051459814179106,-6.525688867071359,-13.000113692574345,-6.407602098575555,-0.5221814873613554,1.2984918520982542,2.7752127677767233,-1.292646546966521,-6.884874919421899,-1.4037254987687249,7.488233245919519,7.240647672093502,6.303809366827354,8.185315260099296,3.4246334884621294,-0.989892405624752,4.049399492990206,6.145600829203001,1.2800659394518679,2.27659021495278,4.713586794697905,-1.2066240929245975,-4.764906001883439,-2.6666497965401565,-5.999616371108432,-8.485981017489616,-1.4383255463133064,2.9860149235571,-0.16876757337164028,-1.4375565360701943,-4.0138055405186535,-13.108358665291851,-18.278735348838254,-16.050064663577785,-14.584599324716914,-9.390635567071318,5.428049521118751,17.75648105327369,20.813110309214466,22.14650647207462,18.481360756787332,5.90753086117854,-0.09699664109468509,6.120894349385084,10.704622605058923,13.135943691829196,17.124656126763906,10.475586670264123,-4.763575168069554,-9.928937087040623,-7.896915660912364,-10.062037688002889,-9.40465976339569,-6.447142687250484,-13.80531865075192,-23.402546616405303,-23.02151623108125,-21.856257589020903,-22.980108983573448,-17.97880989556062,-14.163122333320231,-19.53714720442988,-23.9532227826872,-24.59261560935407,-30.781421151556447,-36.95979669209288,-33.134615188957476,-27.47731252467772,-25.121101834711325,-18.443105360204303,-13.660933139050837,-20.535713824727402,-26.619283703091803,-24.99782505992518,-26.82851621401764,-27.092334409113022,-15.759146426127515,-5.6812472545406525,-3.7312715625699533,-1.1982612439145426,-4.232019298153443,-18.719250827359986,-28.05383730194277,-25.496886851009915,-22.70782887724418,-18.61510230647854,-10.02550670777186,-8.029511889564203,-11.272099515845017,-6.2289116839956336,1.9448848233532194,2.3571623471451577,1.1914881645127944,2.061152837289137,-0.738821057919244,-0.8809712215762897,8.371939208113613,13.967307859335287,8.024246037537916,1.5214771597377368,-3.921564291537864,-12.84135619280129,-13.161589121804274,-2.1946357541840924,1.6872990813837294,-2.299454385445049,-2.555269559474157,-5.645406525096185,-11.795216315334395,-7.279225475586431,-0.48812253996921373,-5.731900243498542,-11.042656462810328,-8.257307264221296,-7.1374507915539205,-4.11167463664662,7.656406051055777,14.784379720351478,11.905921314451167,11.707821562183195,12.867001586531794,7.298368850267286,4.224281788012769,8.125311371689516,8.83135150415518,8.936126456456915,15.975496499510891,19.48728682591907,15.229018202926111,16.399865363602093,22.631272321327074,25.961757070259857,35.49853385992739,52.87375301035587,62.303633649346196,66.83861092147816,79.96464191879475,91.95836380817371,96.11191641439146,104.3258956954603,111.80906810689979,107.05580945461855,102.7854184302936,106.55592756419887,104.78118142038436,97.46520315363115,94.64207403520258,88.93067540685887,77.32957961172383,74.02254385301114,77.74127842793409,75.65684679441668,73.01235105473977,72.99927370571169,63.35351320081163,48.43670108642013,43.34041807523097,42.23499757715226,37.666644010078144,36.274626096292636,33.33966900052983,20.685024197888325,12.110391326043263,16.15763011622901,18.314407550528838,15.303885247619478,16.59911300988968,16.61236429790734,12.25069182801999,13.853462412987444,15.61773260617921,6.255102658136672,-1.6819058718254667,0.3099657012401107,-0.34497396863558194,-4.542253575887321,-3.794863864022976,-4.273890208226864,-6.9703658215425905,-1.4867378475590485,4.262112922692086,-4.095284869446246,-17.92182971280828,-27.170156403345565,-36.7956598272459,-43.131802095284044,-39.49318795139145,-38.8852415183337,-49.89220378596556,-59.84918604759126,-65.12264691499283,-72.28103394462252,-72.99851676236406,-63.97384602440796,-60.617082722441886,-64.23311851556066,-63.58961887478376,-64.42809910489486,-70.61873193283934,-69.48692149624341,-62.149115859685736,-59.48225162071439,-53.282667160455475,-36.60478036958128,-18.934741747499757,2.5181972242395503,37.3037197978271,73.39848659838363,99.34278283064826,120.53955734689902,131.14956813261784,121.00543632735719,104.14972555976601,93.67270912611008,81.0937337154556,65.06689516941947,50.71285461165981,26.708693973417436,-9.314189644713204,-37.83056774860632,-54.43641083458212,-69.42367090816552,-79.2909521339905,-84.93691846022799,-101.950805205783,-127.24049592020886,-144.6348338803929,-158.3651788383971,-174.65361464473045,-185.74279040249567,-197.6121086368783,-220.4713226592906,-239.81820813189395,-244.7651721725074,-246.5064643785861,-246.71591962976848,-240.4105478097826,-239.72246651642382,-249.70905551721657,-256.16331990055636,-257.3721746538468,-260.9449930316567,-258.90897898982416,-247.90280378839435,-240.73006489700563,-236.23401045124822,-223.39490395547176,-209.7450204426663,-202.36316370722005,-191.03168281675397,-176.29448814570063,-168.01616599731796,-158.02976392218082,-140.74274756382155,-129.2918466201279,-122.79680630395052,-108.55263845914567,-94.79226594446202,-89.83932437470486,-82.09072380671444,-71.76293700293267,-69.08899734412653,-64.1527746759543,-49.60434569308704,-37.73722864238158,-28.69878173452475,-13.497638314894365,-2.0102098183140034,-1.7441636812275296,-1.54639014632586,0.8605581745787064,0.8526076850156981,8.481359268151628,26.768384953423112,40.72463483918244,47.86486456817496,56.63031122636967,62.41969128192322,63.98776685102976,72.65839797544781,83.96705710381772,84.57312467643891,82.29325959971109,85.95694566424187,88.01503200342363,92.03237522124238,107.20026499817565,120.39098509278912,121.59849608131665,122.46230097899316,124.09826005554615,119.62036805982248,120.9444893891826,132.94606908674083,139.78201969300844,140.88634153442123,146.05034507799274,147.18666230965425,141.3910117851947,141.6665360112905,145.36144634397385,142.07538397363882,140.93979197625399,147.54534075781686,149.36890205600184,146.8581976832132,151.2019403921005,155.4699522304225,153.82486259312137,156.99304203990636,162.06893461697058,157.3073960342156,152.71991212651162,157.83335945953155,162.60127890829767,166.7137468630141,177.36134522639648,183.06891636976326,177.16589387336526,173.40109258881185,173.60852364410076,169.35907490924427,168.94615635263594,176.15815413944256,177.01038750098576,172.10084704060682,172.25633641467215,170.314384044691,161.97231784084232,158.4035893082592,156.95835370568417,147.40146284372298,138.6646869431667,137.71473320115953,134.1302968706832,127.39944731690574,125.48844021626505,120.4698098526171,108.18067012453713,102.38966509086757,102.4782553052043,94.72393014940167,84.65239824204937,79.88925747766145,72.1093477929148,64.29619573562987,66.03340409311787,65.38194291545798,53.98129525641364,45.703874398399165,43.3520607755425,37.82228275843721,34.68652234124504,35.399082371545504,27.156550337413893,14.6557663693863,12.629655852350666,14.169431435198803,10.198045012070843,7.137034044126542,2.8045722754621205,-9.370564802620681,-17.044378182739706,-12.296802374534575,-8.899162555128498,-11.25267711853405,-11.048829116845912,-13.955663998634268,-23.4305948888131,-26.111086427064954,-22.76087358845606,-26.72162874255026,-32.17648390069745,-31.750350550722114,-34.68553452507085,-39.25277453069786,-35.67597118274393,-34.07145133875045,-42.72026803299937,-49.748793500414415,-52.740648597516696,-58.787281454470985,-59.742954513136155,-52.70987168654635,-51.9205475873467,-56.587908412352576,-55.10386439396842,-53.80907489448918,-57.99555111168677,-58.53039381843235,-58.85827749365963,-68.31221157891392,-76.31662457629989,-75.03781358948238,-74.53304180823523,-73.73699154067799,-63.677237550133036,-54.54487698633351,-54.592028906431295,-53.06681133744397,-50.560522374932596,-57.37394263695067,-63.63544096678329,-60.083256478573034,-57.27641260906194,-55.51646521496061,-46.47933278657341,-41.75277696549874,-49.690424544749646,-56.471334099280355,-58.65067425207329,-64.53044552991022,-66.17766955960217,-58.84347432787561,-55.9043731291205,-57.38414910117264,-52.85827503567617,-50.05273741852261,-55.00644846051654,-56.62459802704052,-54.24068679126901,-55.89873508145608,-54.707479335577545,-46.99867352191751,-44.85452002867646,-48.24348384099474,-46.13637221101435,-43.548051817969494,-46.17658390989915,-43.836090652258534,-37.52307913602638,-38.7065149352529,-40.02324068153917,-35.13605506261988,-36.97695838258896,-44.815561465825006,-44.99645484257762,-43.59536125707344,-47.305153177309236,-44.93924231827652,-38.25034039409832,-39.42610074459309,-40.58375428777382,-35.1414412152648,-34.8776387378671,-39.269933288925465,-37.97362415115472,-37.296228479168434,-41.344144559334936,-40.16271272588789,-36.75458597579599,-41.475995247664464,-46.3897294681624,-44.10536742909471,-42.58692784497532,-41.07349770053065,-32.66197484715072,-27.450697145503927,-33.2054013541358,-38.14603460889254,-39.25356389635653,-44.42603532703027,-45.22631737614637,-36.18219253780252,-32.40374450880218,-36.33653702508087,-36.26302285809206,-36.637482567206355,-40.96941650482415,-37.370466618791134,-29.138038445601723,-29.73245515254618,-31.040015233153074,-24.104836909938587,-18.56978903162187,-14.69111064733061,-5.2218833285647674,-0.9730983304808308,-7.541401963058025,-10.102270212727882,-6.8119718518695045,-7.80728262889061,-7.062333099794419,-1.173152202784803,-2.7405861035084498,-10.081325467319287,-10.611741576190553,-10.266819450816083,-15.108330905816114,-14.031380086065926,-7.709784498582083,-7.99668131875283,-7.670476571902401,0.37150024905864587,3.654248880337292,2.0069977956713148,7.126173888792142,10.838210194743962,6.723697763528029,8.55665836869209,16.289109546163765,17.55984160022852,18.765265777735284,24.871695458521106,24.39598809628643,20.021269414193522,23.26210821142395,26.287280191860653,23.2901005657205,25.10900112116773,31.092342802214443,31.6947057832322,32.82708808855804,38.58724911724704,38.43223436982087,33.72243302334404,35.75501523465448,37.55072750440868,30.81860347285683,26.91813557974252,29.216925678790012,28.07424323722122,29.539449154880952,38.923908928000344,40.816840423539944,32.75363591735458,29.652522328418204,28.778362855331522,24.37290417250783,26.888197979328933,33.17858053690591,29.468170996866384,23.692107192576778,25.637321979897678,27.153559409660946,28.617741059881197,36.654944528198044,39.92131171890676,31.35683182956393,24.276204614289327,22.461511738454696,17.7982839664863,15.862584790387913,21.346927376161926,22.901790520989174,19.394223208216278,20.5695185259952,19.91647345252965,10.8827544147944,6.080778122056298,8.78530951071944,8.467901099086621,9.488575421837266,16.325572331570655,16.74649668921684,11.624677523173084,13.644424246561769,15.451050595578199,9.113689424864274,5.69689112649562,5.009980797186562,-2.399479115614694,-6.809730472478806,-1.4073616862031924,2.0523683205497965,3.1084706475406474,9.289404933623853,10.842332444780387,2.1846701047023234,-3.165529045890014,-1.9834981467221895,-2.3680991185930163,0.29634776537177954,7.779265331274849,7.184849756517913,-0.9519061240104767,-3.6551390439361136,-4.731407144169141,-10.780570888670017,-11.606804831645963,-5.4686546639215265,-3.0505250562573702,0.30340674065807516,10.06439787241758,13.593052283774167,9.47012565330339,10.611050500778807,13.54476474055938,13.023723150149767,19.05200570357314,28.123015809296454,25.879405595642915,19.643883062878032,20.511011736294925,21.706047450443876,22.811558548849547,28.653030677195673,26.188133625150385,9.264684206164848,-3.438089560516972,-3.504213962299895,-0.43825665256190427,5.500658868850071,13.199646267617403,9.630501866703215,-2.39590765850035,-6.345875501920802,-4.377168979514417,-5.444490988047972,-4.166685269759906,-1.9362629182294793,-8.531051579612317,-15.616334574783162,-13.87092074265816,-13.971266922268018,-17.837917441851975,-15.025600895236979,-12.404845931007143,-17.26848099136157,-18.388733221072172,-15.928564807198974,-21.01774834977544,-24.986302674181772,-19.02671532564584,-14.651611807924091,-14.602025110110283,-10.883290844137935,-11.113209186664504,-20.065177877997034,-23.350986816421205,-18.020818935147865,-16.299789910768407,-16.923100150853887,-15.106522751166555,-18.50739936773263,-24.151698401926925,-19.028406658944466,-10.186155892500478,-9.638368075006218,-9.826490620564392,-7.926390071796087,-12.029382309977224,-14.462642394350834,-7.877497024843591,-5.266244799269723,-9.462642360571914,-8.942782087041412,-8.98101017942029,-16.200888961858585,-18.468155349636447,-14.185184662874816,-14.498427319517567,-13.860088171576129,-7.309151550662344,-7.722390343250669,-15.463760512340148,-17.644650302940395,-17.902217503954805,-21.894195642262055,-20.342450783252723,-14.066622696554138,-13.809356689821406,-13.778441015007347,-7.435845672893766,-5.666773145549123,-10.40381727274916,-10.11921431437662,-7.2016892248129025,-7.6551258795238795,-4.081148878037833,1.4769167572065736,-2.6116056417192297,-8.892815374915452,-6.256425877377957,-2.9976853864361725,-2.2719623866246983,3.035561634443975,4.713658634191822,-3.3420406777114207,-7.20326955577834,-4.499387651464103,-6.103102732230881,-6.033326513856551,0.6966648025614939,1.7308146149395807,-2.2578779040629007,0.5900362233216716,3.9142148007462976,0.5847024147633713,-0.3649819280443591,0.7393467170591842,-4.736307208036867,-8.357585144404183,-2.21538600918493,2.358507747529748,0.925388880263729,2.0664700038470407,2.4167765444440015,-2.935023664803194,-3.736781078512271,0.4190806921891257,-3.0893053782119737,-9.20755284275626,-8.005055289791976,-7.733114825867784,-9.363855799900755,-3.280201945696099,1.280423896633613,-4.478630393809709,-7.313755304301333,-4.318196927288528,-5.944436697544816,-5.159321212022075,4.037073391038801,8.245573774322718,6.798284163153655,11.844320979303484,16.20093219799184,11.438388033200336,8.760036148487817,10.679153801715138,7.816236194717543,6.9855848680215065,15.64159230891142,20.73233540584917,16.79535686405229,14.898809854583542,13.66123141467485,8.178054502401682,9.517287205651282,18.105210664419257,18.458297946806532,12.808415792105832,11.535486058321002,8.570842198499307,3.833768582526724,7.384999450380694,11.085225985297237,5.430428775492828,1.4042221287053993,2.014617842930584,-1.4076564799509053,-2.0378641717588364,5.169982347480309,6.988491916672701,1.3346043345854974,-0.7520688174810428,-2.6270946277778258,-8.916695700487157,-10.357681327311813,-9.239354378201348,-17.55685276398155,-26.1887744881823,-21.96020918838667,-13.502262368099903,-6.981660563323845,2.349357192307603,6.442113827720861,0.37341880890362056,0.5009724211334864,10.365608108744297,13.844636046609558,12.235156018567524,15.13162880744191,15.08808618502659,11.727868424061846,16.110672756740932,19.445187381490513,10.98803124924028,3.880939287905761,3.8576309758408684,0.8284327563469103,-0.9638619266554328,4.131274282068974,4.779430177770932,-0.20379695922251218,0.8167979871966562,3.451557394328594,-0.33672030549049703,-2.3739594417200562,-0.8222923617976867,-4.203339670084146,-6.252886569501307,0.5314049741979905,4.647694111207356,1.2205523108140242,0.3989625707179964,-0.14385776441756165,-6.057301636504558,-6.204128017295396,1.228128642769025,2.486324071956968,0.9093598636915299,5.4402050630582615,6.168649974377723,1.2684657569204245,2.899555213906481,5.4523381187090605,0.5151452282417597,-0.12118601323498934,5.586774929491534,4.57549902993225,0.954480357057768,2.410824811646461,-0.5674364017983304,-7.2062600538966795,-4.322778922707407,1.2913929263787236,-2.7140022558600387,-8.484581392130433,-11.760898225322611,-19.11710127262849,-21.920334808349644,-11.55430972055932,-2.12574426565964,-1.784226714556596,-0.36928185299520755,1.0172347557448176,-3.8312632358926275,-4.398903378756827,1.3217264714498196,0.00988000924080401,-3.5562784843972124,1.0399128724309357,3.2250610673361657,-0.725170654178618,0.9854976930328665,4.043874398149479,0.8268573434695965,1.8975683711840452,6.968467331142781,2.798556416399655,-3.8325405616099983,-2.9726914255549195,-4.061707434325543,-8.503935943123622,-6.002953163778412,-1.8094308224790285,-3.095477519437239,-1.9421993191177884,1.3325916488955591,-2.1028297543267613,-4.011754058737538,5.436699408156479,16.17387990160112,21.5317381948915,27.479127050819983,29.65072288918967,23.69117890739402,23.045899160963717,30.871572713449886,32.44596753928202,29.119837937671605,29.673612984704892,25.02575468443897,14.533467759453448,12.898799553354882,15.477938782350641,11.273841917618531,8.850161213233099,9.17285775170676,2.0261177013224896,-2.622794572810859,6.45415004072627,17.20399044862312,22.72661238094427,28.39633937142883,27.387982560309467,16.64259655772527,12.562732182831944,18.770118516343157,21.03304586883662,19.517549044304804,19.957778277609073,14.520968783349801,5.118012936995238,5.504626496767312,10.04830928178679,6.714962218960213,3.2246136364952878,3.239773319704383,-2.1620592483041268,-5.940364488032228,1.3944616487069332,6.549746414329027,2.8777923836909762,2.029573318550738,1.4035403831789486,-5.363847788905008,-5.501226432632942,2.137599577597297,1.799210356541659,-2.282923444585844,0.7295255322046945,2.211047141194204,-0.17450915922850418,2.9318244785111878,4.629424612958073,-3.1417437171766402,-7.9127739200476706,-4.159499194407825,-2.48690352917175,-1.528220588850387,3.5039402364599104,1.6709957173109684,-8.210113063513404,-11.794135911446954,-11.235606114013127,-15.891040596194307,-17.17178800643867,-12.371474756967366,-13.599628494106753,-16.382226008096342,-11.054821249696625,-8.87385260517185,-13.189045115855464,-10.673010081274121,-6.448544737167313,-10.843406140186858,-12.459529837970594,-7.557940619027984,-8.041367283880277,-9.338582062133446,-3.8717960124297703,-3.139126847164268,-9.485096128210541,-10.34333224241041,-9.341350877562526,-15.66224849863973,-20.680563538276967,-20.769214600132184,-26.05166826943702,-32.385572037757754,-29.474569759229453,-24.882909187103692,-22.42969860692139,-12.417895211040712,-0.7551248879892896,-0.11807206876556764,-1.8462380254264343,1.2549048287568465,0.49313086138757367,-0.4038551064341617,6.330064405300402,8.153466597107261,0.5761433236898839,-1.9159168730954783,-1.0261266388884873,-6.285119107694513,-8.182261237968934,-3.28032412568204,-3.1552176338295856,-3.991024812408606,2.062143498535098,4.418227164824802,0.8471239234374821,3.681196559542589,8.547522847748645,5.4883286086321,2.3796169697238096,2.341850251840428,-3.2561110444583496,-9.015430049112451,-6.353141498229587,-4.360864548699742,-6.256614493563888,-2.0068751555264948,2.7776874513054994,-2.3900756751463983,-7.2000226256715125,-5.296310515214562,-5.8486010513024365,-4.9395424253028635,3.750337660706951,6.376370343157019,-0.8346375702535718,-2.3945777265473094,0.2484607965703498,-2.4878095834664196,-2.1373257369456393,1.960170896500664,-3.0401770939254877,-9.372762088834262,-3.877350398640287,2.8032671771552744,2.9135652855031395,3.947477765556304,2.181074812023522,-7.337456677970607,-10.941702456904201,-3.6162649752681775,0.4808631999727472,-0.8488417552232038,-0.622810776547222,-4.804773229242848,-13.631303891709369,-14.299212508337044,-9.965739916145534,-11.999067882170058,-13.598299279857219,-10.131474495278038,-9.946518175615966,-8.132608242951935,2.285444395868095,7.331817946606247,0.5419206913419741,-4.964248239090879,-7.8049073703791905,-12.431342322299622,-8.709465062678063,2.2507462240681124,3.8207454881783196,-1.0932013894303279,-1.009181182061164,-2.6679428364571387,-7.511804123146103,-4.090904035206028,1.9473593240627207,-0.3560288165314853,-1.7279948756806789,3.3157257699598555,6.3523948142996955,12.41670349358612,30.354176592400723,49.97559188622684,67.63737232907467,96.89554288269915,135.72340436525138,170.6630350419932,202.0772499982565,225.54525811522683,226.0688960542098,210.32992882335515,195.85844338110832,178.67327120995304,155.1883754074714,135.92414465128454,116.11137611916689,86.1686125279614,59.07170297701174,42.818463631420435,26.174776833623714,9.421466227376545,-2.169221035446244,-20.368006694726212,-48.36050069656945,-72.34817593417966,-92.63788138640015,-115.95041740563096,-132.7124172493717,-139.40115086932212,-147.38616201906737,-156.20499885517813,-160.22856326276474,-168.13662751285364,-181.32533444851612,-187.0172583428743,-188.25041748930835,-195.80041976956227,-200.61040392160032,-195.77737405457341,-190.94088799278958,-184.54684275397364,-170.74771281909943,-162.57085512593477,-163.85744003927948,-158.75077081712755,-148.63947805559707,-144.31696695532906,-137.02928136067794,-123.14548412829029,-114.6584853043626,-109.02110247197075,-98.49086297156182,-92.0253802894649,-90.6313808511622,-80.94298295065855,-66.52598735311531,-59.5160922108994,-54.20282594177252,-45.7809563428923,-41.637619865776074,-37.345797844742926,-24.23644101782609,-12.396303476531617,-8.28106229702547,-0.9520568618064111,8.99814070485754,12.331450837077261,17.26531493350606,28.42460171684469,33.261488249035466,34.35064035921019,43.69184649970329,52.26523367527988,53.321353416229556,57.37750031841749,61.25536107200141,56.28133616194073,55.10842019275659,63.88047216200819,68.62483618984547,68.74831902650642,72.38762593691064,72.09219544708785,66.94305882670817,70.25722658134039,78.32834589977563,78.44189479207677,75.95817074736543,75.72072677739324,70.63894036406478,66.09081845984107,71.73765431415949,76.4265662414395,71.37837578395846,66.88375497696904,63.85407969124348,56.10934022064141,55.25167942139356,67.02928969305117,76.13829993786146,80.02509815357188,87.00328929587543,88.23230873242352,80.9266768264246,80.0874940161994,83.15689102700438,78.32319992070492,74.09534855561401,75.12132978914566,71.14268228149143,65.91138225885369,67.47144665853061,66.382861085684,60.63940093962034,62.55507587732903,67.98806323128949,65.15327426214729,60.51583348979125,59.263450536310934,54.00814158486777,49.21805700269627,53.22235305039673,54.45136847333968,45.512017799323985,38.72750612578301,35.513558027290685,27.35666937887056,22.795161425449688,27.08331917800594,27.017121784058514,23.45421023736598,27.92095466997419,31.54449023984325,27.612139335105596,27.44124920990577,28.198347940559717,20.054634231825215,14.389943060601356,17.765548568845105,18.226771155130507,16.508136115212654,20.47791698833807,21.378963573520146,15.263686018079447,13.212623636873348,13.488979913478277,6.263980385146158,-1.0960301405009834,-1.4397557434708408,-3.0584460489073275,-5.404480968952175,-1.0444956938847207,0.5737876702786927,-6.5931496676956405,-9.395571793434847,-5.634561290123623,-5.064068588007865,-2.80080431722108,3.2945559780486624,0.04128898722168284,-9.698375749679483,-11.465999507503543,-10.240757459121179,-10.989709390436726,-4.374797142133314,2.7873267200954324,-4.335141816747031,-16.415518074234395,-22.910960075018803,-29.910259688924665,-32.820702592806185,-23.513933590464276,-15.38707696353007,-17.639033526652298,-19.549251974610215,-20.032629922834612,-26.25836563054442,-29.515452010141022,-24.358488076965575,-22.392707461065818,-23.95010238531812,-19.705449800054346,-16.991365177447285,-22.152196370950787,-25.159763808162616,-25.942767043276213,-32.1369069620662,-34.174079306910386,-26.969135894079443,-25.3696101731538,-30.934116669114243,-32.22937207202084,-33.94478791120316,-38.10638847985433,-33.19874457893698,-26.58999817257942,-33.142055021238534,-41.87566427340168,-42.12559604694481,-42.266627946760174,-41.03047479596122,-32.654171584237226,-29.541992234329676,-36.76851318293052,-39.64850939214546,-36.48913766653793,-36.833793336765666,-34.59187847405635,-25.725256630584987,-22.464755277146935,-25.801030660138995,-25.65164684575824,-26.708287470998968,-33.296538998082085,-34.10857964455169,-29.775138662620634,-32.55994499655689,-35.49098667068557,-29.87735412395982,-26.39699648910948,-26.17102723129491,-20.054376174416724,-16.223574055173145,-19.181069969080156,-15.40042044692104,-6.6200457449615655,-6.3767977314731015,-9.35028453893349,-10.134598036843972,-17.311199177136,-25.144038626531447,-20.865046507338533,-13.110499578941376,-10.501607784357413,-6.473490914672713,-4.605734430036593,-12.211274000460334,-17.351702348025626,-12.057200324351724,-7.888721560662939,-7.839973877265114,-4.5635776196168285,-4.181816500579763,-10.709508230811858,-12.307996946125662,-9.471788596688675,-13.493611336650073,-17.256410385794958,-13.378083985633456,-12.31277519665484,-13.92537471372245,-8.847087194464102,-5.873659827118868,-10.336959307416281,-8.830416187642172,-2.089174262636779,-1.749681050176366,-1.4377792096845907,2.1616268187894097,-2.6335044237370564,-10.556475028984364,-7.715354534436392,-2.3717575698857285,-2.52847110978824,0.2537384268394032,3.209260929873793,-2.5224967870684165,-6.653070775607433,-2.41120106988033,-2.760841955298745,-10.645606176983687,-17.014025027790684,-25.850646447794876,-38.39034176247257,-39.60540075944015,-29.175335106634456,-22.335195550132614,-17.21935488882227,-7.904211971303152,-2.7259712201778594,0.8741940658649222,12.186594960021715,18.91078877361188,11.77520650187817,4.4641971340132205,0.7202795658642143,-6.006274937944115,-6.029778236668836,3.7609601100867587,7.707079526963865,5.265113008363413,6.364431411399822,4.518160353720976,-2.135776100326178,0.0852281585472785,9.043647036806261,11.214799119118005,11.354752456347018,15.566923597159098,14.994317016382855,11.582550789076596,16.16004919317458,21.51850906938302,20.548514920718972,24.141654090276305,31.93453601938586,29.908998236564027,22.39395213276066,18.629590034433516,11.726622773579347,4.913405515207611,10.707921362522393,19.340233383935285,19.06810317342964,18.33262600443868,17.287366835310976,8.449735369659532,3.15872896838965,9.550622168484361,16.233961731736272,20.888015732973408,28.95517420109936,30.907471317791032,22.154093930269774,16.172356190953927,15.487723174369778,11.564161176060278,9.912348433558668,13.537931520925735,10.163741167488585,1.3137083876604772,0.6506984150008038,4.388574655984026,5.811390594453933,12.14062174217196,19.279097372162955,14.298186432854177,6.377849405925627,8.256696007064216,12.230218255444512,16.45297546342021,27.05034038005337,31.523838282541227,21.565533030665854,12.428684701295246,9.135750857855095,3.8920435029893143,3.586826761532587,11.27678725031381,12.94519700328188,8.466527208847005,8.710736881416455,7.478670425826049,-0.00896262429001915,-2.632953034250037,-1.2288197900983455,-5.782378447842697,-8.478930950860846,-2.222236052018218,2.288520731036955,3.8405652801701837,11.311924826772538,16.91959347333637,13.344097960931858,10.975562597315049,9.809200469409685,-0.034969200153239566,-8.379389358813404,-4.769910846052328,-1.1705837376998403,-2.171865614212864,-0.33336577106512477,-2.9594761523517503,-13.35063380115082,-15.610987945308112,-8.708116962588896,-6.8132841555150225,-6.78796567718413,-3.1771946954190495,-5.155228694830197,-9.742278391811421,-4.751161855631862,2.5400061799269498,3.755416934226686,7.166488751043431,11.808751520164893,8.269667705092964,4.207212449958657,6.4939011392880435,4.404535692377136,-2.2397399206074042,-1.8031547272914754,-0.20063151750185204,-5.210862329514021,-6.195494313660568,-2.7515650670887806,-7.624979232719799,-13.471930536195622,-9.442881214359016,-6.214794425409704,-6.24063315797028,0.6241459444920658,5.3844819334801395,-0.9488325142943523,-4.240871757782368,0.19935317572736233,1.4721086760641529,3.2511623539279726,9.874173541401374,9.92320834354001,4.0911745152383325,4.807767916197169,7.0721419506447525,2.983080466152305,0.5137326722087437,0.696436676399784,-3.8993534089518107,-5.531410533032561,2.500355926572728,8.525615309472485,8.636115910499612,11.103738751339584,11.067384539803697,2.9861436051619497,-1.6170785575031204,-0.06568392492209596,-3.0740969392122794,-4.971285408908768,2.8993915824766914,9.232689084118691,10.307053380354043,15.714277124473956,18.188511258137694,10.553114494703529,7.119613116083808,11.173009973033341,10.628680971002222,9.439246507811934,12.259046044869459,8.708709535527197,2.007108736136823,4.609203566879341,8.85437755529825,6.133963812440582,4.918476501420572,4.863015020084861,-3.6972872710970908,-13.994203923033826,-17.74885874738933,-21.68786199636157,-23.368452514562165,-12.813642345594264,-0.8546300918723797,-0.5679517305725226,-3.078140740831397,-3.331846321311701,-7.191576869735731,-6.74086867960621,3.1426629933029586,7.203487191261248,2.996986121766401,4.678595786911418,8.256932027358095,5.6263781643898305,6.422124203897336,9.963756578892546,5.226552809854003,1.7805328295170322,8.20631837576348,10.665513353964899,5.376127182050984,2.4836986387520525,-2.0756456441706295,-10.982987889376169,-11.300532778457832,-3.8965050622381137,-3.2353256022932118,-7.1999105157453664,-9.23419028639554,-15.445218122610273,-21.739028205317815,-15.498735471041876,-4.8671381324540866,-2.505375213521528,-1.7097682038414024,-0.3533643474984607,-6.546608972223304,-12.09555777638807,-8.502048743990409,-7.864924431159851,-12.231370379694123,-8.907421029693117,-3.618525445555064,-5.486815380653619,-4.883109095541833,-1.644271969678372,-6.285418613619807,-10.332964377407345,-5.659024143649201,-4.009247944295712,-7.3713006409437565,-5.898794986709344,-4.982366213241938,-9.104064353093628,-6.794551019134992,1.088401274204028,1.792791711350559,0.04056357255617038,3.676173589270298,4.383312188362136,1.926031723756785,6.622671328571281,11.00463422755313,4.372040734208441,-3.401052629885186,-7.026389909283789,-13.36872477680323,-14.27414693074483,-3.19750595831001,2.3181952502706875,-4.419508336387527,-8.768850695169675,-10.177320220120535,-13.509381206938496,-9.433451481300338,-1.2923521671386806,-2.4020902022028765,-2.457104566926408,9.86067142359564,20.210230471390634,20.465516501815415,18.591899825334142,12.016340765047353,-0.38591937355697503,-4.910261252298429,-2.168415056316367,-6.0584411030603755,-10.945238643910749,-6.850438238773247,-3.119004730834914,-3.497457311570168,-0.0707761755526024,1.006198548455767,-5.975613949898368,-7.930226617186699,-2.074007451120167,-0.31837684919278814,1.5471585975603284,9.34271462722762,9.68717252161589,0.9398788268276079,-1.7549673548118139,-0.3681967221802427,-2.318419594972458,-0.16210187205764348,2.836009934698482,-5.699330450134568,-15.215888738884892,-11.651016360274195,-3.9825879083492817,1.8273674581367916,10.71478216665175,14.43601961122739,7.187938065476436,3.135510140245298,6.8213825181477015,7.703128311993721,9.303913158253545,18.362988481349056,24.218487338922905,22.450078780856757,22.70562935928816,21.416088171935407,11.477671996829748,4.822238371046202,6.2096829607697455,3.347460372023016,-0.8222029757938443,2.3035135877220965,1.9595693837694723,-4.668243128578434,-4.3974108185035785,-1.0560324618027332,-3.3038207399263673,-1.5449547786614406,4.1014833311625125,0.8678688140250608,-3.724130910111261,1.4402889332589224,6.310147966823153,6.032728261972226,7.064537948846713,3.507797962177068,-6.982841084770419,-9.651832434979882,-3.6109938681834715,-3.2483852781108955,-6.314134629653622,-4.256605724953017,-2.252007735000159,0.2149525540555919,10.100000707864293,16.74248513494539,10.965607862167888,6.613480940609524,9.853965262155892,11.04474846091066,14.084166840004258,23.48567959769639,25.986525879544846,20.57873515457909,21.19088676328878,23.545370754965976,20.387818347391736,23.024193818070273,31.08328506441743,30.376020674230663,27.003964540927836,30.890638585297523,32.22518116597904,28.47302737023943,28.142382594198992,24.764691512890664,14.410340085710578,13.167028172667127,24.838314483579964,34.06511467877269,38.848209067000795,44.068455541351454,42.628430275530235,36.61622359730541,37.88607359932487,39.48181209076995,32.01170189430268,27.457005566750887,30.841743667033526,31.495830800971383,33.47179540322094,43.20021424383547,46.347664889792746,38.05005967778204,31.91547064636316,26.187272858873552,16.352600710510828,17.38655660045732,29.053044014020347,32.04268541067668,29.749967817333108,33.20649847689096,32.7805889178228,27.66683486874696,29.985612894736725,31.834849422165696,23.08943902083604,15.09637124386694,11.231664740638328,2.065396858452272,-4.14765682953958,1.8412329784220658,5.518947417253504,-0.985437141569911,-6.5714547519874085,-12.290857233266353,-23.809777761077886,-29.21094373187099,-25.998708800977006,-28.499682768400554,-33.399785122604484,-31.019201303118898,-32.281631866273486,-41.20205985689437,-45.60141183071794,-49.71686016677217,-62.71914663828183,-73.74497550441178,-77.51875731549023,-82.3961321515626,-82.88489081845607,-73.44740523634641,-68.89659608950063,-74.04820064879588,-75.67776734495577,-74.66449038578634,-77.62064544040268,-75.50055914283368,-66.91954742456397,-63.449469130662905,-60.97765966095426,-52.07914154888383,-48.335763991483766,-53.60332626861085,-55.33807079576925,-55.387111075671925,-61.70283388006129,-64.94550286243425,-62.317430389405274,-65.42185483240885,-68.84522249167023,-61.71586791982167,-55.17491056989691,-55.4017403949084,-51.82518468399378,-48.9968029726261,-55.520550016037134,-58.3424753602117,-52.22676637105325,-50.03877123169585,-49.45589033104189,-43.03865630338417,-41.01074219946369,-44.822562185779056,-42.07095348315161,-38.187837343655595,-44.495669266082416,-53.20871812725198,-59.75966094055628,-70.74258340116741,-78.32915625826455,-73.12860462373587,-67.01897132154878,-66.98449689736023,-64.3536560937208,-63.22249217421968,-70.97658179855173,-75.13064858425082,-70.24875724574088,-68.83376342308988,-68.74027380959062,-61.35882572156346,-57.75095159322418,-61.77092937804589,-60.445221415415425,-59.22821456094937,-69.28670647601217,-77.57158002728812,-76.19544641020039,-75.10664515868702,-70.50539311785796,-56.456572743142104,-48.3238839315148,-52.128487158777546,-54.45615291002498,-55.91781459784954,-62.765141891043356,-63.674292760720334,-54.738565312171744,-48.347999656785134,-44.10438988768845,-35.97748284932696,-33.604486955558734,-39.495587463312205,-40.571532822847274,-38.27454165466366,-41.21737705528936,-40.55973086862096,-33.17874428330795,-31.235523731166825,-31.62508681364137,-25.030678194049706,-19.38700893332313,-15.802595029943603,-4.217974142816259,5.928269084474719,2.1447907526664767,-3.8142063219640128,-2.641022410555239,0.823952937739074,10.905592333067165,28.13696949120025,35.0526497897021,28.315520402945424,23.820199641458323,23.822972592574047,23.67329805159666,30.079916742202016,40.24966904673522,40.96332547773983,37.083356191597694,39.219389413957536,40.503126269238486,38.85949369783414,44.509406598720815,51.925887267066386,51.320697012225736,53.2198952172793,61.67998530955033,64.08821623253391,63.8195489698023,71.11474792822264,77.33455055700287,80.45236915455018,92.85362697507904,107.94670898611975,113.12648468453898,117.7457218495182,126.06284869813915,127.75858756987063,127.75504302564815,134.53248204892122,139.26338555355375,140.31374019909322,148.32933960665497,161.12375727274525,174.6333652896172,199.14832782681214,234.2874679007499,261.39191511080367,272.5467118353804,270.4572818875972,252.29183910398984,226.76735139664666,213.0345852637066,206.58995993863033,191.30516039359713,171.66129209718966,153.32193406178806,131.44638774775987,114.73477679954902,110.68460967299097,102.54885231094659,82.2103172428432,62.63462290184586,43.32074196976426,18.439382930970385,-0.0832470117858799,-10.255754464745161,-25.775055619422364,-43.20113798989782,-54.87323349793044,-71.05133676285041,-91.82383292697389,-101.62629865312698,-101.6829142087926,-101.44645967671377,-96.33094487320395,-87.19539012996937,-84.71688760717977,-83.49438644497877,-73.73046028150065,-64.60347372023094,-62.62910078253487,-59.925022094385014,-58.53930741838244,-64.5535588327734,-66.60028620707047,-58.32109076566701,-51.018456557675144,-44.23971904022075,-30.796040813796267,-21.879980358451824,-22.71350500704809,-20.930911507873354,-18.352699970447482,-21.94756856418543,-19.252704636901072,-6.242814224651483,2.7721225889383048,7.550346887115213,15.078276524663645,18.094313586792936,16.122749046598383,20.008453892007093,24.947856725440985,21.898449292201533,20.761322538003007,27.060717944187118,30.03870115860198,30.279488017640293,35.718634205009444,39.347554673225275,38.67694597176916,44.08509971893176,50.06594370380048,45.10138330351596,39.711684274986986,42.374385055686325,43.88028758397478,45.721999053338,54.60068072419536,58.87356830304209,53.537936450110664,51.11361250803383,49.90092986286151,42.32346984346571,39.35386507443123,44.36649247127258,44.358440669650555,42.11492984548511,46.40061429089838,47.79106396338372,43.24158208725458,43.546066184516235,44.397701045149425,37.609754698661,33.97447317473386,38.32579733821118,39.233275026392626,37.362554600223845,40.06357595888924,39.770073995007586,34.533738248202646,36.31165411904469,40.86039137469476,35.14298917107415,25.78919060102239,18.798587221498224,6.7308490776013645,-4.314482933843529,-3.946850723246285,-2.4863140542719275,-5.26317771832969,-1.0845925195759478,5.464824207879341,2.768555827170154,0.0905743527013399,2.8726203057233786,1.605552298613789,1.3493556212045956,9.908145907504236,14.023520654489012,7.570852224090546,2.4752951994244237,-1.709517733425654,-11.045736796775769,-15.54208364088796,-12.45146949998242,-14.051771767914943,-17.520352816746936,-12.823459399728375,-8.224642895948838,-9.963610210540821,-9.968173724727283,-11.63055035424518,-23.192527759988234,-33.17989491756677,-33.73394436665534,-35.10543355779308,-36.51848213422427,-31.481123983204256,-31.018186482407724,-38.58665574576277,-40.059707462146314,-35.92034541871059,-35.182469099979656,-32.05457187542975,-26.935916055465263,-31.38710821840087,-38.74487189970723,-36.92262037374011,-33.94248172115813,-35.01201795812469,-33.09853974798806,-33.40154238102692,-42.08087460103117,-46.753586219820235,-43.00973749137728,-43.08043244800025,-45.67824004893447,-42.87658125831198,-42.61371966788243,-46.73083710109825,-43.72661418876325,-39.67226889205787,-47.251120647372225,-55.20718709980157,-53.61015430793207,-51.30385455148003,-46.10358831772826,-32.752172104820495,-28.11204773520631,-38.38550039545242,-44.9074481860884,-44.19107576986731,-44.98877108976968,-40.92244380734604,-32.70340666525833,-34.75081917378859,-41.283627815881324,-37.68735106127921,-31.349414753674925,-29.53897664621809,-25.760510392876814,-24.983665785310162,-34.643109091138065,-42.24255960052649,-40.19266891837368,-38.959510758761965,-39.112000292249306,-34.28977895248681,-33.069883442647345,-39.008336507811386,-39.52039609884333,-35.08248925690158,-36.009392050332885,-35.90295216446665,-30.40592842568869,-30.691375996014276,-34.59397470818067,-31.5870163286349,-30.133844235125316,-35.38670189347734,-35.38611293793372,-31.950988790461036,-34.709531180317285,-35.56457694481965,-31.55921839918024,-33.26483430885464,-35.37822109793183,-28.362584549199873,-22.526656947814764,-23.537744096618738,-22.33455048292216,-21.524827081772465,-27.32635575632289,-28.86491312057178,-21.93154942495496,-18.982203977431723,-19.790694294473994,-16.60074790908259,-17.221991027876637,-23.88523736086343,-22.87559718992964,-16.056290493947916,-16.82699501637922,-19.917314046301485,-19.332724901259624,-23.277207514176673,-26.551008182709516,-19.000571897711403,-13.416640082997699,-17.638264120759793,-18.046397629814727,-13.367335336604038,-11.459458503336476,-5.184438321953941,4.373186818465507,2.113747260742381,-7.329141669327463,-9.850004903576027,-10.07737520872082,-11.201463284018276,-5.032170253794235,2.274951784332809,0.6079630643019014,0.2791040911055195,7.361933516582842,10.189176759623546,8.592059371444666,11.036186705840947,10.734552535658736,4.068786265661799,2.1560040250824106,3.303430521494852,-1.8377659656818421,-3.688457935619348,3.7592828848812094,6.148394171645759,0.00044652694779134805,-6.373780781178275,-16.542911876589866,-26.420599116649896,-18.817795735729923,0.4331990344564325,12.124053214706226,17.633721209692055,20.4950553727614,14.489339201012497,9.056318253976015,15.619367627050277,20.737022626927267,14.969188958816847,9.194674138661131,4.360575111757406,-4.340698713231112,-5.475941167912097,3.9295511502124674,7.751528980632342,4.560015916553279,4.84478733686826,2.891249191677357,-4.622416349873985,-4.8738317287056825,0.837239150682239,0.6445365021533651,2.0305086428062964,10.429842430195844,12.120599576272696,7.889624298942735,10.529106331347668,13.117455770861232,10.410218099933385,13.219108306105811,16.151592857852965,7.435886203657963,-0.36387709983106475,1.8810263697231904,3.63955658691426,5.379084154571206,11.62890266788861,9.855871355590445,-1.6407539461394478,-6.174496949023995,-3.210513328689074,-2.554889525929385,0.704510356917828,8.261323428096773,9.931298240163516,9.08895920737331,15.051031701893418,18.031541495389092,10.68611781145962,4.52305791544717,2.108257859406597,-2.638930241067191,-0.8896076303917126,10.830426061743148,17.911816614034098,19.829028214207174,27.118746558172926,31.62376175198749,27.399720844960157,26.16908814712986,26.415467731085606,19.529910090115592,16.431480138501435,21.51727722656317,21.60818196884177,19.236113862901938,24.28721201332915,27.790703094393216,24.386163670858757,23.13134437277002,21.71475284880116,13.992947382447694,11.013332807237642,18.063845308772596,22.260517600484036,21.296749549381996,22.998888943426444,22.025814346733323,16.169345107967384,17.330541917886325,23.678137322177488,22.782737160921364,19.108769711956185,17.96943940772281,12.195980985952428,7.528399282922081,14.537587047826884,21.813592692919094,20.710136346922724,20.679427923981457,20.2631468416337,13.15535776319604,10.418753088882212,15.565005059651527,15.555759569777537,12.11947178789536,14.160695218386596,13.237232823606487,6.653762949078431,7.125374205272377,12.374702435962172,11.28355231237719,9.591427241640943,11.983274874271094,10.495583545229813,8.908303077212382,16.507327024898288,22.91387301344053,19.34620780593713,16.38359503827511,15.84084680730513,10.279362897649388,8.932328658017608,17.41631922591439,21.510079118936194,19.33344799583382,21.092581163191575,20.124707022639935,12.850013149831504,12.749134841443741,17.0425855473385,11.98314604446236,4.666658330787895,2.686492618797212,-1.1984180449786794,-2.8531278416057146,5.798101831789639,13.441531630536426,13.061475159874838,14.109198353545072,15.329688454265135,9.988026104565279,7.4112370618727,12.091169184378701,12.702172354724919,9.335754699131893,10.155165143049166,8.138773418996397,-0.13025280464704903,-2.000457714348621,1.8371094623513666,-0.3676589050878627,-2.062782348309489,2.869387477560129,2.6999108103499427,-1.5526250310203171,1.745780472904714,4.312905828630098,-1.4026640850474985,-4.881089364804676,-6.877886170440661,-15.464314641129208,-19.986574505804782,-14.16561136993313,-10.365091769453485,-10.533095296912272,-8.783680188208374,-12.218126317252842,-20.818912438638286,-20.385033401556747,-13.347755714780309,-13.147690890401067,-15.67107088511831,-15.316775871901456,-18.113220092255922,-18.418900210063946,-7.953767622600532,-1.770377768874183,-11.573021821392478,-24.393690096791374,-33.7266859353637,-43.56894680757506,-43.574479614705254,-30.311917766320004,-21.859060653830483,-20.95070901624174,-15.312708605755223,-10.781053053822498,-12.576574353990011,-10.008433557609427,-6.818378491559006,-13.144788650815453,-17.03819188012488,-11.245995657067109,-8.314146074673708,-8.347363334858164,-3.2896536809558308,-1.721739435149852,-7.1044617663177805,-7.941154856614973,-6.83967502817129,-12.106580423880974,-13.27058951973944,-4.9993156691145995,-0.6486995535299125,-2.4793231067759045,-1.3990265450736357,-1.6096722716026517,-5.988194190958352,-4.061626452487735,1.2290533908644132,-2.1879497229358202,-6.227547352573499,-2.6460389892878102,-2.26406476451302,-5.5574395126947715,-3.0596557758014837,-2.82003210361777,-8.58415516705823,-6.65647212494553,-0.9403883736292202,-6.269356200306601,-16.133435665056204,-23.439524967234753,-33.447053856376066,-37.7049187720818,-25.960793791335128,-12.472309137610754,-10.180193451630652,-11.985850368494525,-15.805502538952432,-24.48695787864711,-26.42467307815339,-16.547199152541992,-9.990886814315466,-11.114648996573404,-9.954454033268256,-9.148393200026955,-11.255788116019724,-5.3325132207342865,4.67631740245493,3.57358936308401,-2.131363338460688,-2.291966301372227,-3.213567927951187,-2.08717247977144,8.541826461021268,15.169181655793953,8.833582105426697,2.165978780870518,-2.0895122536267947,-9.02535676591629,-7.710657221776671,4.550392967063049,11.809561044316156,13.289115605151846,17.88277491813963,18.222931070446542,11.530642046546797,9.942232219390993,12.14515524370204,8.782461025424674,7.424465209375268,13.695190949252126,17.12652507492296,17.714228244691995,24.079100792405633,27.191389019893506,19.96376018080465,15.08692989388523,15.071627039756914,11.277099122290156,11.410969121162402,20.299505400281056,25.34923941580113,28.944048663279833,43.22061297801888,57.52171441181278,62.06862540314137,66.95798761063905,71.0314756384875,66.28739771545487,64.54063664821035,71.18935801370924,71.56551932978014,65.86689344389295,64.72389848658054,60.976956569176096,50.71260361124618,45.39434065979116,42.75966970797782,32.8593723153122,24.299046968189593,23.327352049899055,19.187154728178108,12.713352131161804,14.184861547834249,15.622502048960886,9.289098153714637,4.526867911702594,-0.3494898529213595,-14.94630417598227,-27.772481573487667,-28.5661999578221,-28.50054128116796,-30.026913712182658,-26.519475984718234,-28.4062840769925,-40.07881562494981,-45.22221283403768,-42.58844718834189,-44.25074099908786,-45.1791053794602,-42.21446305291997,-45.85799968843389,-50.26883048406861,-42.55485640967446,-32.94476143241645,-32.26822955578187,-33.71957014727649,-38.07408803680887,-50.6492464793107,-58.52812909509112,-53.55377017349193,-49.477102096340715,-51.58847044013341,-52.040634142085324,-54.56991069425803,-60.721889052291104,-57.289614288744545,-46.30803648634689,-43.62894985550475,-45.562694879714556,-43.72779567447658,-44.99356063093734,-46.62625317917609,-39.151864836476264,-33.49384158041515,-37.54678037947275,-38.11820331640011,-33.50859039584572,-32.61802636831561,-28.392895665152658,-19.315651910939152,-19.555782104091,-26.3255778901909,-26.843725455009164,-26.088091497669858,-27.812823072387243,-23.76941722520172,-18.223842005910385,-20.153210257315532,-20.81499000125274,-14.802876821401707,-13.356225139756823,-17.78230208975382,-19.223254918383525,-21.370388021256524,-25.82647701347259,-20.829955907780608,-8.59924492481408,-2.5537962527563742,1.9006890266669765,10.3117870197694,12.079777260749923,8.368933844669986,10.525686050977052,11.786803580980134,6.186425980656342,5.289367521921873,8.919508409267511,7.114565209712016,8.016340227012964,16.87487935274256,20.12466042899365,17.037915322624457,18.985674061046222,20.929318947845836,17.785203460272275,18.471876648754517,20.0336781419879,12.767702043357081,7.1885633714702,12.577474208589752,17.34983607083655,17.58425769065667,20.86410916546931,21.190577212636292,15.105180901911705,15.768145076964391,22.349706183329214,21.210927628348024,18.190569968198012,21.42337402789921,21.01387395414737,17.690014719966186,22.333563439886262,26.600075159735802,23.950842057459646,26.350953525333153,31.415365933170513,26.700409124090726,21.648917050306995,24.894732310355742,26.185879545486454,25.732187237987993,30.178267071460702,28.8094746891553,17.347160873382904,10.46639749982883,10.651016885244303,8.72958588847573,9.241062677701251,16.109611793083687,19.21259300719243,18.17352615086994,21.86908795233874,24.13309146271498,19.16223151979961,18.244407137186656,22.988627797386055,22.79800338181328,22.966886684930184,28.608687244210422,26.844555347937664,17.490275776492823,13.785957023352005,11.088626770120825,4.320392278087365,4.819355389318581,9.238880118073887,4.169415587810453,-0.5033161480716122,5.597018282405761,11.909542075296672,15.954848408083645,22.844805476095885,22.377386896819086,11.458901000619438,6.087461813481888,8.38168981481937,7.085244233565833,6.254950171378882,10.567495920606182,10.462544654567436,7.61084133110957,12.249243621543618,15.874480175861297,9.837818146595033,4.787573754083422,3.4553958527106565,-2.0143620815092156,-3.42468194614322,5.063946902471333,8.709885718114789,4.746927599682117,5.357176866089974,6.363130994167706,2.5911186703045077,4.2118604550917995,8.063825588580206,2.328279347878527,-3.249001251973381,0.46465244248276427,2.6952797519952587,1.6632474273000222,5.252098207278104,6.25235797903091,0.2029721153129378,-1.1080089133179083,2.041433943855424,-1.3384134245062649,-5.824464964916773,-4.429512685476562,-4.9080173703270935,-6.482438200888891,0.21236829489051523,7.210924560397271,4.85111322723363,1.2962467629614514,-1.6277089172601833,-10.028451854434053,-13.63115302034667,-5.551232687900085,0.3893454933930527,1.1107884359474105,5.966219384704068,7.951831641026292,2.446631106378999,2.398793371024988,6.235720534378998,2.2023171980532923,-1.3346590657264517,1.7233830425563468,-0.23602113369539102,-5.464552045770087,-3.249523002427388,-1.4218973484474187,-5.2992966219306785,-2.6222485956290917,7.2901993576687385,14.601547497483901,25.248683130141213,42.777026547093755,52.26509324026981,50.36609361488591,48.061825980970355,41.89380692319044,27.90005626198284,18.670263244582863,15.136308072319398,5.701281430071644,-3.0328740401329135,-3.6920847144766045,-8.692834046744697,-19.588724674977875,-24.539608162371543,-28.608541670959557,-36.88057632348293,-37.88374496098914,-34.10860775628301,-39.270677512732306,-45.97507528668535,-45.14937723061299,-46.027983455476075,-48.392477956657366,-43.557254027043214,-39.924359915906585,-43.51188819620734,-42.698537100713594,-36.776415220122814,-37.110684627574365,-39.52282269924349,-37.26438034974012,-38.07877728113499,-40.33917064988822,-33.78211391652501,-27.77400070279623,-32.657885123569955,-37.151930060289885,-36.987913981828186,-40.39694390724959,-40.53806682804721,-32.46847199270849,-30.418715955326356,-34.58992056316427,-29.969200547653365,-21.080103722047934,-16.31834109537278,-7.936413052151385,0.25307351165715275,-3.40247198675356,-8.028007441753223,-3.404260861222643,-0.47794351080081443,-1.1030558211082175,2.906731060809334,4.41055338158885,-0.5243553038927682,0.3747695701721834,6.8519100482732025,7.802467431116943,8.30035211997642,14.29496701671693,16.561305054104615,16.500234050578364,27.00992243504034,42.71947800295855,53.28027001332403,66.35441819124927,84.51988200686075,100.80593702930148,124.70796131283261,161.97776423947383,192.19107023153822,204.63034177855803,209.40159674575548,205.44434365562623,189.75956533999513,173.18388728194566,153.44321513772758,119.54303444993283,83.65921946339506,59.653920043204266,39.458572954087614,20.32977071330495,8.164827428624028,-6.42847327308796,-29.802215490682297,-50.16511971903589,-66.24982592483629,-86.82142096558397,-103.27278371207557,-108.1754556379164,-114.80264130656366,-127.86658222946052,-137.90945355359855,-149.07529231890095,-165.24511545710698,-172.75504977256205,-170.88960891535993,-173.9480168258882,-177.46357398688917,-173.14669234332843,-171.10718627283453,-171.3141669771358,-161.99499124180954,-151.98182960769137,-150.70728415190982,-145.32095306552787,-133.6949013044918,-127.07704790259587,-118.86481685316411,-103.73907690218013,-94.58061067264221,-90.0598376278522,-76.6274045190321,-61.0321610391193,-52.89125727167554,-45.09923403649811,-38.24678156447825,-38.92895840685111,-36.13949050584651,-22.184564143863078,-10.413581537019471,-6.28133440315723,-1.951221991337822,-1.356416568954393,-6.528043888011371,-3.2436444945028793,8.719638781175007,14.701448781327425,17.850132458172713,24.865866939854115,26.50492567948902,25.264934175294876,33.851723829858635,42.97025253748217,41.99834544581099,42.06827499824669,45.822900973893255,44.82926752145783,47.0369934193662,57.057098625817474,60.79649572688404,57.56646792889789,59.3157941708119,61.13883016827353,57.63879782661773,58.8210782556424,63.75781428369821,61.987213505433914,60.08252078681167,64.93934788002481,66.37474781073482,63.13347151033765,65.03427851196672,66.04595701566171,59.38006859268913,57.0352788846953,61.822768681020115,62.38721568365479,63.15335843546457,70.00970354009121,69.68198738562967,60.511360667753856,57.087799883423955,55.99013909293427,50.15864511850171,51.41424774438417,60.09312705103328,62.33524919592519,63.052758558729096,68.33906353274342,65.42884377016564,54.67109270625482,51.573043900321686,53.962832103785836,54.99493418051422,61.305887789363894,68.12540727342227,62.30187436028128,52.759697941247296,51.52010091253891,49.88038997377104,44.00196175453894,41.27981939517495,36.17915355753351,25.060960180734675,22.868857312550567,31.731125150690136,36.00302086646434,35.980596064603105,37.792597380178414,33.70836281414584,26.584289283419253,28.407222861676782,30.0237764761888,20.946355247763996,12.883724339760615,10.739143912854496,6.7025042449516965,6.206434431181066,11.44908791901956,7.788910778061121,-2.7611337519341794,-3.1911211299176174,2.924462113452566,6.220220170077267,12.248021045264672,17.763646845973213,12.34874404520762,5.2208299021543265,6.9223740561675795,8.532279337185756,6.905310029274149,9.691136277008878,9.66647837181166,-0.3457325141322518,-6.4175926866256745,-2.1245492900594884,2.3269320678114376,7.303597394008154,12.699607380464924,3.770596300812567,-17.20188730341438,-30.374695592681142,-35.20143201025011,-37.844329494880064,-30.195071532767003,-16.788106788659526,-12.20819151652781,-9.608019312074237,-2.026547344168579,-1.7797669123708455,-8.933635471335688,-10.890864047864165,-11.875722530430558,-17.28707061607426,-17.65350575436404,-14.398508101414679,-18.53900099836132,-22.983797435276323,-18.568688738129183,-14.733271495905196,-15.178112970968588,-12.208336416478302,-11.864196345949406,-20.118670984639525,-23.72304620087086,-19.134137773548517,-18.853066495334517,-19.936439762068787,-15.390413820450766,-15.680475983963394,-22.244802961025673,-23.123622278312624,-23.4373509982561,-30.489437377598385,-31.93719227441826,-24.91184559616197,-21.690903610458985,-20.34437853863404,-16.994558012149614,-21.31663387107944,-30.311294190963828,-30.1454179038995,-25.188985684866378,-23.707238524766016,-19.655911285386875,-14.407794705276208,-17.0572693802899,-19.8538280976076,-13.801920726280535,-8.801499153239902,-9.245204830113003,-7.302411735990052,-8.470826041682317,-19.41358006139208,-27.293524090207427,-26.630053176931327,-28.310476380407472,-29.952065697500124,-25.226976313635014,-25.02118576425095,-31.119261397589508,-31.00573046616374,-29.44177959727457,-34.506143040875806,-35.082476637624914,-29.080910951024194,-27.84642029018705,-26.940662369939552,-21.390332223965025,-22.62858857113978,-29.3570747947033,-28.054173846256905,-24.08552988055281,-25.95336855192064,-25.021345098979687,-20.700393989220878,-23.0533458540715,-26.493944015184695,-23.8073464881342,-24.047738654480852,-27.194368164749207,-21.478276870400943,-12.965304220726823,-12.770476903981653,-13.462055337019118,-12.161763636029846,-17.033268948147025,-20.627211942384452,-14.659481678590778,-11.558488201714233,-14.83484446956163,-12.522349664608859,-9.11091407535042,-12.521939722047119,-12.794267430497216,-9.765603039630099,-14.81373291164341,-19.80041078915099,-15.045815762257503,-11.652002581573676,-13.195998331767568,-11.322056277647507,-12.398924865232457,-20.735988444508536,-20.96106408401174,-9.561500176599901,-0.19639952199124466,7.337195994314239,16.69278935421655,17.280678924261807,10.183871095598356,9.961227848792745,12.844433017396758,8.999969129800224,6.574371377190669,7.96939547649119,3.5403302626416955,-0.46755864489673116,3.4800919060375186,2.9588735460576787,-4.430659613071848,-5.301341362154334,-3.4155073921448516,-7.075331834780663,-7.340439530232505,-4.77173162712135,-10.347607975707517,-14.623427770925096,-7.338258141938866,-0.42115025717821264,1.534901262103609,6.483031892763428,8.164742764512248,1.9172847568065983,1.0437264248289282,7.360832310239238,8.243023121421274,6.003591785433779,6.9759060398667305,3.4868826996082465,-3.089422373815328,-0.05613365065560316,7.092547852698343,7.051682984556306,6.939868553606522,8.603320343254605,2.463692688882997,-3.1085355692402867,2.546222244470136,7.686706299436248,7.651183448069066,12.490034664437804,16.391546375227826,12.353538793826793,12.435460673345403,17.751152849998128,16.278467932659762,14.070579117974207,18.44975831734426,17.921473725607072,10.792251804272492,8.642298629159388,7.976402653011907,3.621292501156309,6.381203775155988,16.42967673265281,20.28152467791314,20.436872603714527,24.12191081820606,23.043337909462757,16.932444871510395,18.377367658900372,22.962186758813864,19.384396905756617,14.684957466221626,12.334606573573806,3.1568919731091927,-6.641420315859006,-7.154505874795365,-8.745463104268794,-14.366446315611036,-11.60458582159832,-5.200602351186754,-4.2710081336493895,0.7065759088040615,10.244078047749834,12.098506309181614,11.277248558784764,15.17004183959673,14.454174770627315,9.695889288129234,12.767909477049221,17.642733704935416,15.064088563576643,13.570731203250137,14.914021555532782,9.983779200287817,5.485764684987535,9.760265316956154,12.158547631807586,8.818098480098467,9.535588954916463,9.81874755377585,2.2843921882641163,-1.4077282936893722,2.7974673265518066,2.6174065588670485,0.8377703008852562,5.593873988814624,6.790252651435351,2.49272322637876,4.930957361191695,8.409042138158952,3.8343310617538218,2.089490710461652,5.634348844670748,3.6931125851984774,1.4984455478423024,5.135273228853668,3.302369191746353,-4.454797101499972,-6.219968518923741,-6.591472667129721,-11.944857530004846,-11.84602369180626,-4.764549666109291,-2.1586081491207154,-1.0475908914903604,5.075228720941173,6.243209037695586,0.22550304755841077,-0.16519841552120784,3.1222441478132743,1.4394040057775328,3.1144194296932817,10.433243415747272,11.622854267136965,11.344410631808271,18.932448675824226,23.083942566243998,19.193831834020358,18.55356581976635,17.844587352722804,10.722676847184871,7.710461707520532,8.452287279478153,0.810810424044075,-7.5371923899568465,-6.125264429285673,-4.046918177408742,-5.057605103420749,-3.5788594042705753,-6.073200842482372,-14.532855683908707,-14.288458352826156,-3.9657614793183904,2.2902824266326403,4.460822604517089,7.751953640943489,5.398006718522128,-0.3574950044252101,2.1093354618437283,5.981692048511275,1.2550662991003434,-1.2481941415112139,3.5108993882975343,4.759964822128282,5.295126513791008,11.41092993344889,11.828771283205423,5.565597753813846,6.568753345764564,10.376920054536116,7.5456080640749565,7.701174388025143,13.861972470144524,16.531420102737588,20.10505872729165,28.361340837247592,27.731757678697697,17.519798895377818,12.956562708639083,12.573370903474078,9.07026512349088,9.434714806485927,12.035967219855614,5.332320599924817,-3.6217240742521497,-3.450529335611507,-2.0762828826550663,-3.280820806355315,1.7549064546372983,7.165705247272106,3.207569652100264,-0.018015021886627847,1.5744347201883813,-3.078658727119782,-8.37833155818672,-3.60412889552326,1.0282711330471068,1.1300009908018647,6.142632717536737,8.927457071465556,0.963740699756686,-4.7771433497617,-4.887973174768714,-11.583981958143644,-19.32582713437015,-18.004185767806057,-16.07965023063391,-15.46437312058615,-8.02370553152802,-3.071268517858857,-10.251713716096695,-17.126825003082786,-16.85464879415627,-16.76044198575552,-12.51067527839619,-0.0059540993389290975,6.848676091064262,3.588152277994069,1.5696585238282754,-0.9004309156281723,-8.640787491051581,-10.39657238447095,-5.4055614338715525,-8.324483518395674,-15.544584886654313,-15.994642710073737,-16.66728542346819,-17.814055856499905,-8.34982731193969,1.8093434077355512,-0.3367770605320879,-3.21939680297781,-1.3591646188838902,-4.945472061493602,-8.718155475868256,-4.4711286625118705,-2.1440795303206777,-3.206785272341829,2.4896100992082184,7.395261292921038,1.0663914643467245,-6.731651335744361,-9.079399271784009,-10.498827051577894,-5.620531079632079,9.006511100296501,18.07256108456701,14.47255251677613,9.039683530180097,2.671674886779993,-8.027171232193615,-12.337456985121232,-10.339444376967977,-17.517567385317907,-29.450488289203026,-32.480033965609,-32.38304773185118,-31.451528868322306,-21.542905860588018,-12.257288882920857,-13.695786469279149,-13.137465471539944,-5.848985553866367,-3.010257456990041,-1.3315921792175107,5.134229086201703,5.91986741739134,1.0369083504252088,3.5909754191523073,9.382737632858252,9.102308537790766,8.716386431278982,8.198314345966327,-0.3946768722003795,-8.09630908893817,-4.043494143382479,1.7035001838968569,1.5118236459089145,2.3585403451124796,1.9510502916992554,-4.963081297765077,-7.4442009984609365,-2.4657791588834312,-3.2773299935904374,-7.2641032047693805,-4.1695146248823765,-2.7077885096776497,-6.300439627992472,-3.9384865317766744,-0.9731907275549172,-6.233122450130175,-7.6421740364632385,-1.1153785192308758,0.8756570713334259,0.5644894264711289,4.132552771755167,1.5220747184128176,-6.739224900167082,-5.9777859471161845,0.1544647093575171,0.051183012257081995,-1.6293348459288577,-3.0869967551855413,-10.810846919167915,-15.712046753739624,-7.470597698563315,2.0846062877515585,4.198634904467614,6.077421929039881,5.077895365401459,-3.9361019388797467,-7.802319826387526,-1.3762591566926003,1.989035288631237,3.0265483766642602,9.473915644641538,10.824521047859786,4.239091135543017,3.5763063233677066,5.264103627300004,-0.595039521066453,-3.9929774519386765,-2.0867893509507134,-6.513097441394342,-12.06666402431153,-9.154539656336375,-6.665085043330726,-6.992680793777943,-0.450866883077762,6.225185146025592,2.667334789615846,-1.1130805345106922,1.1732290255672229,0.6687718496476956,-0.1879706715904494,5.209198502850541,5.982390759386448,-1.2850725099322653,-1.8636993449621235,3.682441593739355,4.00521570316284,4.688602942991831,8.241053386403475,3.5577336731968225,-3.8659466543078738,-1.474878062009348,1.9820559438648861,0.9876531748018127,5.465618717968178,9.94525982305516,3.8338991890090806,-2.300607565534915,-2.7399768789805288,-6.5748545930170295,-8.701546945663386,-1.7623258101754968,1.800608677024181,-2.344379375356053,-2.1459972910436527,0.1113396498842868,-2.961756046649921,-2.7232108911617905,2.3100771797254605,1.4737736139602986,-0.6930591386801234,3.8017936315220737,4.699757992642406,-1.7539294139134056,-3.435162103339109,-1.7275989374792076,-4.543840440472911,-3.302519276002123,3.7554312599145003,3.6190664251838767,0.43881221955195215,4.942032948251542,7.572252032949539,4.485890105842649,7.859107173432269,13.891665731932774,12.132026042731564,10.263467439253596,10.486799067921602,3.795125091151328,-1.3427519627508322,5.183349347103227,11.095702582295136,9.10320261275197,7.076098957318404,3.5763199578943397,-3.1026376558011464,-0.9798750062915287,9.93189423020674,13.358836161393498,8.566128669209833,6.378737638952247,4.794229416975224,3.56378752917008,11.3607277453665,19.757155735308014,14.583083829838666,5.618889779961004,3.5510499549452503,1.730978516509,1.8603387502572413,8.698248115951852,9.107406559378875,0.08425324491656871,-1.4736676291524469,4.5144045867432645,7.045093650335195,10.507191319913986,13.661136062959214,5.572461410049639,-4.117515254080145,-2.170228844364949,1.1507225433931279,-0.7631446582983261,-0.5352320139029267,-2.800077883294958,-12.895228732860147,-18.69018340234488,-16.428602208810275,-17.343063408427025,-18.589548087942656,-11.023334796827095,-2.6746335868659927,1.805204868200103,11.17579567388686,20.32788762354266,18.274835796963288,13.917589011233396,13.633262572385547,8.695390178665203,4.368081529160171,10.720863768197766,15.42913014422177,10.65318660572887,7.251393324510474,4.048039001592349,-3.982646240446204,-4.144748267566963,5.057608579485781,7.844327533957728,5.8368915620636574,7.737586921348438,6.067884939486823,0.8294427637908957,3.4989570374630024,8.10479393642671,5.410402063053268,5.595175826464745,11.467624019268996,10.744223335845268,6.2020993890658085,6.961630609842221,5.90875526255711,1.0991893594638238,2.864690248005931,4.856167950837502,-5.229150624429979,-15.891319225865349,-16.05193096519893,-13.880824665213124,-8.885975057806395,3.0485293123171715,7.335389637638024,0.3702543090694834,-0.21167725920024627,5.565042786968513,6.6592767033213525,9.536134360801464,14.712461836697601,9.864374264496577,1.7632414678223847,2.654876596847111,3.98524146995102,1.3793114234600619,2.622337116297373,0.6466344638913053,-12.274539991165014,-21.645725826903114,-18.967685514979657,-14.567842722222924,-9.864822526508735,-1.7182069791212493,-1.0576895200602316,-9.437388767828073,-11.367699775075977,-8.20687434141211,-11.57554609892285,-13.23754746610389,-7.446351801612156,-5.246213720552672,-3.6259992417169213,6.666614871601558,13.429789374773566,9.785122451044895,7.998954338045733,6.096536379489292,-4.967936346418151,-14.433338348742865,-16.845562086309084,-22.49723008834671,-26.600036824510305,-20.594552592871167,-16.955265364709632,-21.98226554897822,-24.64116181415154,-24.863802498906594,-26.571669652908632,-19.87178327053003,-5.607372771382381,-0.5580691762911628,-4.3592022716733165,-4.326426177887897,-0.9108822597230519,7.4256281136377424,29.79965466021098,57.772622368869094,79.30192159772909,105.48672450774941,144.82490772658235,185.3999774516795,220.57756885743146,247.50187374297667,250.92341330137918,230.22646012847807,206.81155659766566,186.24715150740394,162.18913493520714,142.7284086585617,129.47147528518764,109.17501029290024,83.57009658919034,61.866358817650635,37.12757253346112,7.212970716733828,-15.171278195924481,-29.849809934825814,-45.23721548542203,-56.401545675541406,-63.51493872816637,-80.73036354988022,-106.20328741083246,-126.00761314853074,-142.6484362735429,-159.24351322470397,-166.9954709374596,-171.56697072329754,-185.23388828086587,-198.63598156990355,-204.52258229292417,-213.85444825019206,-223.96840615972076,-223.90389583124465,-223.0417209744893,-226.01380412259303,-219.7574634733574,-207.4886083431093,-200.57668233515895,-190.98026125031063,-176.41216161410264,-169.68368156519793,-166.5076293265926,-156.14560125123984,-147.61622761610175,-145.3358226622857,-138.82459805367296,-130.54647486426478,-127.53911913462322,-119.85596511784871,-103.65123258190256,-90.68018475578846,-80.26066645091427,-65.36182297118798,-54.82211239524904,-51.74916209430239,-43.65844705522666,-31.795839503094882,-25.670374225531447,-18.337265389321068,-7.68241486147169,-6.584580846299258,-10.892591577033414,-7.370252783858854,-3.223405932471206,-2.530596812048558,6.346511885486724,19.06497102089559,24.424657042869487,32.193125034760754,47.226301176211344,56.060191999269556,58.791633507170175,63.57223694883461,62.39436075343795,54.85159488599861,56.69230138043677,66.70657409264581,72.89075090192512,78.89059727581797,86.39910914646109,86.16536236310901,83.18777299929349,89.08688163496127,96.8740365307144,99.30564859737063,103.81666300255054,108.26212609026292,103.76215650413064,98.78826164141111,99.261961952537,94.87997888652419,88.33999792330974,90.55171523839475,93.11302402351876,89.85872737105969,90.40134225593857,91.14864695324545,83.61124838273105,79.85788136248183,85.85456196376015,88.80757367509095,88.49282596091487,91.78828088735065,90.40408172938487,83.44086235656447,84.83252953632336,91.54939404469226,89.89810043262881,83.72376664041947,77.78643488511577,66.22463652336788,56.295080662899096,58.67154178024171,61.814909546238525,56.16490934770308,51.56778545125741,49.50158305612523,44.06030510199971,44.5460247115669,54.07104310176871,58.290329045864276,58.050315830581724,64.35456931382325,69.21772537426767,67.00835215446793,67.32330102307733,65.75305039677349,53.63207297759461,44.18378445597884,45.1864974555858,45.1222506471344,43.22253224636007,44.220648678408566,38.676778468767154,27.067936285031724,24.805226793109785,29.274466972544445,27.660079058516118,24.04749158856077,22.254638030222992,15.692109847609693,10.411013189757188,15.563553520675358,19.456400133969424,13.489722928074137,8.018891484553013,3.8233894033372686,-4.871855851220849,-6.106126656882466,4.687526390445757,10.617972438753291,8.96344585525088,8.681586627567432,2.198698881562817,-12.04201088763562,-18.465698889267188,-18.50344674807942,-23.23644245397071,-24.580953404313878,-19.050353281781646,-19.78703223688695,-24.96016531327611,-24.186661222392306,-23.89975186316941,-26.47918771038971,-21.518585618848952,-13.675606121972175,-14.035657202259229,-15.751216487844005,-13.948022017295877,-16.36884111386641,-18.626553856799422,-11.661124571719128,-6.070902327694055,-10.700610459180872,-16.665986417943518,-23.017299860185492,-34.381388464004594,-39.1014267345853,-32.470320289045,-30.101699897995708,-33.83103099297467,-32.69839553227116,-32.6455055353799,-37.572015998484154,-36.25439881768125,-32.99819840593631,-38.216201156531845,-39.827505293265034,-31.99789276644554,-29.358676812335347,-31.869837794847484,-30.650742057831877,-33.638311221614444,-41.085747500781075,-38.013549990314644,-28.637740040219292,-26.91394947157961,-26.964027340007636,-24.654694272978325,-29.707367553250002,-37.41528976617755,-36.1972567985259,-34.60731307159311,-39.977034082539376,-41.89221644073629,-39.559359747732834,-40.97929012899493,-38.23242135267808,-27.87114846525862,-24.38332165220751,-27.22210467310844,-24.478904509010455,-23.176830832443642,-28.25824569943473,-28.529359134070912,-26.61717668451822,-30.97580805095272,-30.45198782562687,-21.481878347314108,-19.23855294797325,-23.391451544292515,-24.54375544777229,-29.746392820983615,-39.87131508946571,-41.219036252097695,-36.271229871603225,-35.980910723884136,-34.143942310668045,-27.362760620951356,-25.990487765568208,-27.065202098666035,-20.2798453787473,-14.487726791095628,-17.886136178179004,-21.592084509600003,-25.987316205439168,-37.6045965866513,-44.505043202872784,-39.43514999992637,-34.51997525503791,-30.670279658029216,-21.336787352599625,-16.316148346469355,-18.86031391369604,-16.63034459984575,-12.626420472679857,-16.115942772107196,-17.720389349954466,-13.109361075093265,-12.068814765187746,-11.027020343061729,-3.6388284329431646,-1.3605899249478364,-7.452065301141733,-9.39436751230763,-8.947337227249589,-13.807667862113856,-15.045396339825707,-9.856561226600418,-10.514742103227947,-14.951074723839042,-13.041380618112825,-11.96252174587112,-16.016001177550713,-14.63843822363772,-11.124144491927314,-16.422608827291008,-20.586746172435863,-14.800805090638153,-9.360745948665738,-4.923030540774058,4.96924174420972,8.602698177353254,0.7371636078636383,-3.3085621751956396,-2.3233814325473006,-5.927150675667052,-6.8564568791105,-2.3078868043081053,-3.823525314301126,-6.451989248965794,1.024520078547281,8.135619642310116,6.897378992102063,6.592246536054041,6.76431114741916,1.8370525043575998,2.199244883590156,11.311805921157665,14.858593980841773,11.974040569716173,13.263775496705449,14.202784194255816,10.496441705176512,10.931211376619682,11.592318765439295,0.8496899236462814,-11.497406430862913,-14.651665799456566,-16.00994650774286,-13.824009245402513,-1.5672502486810158,6.394934160854461,1.9104798925943414,-0.5536214458721636,2.081016709339454,2.600180224165028,8.134989162715362,18.71673598166052,19.492940467765333,14.161454041492458,16.426206108329023,19.779739409548633,17.392997322643197,16.85647431422347,16.104322439425836,8.851710943476327,5.652476996027529,11.395872264543373,13.500756116341519,11.808836729649432,16.470764273117734,21.51887150925979,21.11072985707448,23.8514953422827,27.21806836686111,21.480073488218764,17.180176689165062,23.45394281070442,28.456897838287848,29.858127693043727,35.914477165850556,37.59618836519164,29.37633341454928,25.50736889361189,26.689169988519833,21.29106624550009,15.443653070762213,14.179576536863822,7.740731002650762,0.5029894321808039,4.016530832875122,9.91534247313272,10.437788609792841,12.569052898716166,14.556436707923469,10.371964288762172,10.012206546266462,18.61260787394226,23.525680753151818,22.993059902396705,26.286127669276123,27.90123899204938,23.101215314565504,22.375302595909282,24.572113891188124,19.239433730275096,14.869900313079107,19.038506564238162,19.521596268417884,14.851106567180633,14.975848393782325,11.918580186573438,0.2959477633918324,-5.29435870788329,-3.2169495867347395,-3.6261112114286433,-0.0890132074832708,9.541186465085694,11.223656482032501,7.904777629868638,13.539486694045143,21.507324093796715,23.37473318061816,25.76525363098244,26.231964762526715,18.00534539535851,13.59950595392861,21.692914154576634,29.070228759006977,29.90481659140177,30.121215545671554,23.868273836558167,9.800757513783692,3.773878490339895,7.114914639004415,6.619418479362832,5.275752878147532,7.748411745224869,5.188733401215706,1.6713071795147925,8.370386196344384,14.90902634730154,12.59629665995172,12.44106669588811,14.88106550390736,11.671636755279025,11.734100993822,19.164201545382,20.144627966208233,15.241544641640058,15.437820931705227,13.796135713278707,5.429559777836663,1.4203043373155833,0.1665417709502447,-8.468161332086352,-16.224169142583495,-15.757340381705045,-16.323197109531577,-17.629834676130564,-12.089257937561136,-9.302280378062974,-16.221750770832138,-20.96827627420218,-21.791515036178478,-28.203383429554705,-33.59663481060447,-32.1071681002862,-34.19700160294677,-36.85923372902211,-27.969812349113646,-18.083441299860066,-17.005770194196437,-13.815402224753246,-8.9162677812052,-11.710073791362683,-12.973658507915207,-8.234265143986939,-10.18950512219096,-15.829729969012003,-12.802981903414844,-8.502203501329491,-9.882625653327455,-8.233293102873914,-5.199179518080186,-9.457298833705297,-11.97622358702954,-5.557414800158966,-1.494787124699808,-2.2386146350783376,0.2637258199560335,-0.16984731913917578,-7.175950175204013,-7.970692215197929,-3.592430074646697,-6.941990353224241,-11.278046025875371,-8.208608796578666,-6.603156539688322,-5.217938317075265,3.7638338021012974,8.255433396662875,1.1823413338762707,-3.507661053177336,-4.254964903226557,-9.817491763662227,-11.628348955625604,-5.003547219857124,-3.0288175915940845,-5.576796911483529,-2.3834489612738485,0.06705068447734708,-2.7842801184499884,-0.6737543685648022,4.0321910342609835,0.8113195999770269,-2.2029972913513314,2.531565619605965,5.003768186913479,4.456616220404905,9.64093200888022,12.557636079686729,5.732851075592704,0.5455850044314572,-0.17192207395671832,-4.103696995645559,-2.955592276468998,7.931335680529907,12.030819105138562,6.289486389855398,4.30123144676917,3.249293220703017,-1.173817586919067,1.4860605394963287,7.072599587678109,2.925965903035693,-1.4578672903854466,1.5121785752271775,0.41616411735293,-3.7225138768155372,-0.6092224991045079,1.7142427514183207,-3.7058640869981527,-7.0675353156900265,-7.979647816370878,-14.107076835754759,-16.694288360224444,-9.207674047253985,-4.011802934867854,-3.9426574138228174,0.8237529187365624,5.143365304282154,1.7448619713978566,-0.4834569283980246,-0.36867342691148486,-6.037313128934957,-9.060641954223005,-2.361225435981856,1.3050449962968935,-0.9709598388872336,0.05966530894822886,-1.3880547009320963,-8.604723833167558,-8.897747202780359,-3.9844055897290986,-5.3490416141704715,-5.7165326565853105,0.14007232475839881,1.0480779780779808,-1.7565085145674992,1.231932330357318,2.274921133622053,-3.21774333261969,-3.182620598148348,2.0475903046062163,1.4862337118235822,0.3234337204310705,4.027563366396785,3.40577356386567,0.9319074609433076,9.110148361875428,20.601964261173332,24.18485981053991,26.356745508612363,27.613988319259494,21.222502693030716,17.92767575053673,25.050691674802973,28.09785791177035,22.980277220300728,20.46433578375992,17.938701461807405,12.925218232382342,15.491874337996013,20.35323227713803,14.079213667639701,5.235886748265066,2.584467716679487,-1.7111758353862931,-5.370625870708385,-1.279871161562854,-0.14907004284227388,-7.359043245965584,-10.81782365684325,-10.471002106186823,-15.57515233889903,-18.929899320007145,-14.847164858578275,-13.707644253139126,-14.43681738509082,-6.6779666523233505,0.8973290771772147,-0.6143166906635997,-0.4982119296714034,3.118594777052144,0.4361978694406119,-2.2124172206579122,0.6192297069141186,-3.5785698874514553,-14.265312651308056,-17.69641636464284,-19.20482225207847,-26.154344955345376,-28.442789524910925,-26.940158511125517,-32.12031910872544,-35.004886773039004,-28.264172468502537,-24.233335583178132,-23.822643061955738,-17.09800170583489,-11.271622591413358,-12.278264641013381,-9.116451736344299,-2.4614430074300104,-4.814723480535488,-11.732059328414836,-15.762988193119776,-23.96235875848962,-32.759250321050544,-28.42086540781832,-17.28961717158691,-10.716676798154563,-2.9967518059844247,4.361485779973682,0.3704196759665779,-6.790311212707349,-6.774755967622426,-8.141970544168913,-10.292408484958035,-3.0612174840524258,3.5969873164452273,0.3548176462359032,-1.2740906375870749,0.6889598133152863,-1.7343739739839095,0.497947145035902,11.848610468422129,16.39499754728534,11.293668489399066,7.729699279401309,2.2866307065057385,-6.8888434217925845,-6.7822226778470345,0.6383753236866037,0.5746847393943371,-3.1222049542839874,-2.375818467949576,-4.337866667219055,-7.766782645293573,-2.9451677202826607,1.092400199416435,-5.322413886947088,-10.566513007029261,-9.889816671196279,-11.723477498324261,-10.47827308161302,-1.683859843645687,1.2304550096128255,-2.075358410762388,1.2940188619778554,4.565462608787181,-0.8281192719530135,-3.664368763000924,-1.898560324842608,-4.2876248740053935,-3.3465281016562365,4.946640223773054,6.142384914781299,-0.17578132163748572,-0.8302044056008776,0.14075968870992212,-3.622215208029184,-3.3380379643053084,0.7280633258700788,-1.0761526105975425,-2.89261966213978,1.8205482281738359,3.157164015603244,-0.17606755497784565,2.235320859027483,5.352636354243411,2.3113655968459645,3.588290755543045,9.724980763670684,7.972809966206688,3.2038670673352208,3.7141452717381567,0.8477276274215162,-3.821841246636954,1.1944055459473302,6.291668997146862,1.1709912395311106,-2.0061419923325916,1.0211826057834539,1.2885837667024753,3.696489039936361,11.314297671689042,11.155699656871505,4.322139707941505,4.2056018104635715,6.113300739508962,2.896735350643363,2.4185418667690266,4.806527829648564,3.044445896077275,4.278890360161065,12.764286251307338,15.777427236127867,10.864392208392267,9.062564287825754,8.063444145655751,3.740858374128274,5.954841342893197,12.712354889819725,10.664028426485853,5.879191529191575,7.699669657661281,7.129608847814705,3.83509461832307,7.985495516695352,10.912348086004828,4.64635157341566,2.452321953775172,6.086674123591685,3.422724159322601,0.38561474576871,3.552067031336424,2.1446847998764023,-2.257346880179699,2.4838356377947277,8.651983930814849,6.625833400633795,5.080049195030097,5.933411860934152,2.0207593767734737,1.218123719010777,9.813801589716865,14.501721128168272,10.594753302774128,8.93876886630547,7.934115544288982,2.6571483015859068,2.758995205026351,7.826740907504819,4.92021817321757,-0.7155715537318288,0.7278566565038656,1.0904951859211576,-0.15293730957452722,7.180191421095667,14.115842235887975,9.771059876226019,4.5275499151405745,2.6281046487310773,-2.0344680330458775,-0.48354330469152584,11.936578785226864,19.14200031732237,17.097781741380008,17.1070101335307,16.78596416375725,12.69439356002273,14.619316382358132,19.735656449570577,15.072669236315026,6.40519272671583,3.0990715434456337,-0.9092893592803009,-4.987271093076887,-0.7595607283429913,3.331118946324678,-1.423433901843218,-3.795053838811222,-0.4129415022434073,-1.4684685305353198,-1.0333215030020764,8.386308190714583,14.971925656266786,16.31143506247287,21.580929258489185,21.64738946529595,9.758862418733,3.1311044879708922,7.861115109357986,11.627616475020558,14.287687414728325,15.474661169280902,2.6952724212181756,-17.560250294329666,-25.66992198314609,-25.253286933824025,-27.959391838570678,-30.14087083971994,-32.48025485185693,-40.35212149503998,-41.45274407499866,-26.031553310806082,-7.858129381467906,4.733032768925915,17.483110912218407,23.606329173879967,16.288595287533365,9.555521439813807,10.41617037523721,9.319985846501616,10.247998235273714,20.275643265723556,28.13531222660161,32.924985202107415,48.43900104870079,70.2046641896577,90.08424292734864,116.73888371572941,148.01179926356969,170.26711764606284,186.58476749942008,199.66726515455372,196.8128401328861,179.8557298333177,163.50331422771794,146.23408712515797,126.5213861465392,116.33472539726013,112.60172174354913,100.48308881830384,84.66738842975319,73.70302883076644,58.47988796198281,36.888066355114184,18.859828122549196,0.24605059681224084,-23.363620090436946,-38.533256574231494,-44.29641806131042,-56.684409155298,-73.68681217793986,-86.06265990872399,-100.80083526745932,-117.2026110273154,-124.73974788674414,-132.05930138953187,-148.72258498648148,-163.35365409370525,-173.06693046564402,-186.64117747476143,-196.12366465340966,-195.0166353493795,-196.38268986955552,-202.9929069662802,-204.42079206002262,-204.56302051127003,-208.34962729196002,-205.96959703831413,-198.45212860030088,-197.64810621677051,-196.65598288591812,-185.5780046521764,-175.03457863110467,-170.37559606211502,-163.61473033797617,-159.53840671381337,-162.78335204823247,-159.05251624710607,-145.4648473867603,-136.90710541213883,-131.1181386632571,-118.90952319301977,-109.16770214609326,-103.66143468516212,-91.73365776352477,-81.14630940532142,-81.30328431880444,-78.65774626149198,-67.40674274191488,-57.29082178936564,-43.88260567900151,-22.99594984338205,-9.179040747016016,-5.456682358000982,0.18469161896930375,4.489001468482684,2.5677414678266914,6.793422533925675,19.661049092740424,29.156216484060703,37.44238267889177,49.625212143102935,54.607102928375994,51.24524869426058,53.800467255607124,60.445981906325585,62.47238805751364,67.60589188121354,76.46002558429146,76.56403261316032,74.06585660492277,80.33200576005584,85.40730976006068,85.25704198708114,90.33722663475567,95.22587950781178,91.96476917802374,91.71386342421081,95.66376431012266,91.6510107484255,86.9876232391305,92.39981204778942,98.40643906287872,101.18183087222799,107.0894637500279,108.40763569850412,99.68227021894411,94.56589694646073,96.85491324066766,95.01512582372624,91.47961192098055,93.43833210273152,92.96939458965184,89.48112649710839,93.9284725012532,99.71047283646378,95.67252090673412,91.49163442685136,92.22239532500802,88.76342395847567,86.78124225610408,93.5831479060503,95.2913763191572,87.46265737254448,83.42255192811919,81.04075004057924,73.82461602309233,71.7149377903175,73.06705967794383,63.9294353347982,52.4567717775561,52.02915689764107,55.19336886526475,58.236470405718045,66.21036811531486,68.97655886522708,59.145433434491125,51.40034941829377,52.21759370732155,50.949565512944666,49.05783917888701,52.85260413282102,53.56615796428913,48.973898218108644,49.17691816660641,48.76045068568781,38.10323950301664,28.663622225057026,27.992485803691704,26.280633957969094,24.78953989348277,29.115785481063853,27.601862658124183,17.724067597149684,13.56806931481548,12.350222998767022,5.326029980878663,1.9913286858083414,3.960171947153636,0.6497684799511028,-0.5947662288724926,9.013526995832283,17.40204477266129,19.611498035459178,23.03344914091565,20.513778193837776,6.205325441368312,-5.3569672545243066,-8.159539926299352,-11.233137520969434,-10.373077461591231,0.42144238345403906,8.117921635083404,6.518037713486356,5.261245647584976,1.4617914321682566,-10.467624445780974,-17.0050917516262,-13.228220597537042,-12.571443252138875,-14.669087897318368,-13.029227790328143,-17.200775191339112,-27.247363520023416,-28.248511551758583,-23.880036555803947,-24.779408676762156,-23.37356322313203,-19.560584487602394,-25.463202328437742,-33.63872217820598,-32.11350472767603,-28.754759835148516,-26.338655184079116,-18.71423387059674,-16.3872205881969,-27.540477940371098,-37.26471477420179,-37.874949694491654,-38.26657131742071,-37.06353696998659,-31.556993037137374,-33.51701022645434,-42.93871407173912,-44.876271926662774,-42.244850104090546,-45.495799318607425,-46.85730460765452,-43.39290702101557,-45.95205581365617,-49.712650245750474,-45.293444276802575,-43.12580716104614,-46.802339325149326,-44.94486795654926,-42.706792374787625,-49.579860324765455,-55.37760610512777,-56.39089847821264,-61.594056555490305,-64.34869024477872,-57.271022832480014,-52.76533643133672,-55.21207872224569,-55.04967886023392,-55.7319584928875,-61.521264906976334,-60.46451152028309,-50.96517672680902,-46.24646884677544,-44.85076227764555,-39.134129935553254,-35.661194002686855,-35.11498017055066,-27.63271594656461,-19.926096408178996,-23.932949444115394,-31.072582392087053,-34.20353534209103,-39.91573734935925,-43.43358619109351,-38.336397306534245,-37.55894457447556,-45.16352592418111,-47.19415027889296,-44.46794553340853,-44.54386361822695,-40.333609999460684,-33.709144144376,-36.48744809272979,-40.14646032768738,-33.00807793082789,-24.726393761014112,-20.925223570160284,-15.48789827810196,-13.78320243650357,-19.424703051850045,-18.7947129613762,-9.469654968505989,-5.2681412752375545,-4.661472766169916,1.0700668865474752,4.684474765582854,3.6684598756437516,6.452828601722783,5.994828461930044,-5.99162307793773,-15.203468042079944,-13.27293204532616,-10.244945943837841,-4.948335480858438,7.039802250715848,12.42776758106676,8.211843253359461,8.9700868804809,12.35857370225598,9.511283058450879,9.912977360355162,15.14515698435299,13.05947993554354,8.617181420144695,9.877347576688322,6.247369588382757,-3.65081391009977,-6.591034686688722,-5.876334103404357,-10.852375360372353,-14.236589868206996,-13.351280315098014,-16.33255454811711,-17.004533622337156,-7.328553163431998,-0.5807408867147972,-5.255108737603096,-10.098061469642975,-12.347671130378187,-15.874522908137408,-11.026785401254163,2.976599276802883,9.795093938554203,9.613114452826247,13.706565761018174,16.297144218885855,14.512357136941834,18.078252326883756,20.621746040132496,12.515316129313861,6.330667002797766,8.380435926723202,7.941864350555351,6.894145800360345,10.36553262728223,8.189935406794238,1.2392092420183913,4.0142401013206195,11.910291207137043,12.775272533138736,12.704758018115827,15.426594317733553,13.790916434515204,14.146219325628365,24.61010020366541,32.31118445312518,29.28060292966399,26.125854623575563,23.571335206385797,16.49076107566421,15.347919665587877,22.415779972566256,22.470099634502336,16.462415867889572,15.526029509970437,13.621172282083855,9.2549423244606,14.351221497088575,22.50711927370533,20.434980404156228,16.86819735156413,17.662002568776487,13.939196456457946,10.221413613771109,13.57167174992729,11.894910142715995,1.627940438657729,-2.9019805092838085,-0.851611214697032,0.13543174924508483,5.3356047434004115,14.147530542773783,15.464297463540323,14.592740979297751,21.708532583486907,26.99958607234121,23.663142932783316,20.95296655393488,18.143575553696706,10.34536931020739,8.728011080487372,15.767567011833492,16.925558511737822,14.34451105809195,19.07037650474561,22.797170116079194,21.075732837324665,23.68818514503753,24.253601566287514,13.377574536408567,4.9152061649474765,6.290168241722181,6.704217434146298,7.673271332420376,14.046217491793994,14.205285253204067,6.42844523910788,4.477764132032386,6.333319455032348,2.7171898185712373,0.3862051768217093,2.381507590374039,0.29580483211137043,-1.0780623809110184,6.48512012954639,12.742366531167935,12.337744724256776,16.000045474658936,21.799546835638722,20.690936287894043,20.694746626769536,24.61639508071789,20.10860141826889,11.667661256322859,11.847276401935604,12.264515720107589,7.67840954117229,8.169238417003466,8.333439787077111,-1.4628288310137325,-7.974061677948802,-3.759696961513816,-0.4179832393876832,2.366225542271154,9.310354611772079,9.662545999070668,3.4188649252881413,5.637217862996269,13.615647616645127,15.559477566626597,15.34159543729006,15.276601983026337,9.019029022493186,4.206986355633052,10.326173874642674,15.373381866580281,10.600057450408784,5.370176617090575,0.6096170603625759,-8.22075668539182,-11.106323354276768,-6.047216540101981,-7.811459587956999,-14.889891646067168,-14.953255135133887,-13.515497212024352,-14.67171165438495,-9.59956221303317,-4.41011140437127,-9.14033628241892,-11.114911797240149,-2.8903222182649304,3.863872254315643,8.915772474898011,16.93422999608799,17.04227337650904,8.026083039707416,4.589498890786658,5.618384511176553,1.691743415969287,-1.140649089671524,-0.6935835566151569,-6.14016701628797,-12.436219345302804,-10.055610048269424,-8.447282227778175,-14.121348061777727,-17.998271965467612,-21.117490315464135,-29.4531583736955,-32.06019330148146,-24.07888312018801,-18.434436778842212,-15.10113063740156,-5.7462219700703585,0.8188478889629756,0.5318152271926341,4.759601860017382,9.535409449007917,4.461918836563822,-0.033910576766474354,2.682080411085649,3.119408798150915,4.183189113207482,12.23031396561181,15.612764868432897,10.774563256489543,10.836294660644848,14.800211648980877,13.957486647958248,14.974576301532332,19.919297913418774,17.917780998319746,12.507340284101577,13.81492878727575,13.761008794812952,7.2909844318517845,5.003706353237304,5.091228603235162,-1.5185267675958802,-5.541410301109761,-1.121544856592262,0.916916323435808,2.7867278305174663,12.788801776848702,18.731718265367732,13.635033208905126,9.766517262727437,7.494258988107273,1.6391744674062174,3.6770629440174805,14.719929220871297,18.265923280784154,15.12773915598687,15.22387201669696,11.609843282052232,1.9852666821794687,-2.878122058530038,-6.137556931078754,-15.361011445911563,-20.39150097993086,-17.40310389597791,-19.58691949284915,-26.36071044172213,-27.12085337918754,-27.77253814746452,-32.75412868710628,-32.81713795338041,-32.59546424935306,-43.07394765392657,-52.7794417936362,-51.72365938581091,-49.08260548570205,-43.39540265669684,-27.712910815561294,-15.555473246096447,-14.22767920207379,-10.994069536250768,-6.826358738110171,-10.25605746054074,-11.44704987957394,-7.364969999117489,-10.533967368131535,-16.68718303345897,-15.25301064037986,-14.602681049123824,-18.513906276822475,-17.851447063269386,-17.571457545335054,-25.975651621114793,-32.01480364519925,-28.991302572710083,-26.767949541114117,-25.28454359342714,-18.486154421218703,-14.991191809314582,-17.192331326274807,-12.45866753330274,-4.1586369637439216,-5.446364686681427,-9.930084240268211,-11.0923038602727,-16.40189179249763,-20.449801874500363,-14.734209225392657,-13.303180398130026,-22.70748444582678,-28.22237629431389,-29.29234129572844,-33.08692836465493,-29.8260398998843,-19.43098633565393,-17.712698721761363,-20.872235550026993,-16.887930312803192,-13.79467501912009,-15.439937158093414,-10.761614436455039,-3.6818581707215237,-4.5823468018008935,-3.965156118140797,4.176923314154639,8.18318322298906,8.083989516184587,12.630464563584663,14.100297518899268,8.245890357874968,8.847330544430772,16.595118131508848,18.333254544968973,17.586921370405264,19.7403769162703,15.986255526226179,11.044819470079307,17.337659581896784,24.23027060512402,22.33527135884382,23.047292799137065,26.110017231655792,21.929279379949808,19.698092180468308,24.608287769891007,25.719687530561792,26.574359495070148,35.02090521096771,38.004993691974505,29.024903074531153,20.728568945185547,15.105856630996968,7.197268607116779,4.501993469680345,7.973182410481846,6.954378442600134,5.880705198386252,15.294485112736618,26.08099619403887,29.065445054653125,30.490133772016026,27.725532196719882,14.512984252319026,4.933831093552491,7.72302255551235,10.507124146448483,11.776131457266537,17.603711407436407,17.194533293657322,7.690206556142808,5.074291907397495,9.296040604111107,9.289062404133071,10.492875682590608,14.77104329679746,12.301016404016421,9.525451041687791,16.64894237204541,22.3516947336526,18.43640552828801,13.918264301760914,10.295484163020829,4.510773067474378,5.892798481468699,15.233089250962017,17.10019016476782,10.590696576538662,7.95014005911163,7.662384531392405,6.946847516885459,13.939321754356714,22.93496973620752,20.208465607958317,13.745715510971692,13.714546584863246,13.244044049134592,14.27124751774096,24.37425183500021,31.252994921869757,26.71425578646347,23.411933641520807,22.67690283153325,16.030550934315997,11.393960550660056,12.148812014427058,6.484186807800823,-1.7876780432082207,-0.984082564091534,1.3686410078789049,-0.15451377983860048,2.747400392440621,5.747158868066852,-0.12054212022534605,-4.8944467619340095,-2.1968655919277866,-2.476345756794789,-4.808890194521349,-0.058418207240844566,3.4936959090134954,-0.08200578243257395,0.6743446482072388,5.023677031252847,2.3559805014194906,1.6487137697243839,10.996973215542555,18.11907483500582,20.518020933784147,25.94108496615886,24.78094792828294,11.693342767749492,1.9319101851421276,-1.6877434512912635,-7.566527149145944,-8.362635209167308,-1.7926308598776532,-1.8390720605366808,-8.112085175549872,-11.01008148391578,-15.70105886681354,-22.809844998710552,-20.20386241542472,-11.31628769154544,-9.759695630565611,-13.194747933620857,-17.63922341239929,-28.272780361874794,-36.80756295698692,-29.748477779453854,-15.963939566530168,-7.349121808984088,0.10946124923148837,3.2227764854829597,-5.743075499583467,-14.325746737047794,-12.069126799217322,-9.360992148698498,-7.802782157085049,-0.5035734080455461,1.3491716332245596,-7.774598482260419,-11.919938040332696,-9.58745052335151,-12.240416375469271,-13.20955327626225,-8.04717393206828,-9.0855514614477,-13.976127213414813,-11.434609282236,-9.25732765076687,-11.810221083617353,-7.154355487223628,2.750035815142431,5.271168959856236,3.7127046824085537,3.0387120651051522,-2.4652649858134277,-6.756607016441494,1.1566239838198125,10.476532564979628,8.996571634079828,3.5179740601731617,-3.638809961304843,-15.5416241116132,-20.014754989092808,-12.119201759142618,-8.729053137435857,-13.989158173336122,-17.16116029026098,-21.40758423253152,-27.873977275380188,-24.665792428229647,-17.262751179562425,-20.13409582272667,-25.576984142896535,-25.519208216907543,-27.68116363122454,-28.177431234879307,-17.986859082219755,-8.498119192601049,-7.978021799797853,-7.312600405359251,-8.237653652760615,-18.093103109112327,-24.912060229447086,-20.088215928410655,-14.744930132882118,-11.592240779892958,-5.111371267375594,-4.882592392571715,-15.60642625424309,-22.57229902551981,-22.56193323006498,-25.36744567912721,-25.945933155285072,-21.67537098967895,-28.594850108830922,-48.352302854164996,-66.19574833322204,-82.2093906084931,-95.68187448623422,-92.63026562505071,-78.36445979856302,-70.64077185296829,-65.28971292209735,-55.48383719315101,-49.61688634654875,-45.82047284464914,-36.2124436828889,-29.81112046851042,-31.140640112397158,-27.961163174689027,-20.46222782431368,-19.06541149254184,-18.18446279364912,-12.810833537477325,-12.152868013807764,-13.311641699472542,-5.455136602488537,2.9614507869514934,3.9329118589964205,7.228500437667482,13.098601365101167,13.37438300473952,17.516370170800762,33.07030706682906,49.251838661617455,66.05807435522372,94.33944236531536,128.57872914442132,162.3501451644944,201.26088493085493,236.68287526660126,252.21545119160086,253.05578562934403,247.7445070706874,232.2957268083087,213.5106608817567,201.11079524093418,184.42735207834144,157.13269528562392,131.25420684814645,108.54274726908275,82.63745288020012,61.65441791047813,49.343806635816094,32.90191948740234,11.611595825854724,-3.9535329404936563,-19.349315185722656,-40.92598039204671,-58.71762793170868,-72.26101830555294,-91.10446704092159,-106.66833846870203,-110.11203587092942,-113.70341997317358,-121.96707721399846,-127.34081345700059,-136.98994309459002,-154.34918840000816,-163.95915708718113,-164.51825811872862,-167.74920765946848,-168.20500608559098,-161.00073300726206,-156.73619652566964,-154.25913697917088,-144.7232056729125,-136.58091527235675,-135.40870314069093,-130.26645403652108,-120.9279873268462,-115.97347915219382,-108.9036920174294,-95.01611368334629,-84.8541426506074,-78.43072344070922,-66.78622396766406,-57.742666630972835,-58.56698416693494,-58.09019566739638,-53.514292967002824,-52.67230910769368,-47.48911389777366,-32.113355364563624,-20.621351044837926,-14.687061380192677,-2.570074239418365,8.64829347256074,10.954897703149223,13.948046113109086,16.691554844866758,11.61564235499292,11.010036464930403,22.834295051881657,34.18533935825261,41.65568231866826,50.896768369235694,53.56073621983896,47.29451922176464,47.007139869305846,53.87834939989534,56.712926613564214,58.382373193215486,60.67228982663627,53.52734442637387,42.70990546020431,44.61891616040624,54.30253801197125,60.88871583406822,69.08608080401068,76.07101516187778,71.5858259560128,65.96470098258962,69.91831939465423,72.5695888854446,72.11403797762662,78.82351842489132,84.40483774151997,80.31591006976875,77.50538366237362,76.32748842240143,67.39063643324405,60.53507620091783,63.36531561371742,63.85554708076654,61.06322122410967,64.16636377133608,65.75547785448887,60.816995874252896,60.530157521020286,63.70336272697962,60.2678459702065,58.040229735760946,63.304008161056316,64.78128181979642,61.34098962857878,62.46749255309702,62.240497526012234,54.99109629294276,51.45988481463832,51.67721060667204,44.73375148568352,38.265351374759575,41.074608211851114,42.24489500102305,39.33622306466662,40.6952693481951,38.124705611190436,26.574763362840585,21.571306471727254,25.916855104520025,27.726417588480796,30.425768551269897,36.40621149175965,33.79759267152457,26.467796087155534,28.5893599249181,33.550295852076175,31.26625163416287,27.15353597229636,21.082114957982334,8.7067983272148,1.9132025556141241,8.1190752047384,12.736195331171936,8.545319895166116,3.7696639825024167,-2.8212028902654946,-11.869645441156013,-11.042021032380191,-3.4417822149784465,-5.547861446499962,-12.900713351909962,-15.537910793053216,-20.30626577098434,-25.338371825062133,-20.816489172238114,-16.59422885219739,-20.576811489606524,-20.84955720534604,-17.138949197694124,-20.3156556465391,-23.816582589499724,-22.1199554148301,-25.498251889537194,-31.45767590199458,-28.832497490131466,-25.31922159582149,-28.041079239424768,-27.8973060101482,-26.028604304185656,-31.28875651703022,-34.71472520571082,-28.610838725515073,-24.51377626176883,-25.85473421261812,-24.283655248504267,-25.61466169922776,-34.494812288215925,-36.40964557977569,-28.301351198255176,-24.06408800722834,-22.18338248996325,-17.239570052823307,-19.5518748932383,-27.375732994438128,-26.570077682980816,-23.71037687487749,-28.64039875102751,-31.494681149256,-30.289123808089148,-33.35384315075457,-33.32947167547226,-26.155159908684674,-25.42829054325805,-30.817350896502152,-29.473184427300307,-26.34334582986569,-28.350444319014944,-27.336314611177183,-24.468955200662357,-28.339667176501198,-30.111196320074676,-22.727138846314695,-18.921084933583106,-22.506835751150103,-23.310334894627474,-24.746867979078885,-31.888479734879255,-33.73809225238303,-29.46158282308298,-31.267585633310745,-34.2819337888884,-30.136991644121256,-28.471856968816617,-30.810355576337695,-26.95346612960662,-23.821729087486343,-29.161176821536674,-31.277606015547743,-27.828159655042466,-28.650456476969055,-27.405619630693383,-18.792194478306634,-15.178858314093047,-16.974906747278936,-13.561559863178683,-11.65499552541297,-17.920510036236408,-22.165647868676018,-22.694656287869876,-26.9441879281007,-28.2768012542659,-21.199705675775082,-16.822927694980216,-17.92012087762674,-14.953382622237072,-12.333951347929181,-17.22582553163876,-19.866079703372844,-18.075475661556272,-21.664908960406024,-23.705757757561585,-15.972242741075823,-10.173796877749307,-9.086172264125494,-3.2524850158657044,-0.41521327400639807,-7.174705731230812,-9.748281830473356,-5.554521810287406,-5.504121598893309,-4.830909938392576,0.8502682674633042,0.5781863291695173,-4.128597039774615,-1.5633544543072802,1.964009045203168,-2.2013648418882448,-6.3975402918495226,-8.937371493334844,-16.798824836661048,-22.028917575017328,-16.4225602417878,-10.752495707035896,-8.493000539771598,-0.3496297421140122,7.386112393433438,6.586355597671978,7.6663979478168125,11.86360535013242,7.7595702326174685,2.3194176898691574,5.704321467369695,8.412808731553538,8.10370460892919,13.472476914340163,15.42329907570016,5.853259488480191,-0.45517585267852945,1.9955510402532572,3.365797273556658,6.982803183954346,14.734666444591898,13.70968798545716,5.441476353967954,3.9119042148025613,6.073164833498452,4.710062870954207,5.689224434965541,8.090792506524696,4.352328882597593,2.6419345056933756,10.712808621516414,17.278572622274304,17.106197224068076,18.02651787311018,16.35150193590691,7.709409336051435,3.385968376172743,4.110222242545657,-1.5027628334716443,-5.726103596151417,1.993324179119556,10.268962087908584,13.62934181303232,19.207733975338144,18.892609314845473,7.498111413230163,1.8858885286805531,6.170596007517895,7.351951670843985,8.269633886607627,13.853020895577217,13.153079423035509,6.75902340897249,7.223804121736425,10.503833989109257,10.171083478473882,14.462696930153799,21.926849571500377,20.9970692782817,17.717934040879147,22.13840869788818,26.981557587576546,29.57598079427487,36.4116771491501,38.743418291466085,29.34712867331408,23.018483785691814,25.460201648026217,25.366611912935817,25.93363262355475,32.444812827841275,32.03728254133536,24.08652001993564,22.77924891167704,23.1985352587102,17.73163548064157,17.62331752341536,23.240055123901158,22.68194147904802,22.936686687785247,32.15693909132276,39.157438417261424,41.62809324073237,48.38005947158486,52.411428741791205,46.86923210840594,41.901567430542656,38.80795248554071,28.644656570136952,18.50396286629593,16.858476822160274,14.403089020444822,9.107817671751931,10.368690596463221,11.49827086306298,4.2073773618081365,-0.27679277209779146,1.0298730014185709,-1.7675620849396232,-1.4694481798788974,9.09023236499214,15.719950715006167,14.99428433382472,18.023535621956093,17.788914918077268,7.2820822725267895,1.1222406922456476,2.313536353341409,-1.564550413926818,-5.709436773926122,-4.1201548582876555,-8.462667687999245,-18.222749291805933,-20.4777021024024,-21.225474098695933,-28.929447463373513,-32.91583292338267,-29.48673621350122,-28.75976450314996,-28.688997205741437,-23.735336559906695,-22.371599703837038,-25.014980769268462,-20.532986833508808,-15.099104377010631,-19.83815061715862,-25.127501424753156,-24.269502403969867,-24.89034820151508,-23.05130686499772,-14.14329184764877,-12.056386191512116,-19.206733025771385,-20.740130776034288,-19.006275606180267,-22.55951153225357,-22.95488358839956,-20.077835532106455,-25.190778503719283,-30.87732109681078,-27.346529256131557,-24.047546722241968,-23.18658667793636,-16.904595410926223,-13.181683344869136,-18.953332566775487,-21.144527016427606,-11.691909792104052,5.745654882987052,34.62447325742019,71.6043343106072,94.1162708022305,91.96161633866382,78.06382516962063,59.28048164864989,38.5545830334039,29.68754242899409,32.83049352643789,32.296505871419,29.994967181174843,32.70901101858944,28.48102886800725,15.4682231466075,7.790808989368932,2.028508024874892,-9.93806566601756,-19.05955659576942,-26.064568246264002,-41.65747789036837,-54.938708915831825,-53.52130897931386,-48.54260815584028,-45.90911855361741,-39.44803108318566,-37.02415089530338,-45.19881449038851,-51.06256737549095,-50.0684353887109,-51.483647093563775,-51.7397742415411,-45.535338313794945,-43.47998169873248,-47.48873426944662,-45.84259153651277,-41.966241662868114,-44.75704285931057,-46.30763616214305,-43.96145464942357,-46.66500298562958,-48.11697628863759,-41.222700786072096,-39.393787649098634,-45.73795454263091,-45.9127596963045,-41.73300903815156,-40.63560693233329,-35.08338148397611,-27.58416094991713,-29.880061440491584,-33.17396357078368,-26.847021802689596,-21.115054943925955,-21.049021800320563,-19.956654238669895,-22.217821492488685,-30.36451728896758,-30.701017781850766,-20.60074950609923,-13.392123053012718,-9.668587235838102,-4.19572864341286,-4.383531067293549,-9.144982947516409,-5.321335368547892,2.094386315448408,1.3718209699337849,0.16844808128738983,2.0311494266964885,-2.5319072440386465,-6.60577617812345,0.10228399138743605,5.611896872769371,4.121217024703011,5.662841553269036,4.922410719616689,-5.127127704470129,-10.061659645291929,-4.747040671990771,-1.686466184321351,0.42799865779947355,6.538330595623889,7.1224418650516945,3.8700913521202027,9.51341805471222,17.477632311390987,17.19598686506675,16.798838289676638,20.122420345499197,19.89491147206218,20.44984305227743,26.18656465391716,25.830270612936637,18.567264703323445,18.232803166283013,22.08184122479719,20.143401693196406,19.367647754367475,21.80701735577333,17.421015878546175,12.249043163440351,15.472131803555621,15.797102118806439,9.597789378650189,9.087006176129329,10.251861528276926,4.892124457840407,3.4615533131272693,7.7216402315676245,6.343564915605692,5.258808646652778,12.438158205796237,16.9474617213864,16.028120392475635,19.01336918581519,20.205691443863515,13.497057772190356,10.878676045433282,15.961904358844299,19.181556919746683,24.250672361484494,35.607840893727854,39.85856747834968,32.94506338272597,27.826608654768187,24.96653448086306,19.99684501220863,22.64851974902561,31.21623928549499,29.059952600678123,20.135979844054916,18.440985239484217,19.18197709008418,19.70556719565619,26.937290393231695,31.63399195700368,25.021898157963733,21.08865427799268,25.443865992521083,26.263003032952582,25.525490720233023,29.232359084521192,27.966540469793753,21.592604425909983,21.567959160464856,22.84634202090874,17.876406319422593,16.564461581370118,21.166862986385738,20.868427767697316,19.163756656689056,23.216752764217635,23.258342830915545,16.51603062460431,15.212527415388594,17.346517645679068,14.790498950682778,16.440844435746016,23.94327056564409,23.534889376235384,18.843680129838262,21.276728813545084,22.369969124581516,18.397429379513976,20.284477000306776,21.910783337188303,12.690647041631825,4.480300397037983,3.9277182700602093,2.3924494075266733,4.431366259081919,14.665433122509018,18.23906975037886,10.971062920339211,6.452226740085726,5.522832638941602,3.6606859645611274,8.141656381033835,16.67375818235179,16.833440654498734,13.833688511560457,17.636308900246185,20.416452346642,17.60822881773874,16.011145919159482,10.754462573128752,-3.79703823136816,-14.419605199574695,-15.117437910944515,-16.221231505314464,-14.517213270544676,-2.611502882821831,7.482984180229867,10.242020548938559,15.250284303269382,16.77087220418404,7.511179446565141,2.567395572359014,7.833784129745198,10.765849857247666,13.182482520675013,19.94152035870178,19.758368951038836,14.046636890306093,17.232144282004622,22.627487381461364,17.58577276117643,9.665765157360617,4.13324779188439,-3.773984132289607,-5.532124504927959,5.07521655732579,10.875687138163764,3.365929291217037,-3.9751631071727247,-8.570322245477316,-14.759403434192308,-12.74914069126735,-3.8457086664762365,-4.854650639236515,-11.07509574707085,-8.721800278702124,-5.615101512375338,-5.4758135061087385,1.5006027578897414,7.809838993061046,3.5607829369693214,1.370424080485784,5.633572044682099,3.6180331466537847,-1.7796948318073487,-2.8040129204133315,-8.378749344304829,-18.308778958019026,-19.533891118882867,-16.38360928468448,-18.935558639523126,-20.60994085857708,-18.89043866278051,-21.461444357720694,-22.42121477158004,-13.952234264421348,-7.303402261953539,-8.466310261285434,-7.5885921271557635,-6.527575881666364,-11.887200842526399,-13.44035849349724,-8.312208126288835,-9.472734655192985,-13.88494976610331,-11.423925834050785,-11.13437881551657,-16.511427802699203,-16.02214326259012,-14.906506456175943,-23.445367480333434,-30.36575736723929,-30.053826878568728,-32.354240757681765,-32.76228531394739,-24.864607793425364,-21.164379109997675,-24.594255119731834,-22.65553030440814,-18.468563530231357,-20.81904424005323,-21.774621503577336,-18.399859018324957,-19.466728081664634,-19.282645803688723,-9.8817748850296,-4.647869926673325,-11.356021292719406,-17.416198060241502,-19.750147858376497,-22.932193498742425,-18.390112861362546,-7.687004430271038,-8.600933213087655,-17.214268876349088,-17.259658526553842,-14.398395506202963,-13.878876286711346,-8.390324338644415,-6.662844152274884,-17.72900068975041,-25.603144594678415,-22.346241921544642,-19.955055795296904,-17.21628510226922,-8.75577582149914,-6.571113910313663,-12.909183598983414,-14.17247095218921,-12.263791459300982,-15.081819800111994,-13.9621276890365,-5.94101642000275,-2.932562520390517,-4.2918475527138185,-1.9079583811990235,-2.5119506558960496,-7.737193673075326,-5.036000069224054,2.1108528183735156,0.9772730480566716,-2.3698082282660202,-2.9989696602244917,-8.654883384584538,-12.871496767243176,-5.902388101727066,0.6715231813125846,0.4205503798532233,2.4551706612531072,1.5762357077163405,-9.801469529417494,-17.791658195866695,-16.07522109495052,-15.12244654034419,-11.864007119955964,-1.9950317702150837,0.5417123587772177,-6.925859034006817,-10.440823962418943,-10.833078114052373,-14.23217856281994,-11.347434062431423,0.21507621525416942,10.23628489509015,23.31176640223636,48.856425125205554,77.23793090322937,100.31869610003862,122.19742329814737,135.03380974614663,128.65682949805432,116.04940102593679,109.76609998102155,104.91994625541516,105.24239902268427,116.55009343218265,122.79904436438716,115.01522625252049,106.90673964120451,100.64962276133114,89.83214581018981,83.4967430162612,83.44275324840667,78.31022564455427,76.06359196204167,90.66953220885073,111.52908545359281,127.34043765956199,141.33573956117237,146.4672260505093,134.50434116017985,117.39171061994885,100.73486329739896,74.24171109857153,43.96428940570425,24.454504262228127,10.061710929100903,-3.996041791047652,-7.756574729116765,-5.377584170420369,-8.630270712094013,-8.999069582690701,-1.3702592588666276,1.775091955945356,2.180257349921566,8.150493483503125,6.578634459248972,-9.530666530069913,-25.57286863407892,-39.099817260125164,-57.052976690875276,-71.24076457108421,-80.00514299164425,-95.72384686983557,-113.15616316854776,-119.5830100323341,-123.45431039644194,-132.64338141586916,-140.49649663877346,-150.2690487838046,-167.91962182777607,-181.14843407441663,-182.79867334366077,-182.42729125419277,-179.309059199338,-166.78255578508555,-153.08319830824664,-140.55849530653992,-116.28748173071098,-81.91786150033431,-49.911490268320605,-19.115352035749865,7.968397800050539,19.45332316135409,22.277284749364696,28.160748441276873,26.77260593841828,12.775270382670271,-2.4189153323420483,-19.373718310599536,-40.96371804454492,-54.89762299626673,-62.063600114073914,-76.96480422575678,-93.19938961638891,-98.47032463759892,-102.23453782054517,-112.64678498914476,-125.22670593838737,-144.60159612966115,-173.05673922295114,-193.5049978643656,-199.1278850567235,-204.47032263897478,-212.52756643937073,-216.00796951853664,-221.7520697120691,-233.53007048617417,-240.92170672550148,-245.2773719088402,-253.42304288826432,-254.02006301340074,-242.30642892697773,-232.62785316211134,-225.24074104649992,-211.40966795504877,-199.54054798177754,-192.86017711574942,-180.82937809874284,-168.73881295211368,-165.3341983480611,-158.7347377754979,-144.90612187964143,-136.1337061457861,-128.37499300875885,-112.65835299205459,-99.96239641666733,-94.89778852279476,-86.10194817452667,-75.57629988944441,-69.73001875494153,-58.24954007180191,-39.60318245219703,-28.86588440227296,-24.773860938214213,-14.780873973135673,-2.2254474015062744,9.423535982471908,27.009524288808954,43.36523040048179,46.053993711440214,44.586598529694896,48.853552710909675,51.62027814384837,54.79843039724848,65.5481081246111,72.71264771333678,71.0991780666941,73.67842462796646,80.12773741815315,82.53319649214089,89.32574303787736,102.53922483771314,109.76173893977503,114.41745907379172,126.45737746273583,137.153159867732,140.8669717513162,145.88811981256322,149.4213122500976,145.4727910430414,145.2891004820406,153.6109496963184,157.73001694669261,156.53195215873376,157.47257796521865,154.53037849647578,147.64514506997594,150.54931990272866,159.85949916274873,161.9751806649475,161.6009601542798,162.47332253321474,156.15059043276221,149.87222455389517,155.16970151808704,160.43599029088404,158.14099154967687,158.7075186944138,159.54687922379134,152.49739663812687,147.63086109474423,148.87825870617027,145.9927239059396,143.82616591576317,150.6690287793127,155.3955789784347,153.32504773278637,154.61789711988192,156.0851329692386,150.55290976675593,147.6701083725468,151.21720019436736,150.98066819662444,148.82289128449816,151.04802720000134,147.83308168411014,135.93101944562648,128.80281123476047,126.46295175757479,119.21384953525481,113.94554438403222,115.19448652349578,112.35335450934458,108.29063929370089,112.48465935606313,114.32724272363276,108.30522082885538,107.04668760892541,108.52613238857708,103.07049592616127,99.77449436614268,102.56816992032942,100.66906384619499,98.26880088250897,103.24662708310066,102.56522875186248,89.6347659604692,77.36182124032635,67.23623170945837,53.17204827794035,44.667976839078136,45.180937471648484,42.10527087177344,37.71219938326891,42.609831481570524,47.063243517983075,42.65252166464542,39.224467701068846,37.18163334606878,30.037414910749384,28.422431650490385,36.45943645597445,38.38537963602708,33.40722441261966,32.881003067896,30.964021561533144,24.517542067882058,23.422338996662642,21.154292593167717,7.6329206291995995,-3.989483181310352,-5.942369570832004,-8.803226907344825,-11.878058571788612,-10.366925331879456,-14.193656363298008,-22.689123582161017,-19.28931692952987,-4.674346865949026,9.070113401585942,24.62671728908982,42.50961871106696,52.02055520485474,58.141466319479605,72.38221435142253,84.23621174299412,83.35147952058327,78.14840340963923,70.20842131579191,55.79434362314856,47.008698058862066,48.64327765841397,46.0160736192633,38.5689570348635,36.880972500364905,33.428599303862505,23.51063133254388,18.739912304783076,15.706448530840554,4.234308851160144,