-16.476715156606836,-15.774014705729238,-3.1741451021455447,5.901440609519708,-1.8250451885428371,-10.682070517704355,-14.901793748828617,-22.20731362337117,-21.67975834378369,-9.212398466891443,-5.815076782059879,-13.574547265981174,-15.120513061515918,-14.597090934051966,-18.223518553472886,-15.12145168482635,-12.61472864112497,-26.69776485067884,-41.518509403140364,-40.467126062789276,-35.25625122736792,-28.70770770304563,-14.768415717379778,-9.076635018013672,-16.98854198602958,-17.175765540631996,-9.092142092643128,-10.327089727853,-14.648195596804385,-13.025419710419175,-14.396679494001724,-13.163744735900794,1.921367279676856,12.386432060910185,3.930851986897941,-6.0688100726256415,-9.996831210361476,-16.299980336005266,-17.533586349353662,-11.503739329937563,-15.163236020734184,-23.906433987060034,-19.307563178806312,-12.6649931929691,-16.831838332430987,-18.711243782334467,-18.561559152898106,-27.88893802652806,-33.26131579211257,-26.774078167477597,-24.934049321927013,-24.517830345656883,-10.586816711504486,2.1978291937027006,0.879684118294725,-1.573812365254565,-6.114164794918856,-22.43386993340106,-32.370644348490366,-24.27597213071733,-17.668673594007007,-17.401886083546124,-12.433061229036099,-12.762035718711632,-21.825414297194545,-19.54944154386386,-9.89091697808483,-14.064638622289555,-21.84472910194755,-18.471986547942834,-14.400407054324875,-10.100634206850534,1.438475725117243,4.21181708514904,-7.253132162690174,-10.547953099259907,-3.147408452292035,-1.6472357890896987,-1.7799190609579227,1.452667528516175,-3.4188328294225445,-9.793376459835914,-2.1760758104891798,7.544834420640078,9.091374505004854,14.566101987177058,19.867410569708504,10.328353579662565,-1.4679475410332694,-4.0418222165313695,-9.179447245558913,-12.875384069342035,-2.5435633253969643,5.528612160475332,0.6088978140657288,-0.35695140867886876,2.358752089213209,-3.654625780666767,-5.306299551756218,3.641727367678382,4.46099169450981,-0.45279002022277526,4.9679841766111945,9.349421466989568,4.348936818975659,5.154655904932581,7.660096910865687,-3.4750918854514605,-13.553421592075992,-10.02506956771467,-7.429535944254161,-6.025127492557841,4.849024045605694,11.220364479376276,5.867189567999262,7.410952227760893,14.51559584663703,9.75039336494634,2.545210999096496,4.730451551703702,5.659673983663764,6.70524453827341,17.519372558932968,22.710514561805326,13.295174120607076,8.089242449176451,9.14492603855378,2.6670407712815476,-2.0162944525082644,2.6912718140394682,2.7060420094551176,-0.6181055463927279,3.8568866934505763,4.523763408539845,-3.15943681029998,-0.8660083255313618,8.98564862029606,8.462898322127058,4.831922251199316,6.571696733411235,2.966284122499768,-0.7868577158909815,7.3910634291148956,12.075169898170524,3.1438630749890337,-3.463690759327825,-6.032120652647531,-14.357387879779733,-17.03251223015994,-8.754511720320988,-7.298795411997823,-13.184680031243177,-12.863046294538552,-13.694194869331728,-19.908983632746153,-17.03516246395445,-10.011069961580176,-14.554522913557856,-18.784456069560278,-12.421914287519261,-9.569162563732256,-9.846695057876188,-2.010562328639934,2.6254422159591906,-0.38237809546094903,6.097899744597762,17.653272070934833,16.971920851767333,12.485796941183903,11.779948097506693,4.364538815311358,-2.7427335650927605,3.8220006141267655,9.777126995584007,5.622468510712323,4.478553553716253,3.0152032143823413,-9.658629954485257,-19.048855659029293,-16.949912686627712,-17.7289593119395,-18.14633025476377,-6.510584293872,2.0421354716459064,-1.300586256538233,0.4565907110446954,6.650034041929043,3.8151170638661585,2.351171357649525,8.093626578541251,6.232709013240716,2.064809181466842,11.327601388421243,21.26267694134249,19.66448962249418,17.74624778119494,13.79717833824591,-1.276487175062936,-10.13240186016374,-2.0973566600824207,4.874794387706389,8.058634824655638,17.654028690227925,20.012926789946356,7.997160122770305,0.0697003334448687,-3.133019072159314,-12.84647058292494,-15.662980594689524,-4.284356814786002,3.529791733553871,6.731626174922839,16.6881269291812,21.305111938594884,13.042108081642802,7.881635406010849,5.722206407952082,-3.885003996808553,-7.7796771389722235,0.4625495625202043,3.828486329814593,3.682186094148183,12.759884746906117,19.06523106231296,15.347505062285169,15.80319298816854,16.10577202504465,4.018742169370711,-5.090704140338222,-1.759458643498849,-0.8688059835905381,-0.4788691577183028,9.882993745223335,14.281757924081372,4.230265337628282,-2.12578584050716,-4.156072233673341,-13.150695330692301,-15.745641359070627,-6.048171013308707,-3.4782517388765384,-7.94387680686765,-5.92971986133864,-6.9661474029270245,-14.503876249512784,-10.58471319633296,1.4709877170601344,4.40961737155,5.833979660577049,11.074026845760871,5.814280522886238,-3.895530133699955,-1.9609002688056119,0.13727712053416696,-4.565272063864849,-1.035471340940087,5.118047983687357,-1.8289927365699437,-9.213925956714277,-8.75457427174165,-14.056085105148824,-18.517958882692426,-7.747393484872455,3.0664688153789483,3.849649035939858,7.72001926575031,10.130245040202658,-0.09510999703233747,-6.055967283991473,1.5746835523337914,5.2144669240617825,3.7100085734894197,7.053362935744821,2.9497351265037284,-10.562006633395491,-11.748393247285792,-2.7354848074475933,-0.1602079264463283,4.356131507178368,13.823215281092075,10.805395614819036,0.6637580324637526,0.6056241999535039,1.0472294674856009,-3.2891961164768158,2.826826993533166,12.158026210254954,7.1171721006278155,0.7114461452182677,3.6062550334111325,2.5222678036403408,0.3692906191415113,8.4601514896488,12.352153128404069,5.540881940123992,6.390904535025544,12.02997895294361,5.740664159201311,-1.6972185665644457,-1.4380435755533065,-6.656484734858105,-11.290546622900836,-0.17035489817967875,11.546312153495792,13.350328313439132,19.505094444124783,23.962505410296203,11.82666843395212,-0.8505895144183881,-2.8417336228521597,-7.761896258251393,-12.748381981208208,-6.533369673346061,-3.013847916392031,-10.193088422335238,-13.322343644319563,-14.37455762362778,-24.002160855362586,-28.057929122470245,-19.375174173034363,-14.583803941163335,-12.990006636570094,-3.5544311021368125,2.208485942849844,-0.2123080265520063,4.517362845613477,11.301724370556544,6.678684983159743,4.2183246021538805,11.269392256046528,11.997658609273081,9.506758648949642,16.002678861481925,17.18664913846189,6.257139928925023,0.7722744134418357,-0.4388391788714219,-9.080900168733455,-13.117358196391361,-7.67082963130369,-9.028596002946944,-12.809730737724994,-4.892480332182279,1.365655144595856,-2.3805986852123384,-1.2538484616083698,1.991267990496598,-3.4877198538403444,-4.565725638940892,2.4119299742130615,1.1716929080910852,-2.41943089601192,4.779758129845559,9.29927173384419,4.608401111585191,5.055121141413975,7.122140329952345,-0.1545649182129578,-5.287209938641709,-4.692502706954301,-12.375212117962462,-20.103775890924776,-12.482643656469904,-3.18097098941206,-2.01585807094087,2.563152844525887,5.35444463274648,-4.394703004247161,-11.006883744938985,-7.083370027704301,-7.726323449786671,-8.815562271361696,0.9985680677903837,6.665197372316692,0.8726502848899447,-0.5802428904794747,-0.7178221301290626,-11.760506279518303,-19.474186091254904,-15.571436259880972,-15.239883150804035,-16.018134350825502,-7.950742531268743,-6.634906535948465,-16.208963374377287,-14.986590396169557,-4.630517535329347,-2.29182800551522,-0.6503690396185747,3.9075142937011593,-2.0107301783487967,-7.947469193143247,2.8653028197738086,13.484114478508378,10.89461190518426,7.976847305212692,2.310252508984812,-14.028450455038142,-21.877644631038976,-13.942846593842486-10.560533508092236,-11.562987900409889,-4.512948247490574,-1.1352787152275328,-5.425615538093118,-1.1501162055483074,3.8888597616539666,-6.333206549663428,-14.80484107546959,-8.316150159949052,-0.15854100664423187,10.36044118147565,29.04799675497727,35.779950736047596,22.91919324823309,11.230811796115091,3.4090436970329487,-8.656347224366465,-10.841882036682794,-0.15263442988643128,2.8741089726592857,-1.2089085999394402,-0.05716481626386605,-3.462289613953605,-12.376887143694988,-8.308480900175262,2.721208231645448,4.272442168734236,7.105558730262106,15.756842380855312,14.899923850924017,11.066457608474854,18.372993465946116,23.532741296911123,19.626514877440933,21.438958799220153,25.93969332041062,22.016004970947783,21.02007948995515,25.07965890761009,16.656838613991,1.9331617451702883,-1.3262320045501594,-2.412884858514465,-8.279349842763637,-7.355605161441235,-6.643442486015801,-16.51358515827381,-18.868350369814543,-7.954131557870672,-4.22912158054886,-5.978397540727109,-0.2922646661693542,1.3625747169256641,-3.8288215660730343,-0.41118880092294585,2.78999439210943,-7.339598001603334,-12.10427099340824,-2.585706310278845,3.6510875716503,6.232569475727713,11.330613167818429,4.460072840019537,-11.657816865851203,-12.143180385871862,-1.2672459550836295,1.4691999727109342,2.4830945443114207,5.459786492798201,-0.9977170714529233,-5.457670397193891,6.847067915769854,18.208221223821035,17.880642177449346,19.559561711275848,18.9463703925124,5.769949997795301,-3.352518259316003,-1.444328661772246,-4.909965204853971,-9.964102609209341,-4.0099696224760955,1.1074389014996304,0.7295934911722262,7.8608188985897876,13.719597361386056,4.390882111762553,-4.445550122681336,-3.1427067451247783,-4.781621408914308,-6.236866470614324,1.1635640690160334,3.465730005536023,-2.3015309194082607,-0.27773316887526067,3.124761921833318,-4.865735985614513,-10.837073708221633,-8.604214637999402,-11.01330481520147,-12.209100413996337,-2.1307488222102164,4.155760922632685,1.0368453589548001,2.547930550476642,2.726376171283018,-8.39219192222603,-13.762481132769608,-6.719924112083577,-3.1687793348889306,0.44587245415376575,13.380779637577382,19.749494563288536,14.706026852020337,15.041324904522856,15.542938885464498,3.522002851642595,-5.720754146681961,-4.410808107589533,-7.413837193917592,-9.770665103957704,-0.13117090460605496,4.806299402126753,-1.377731703248401,-1.1224741627933021,1.3124835211518282,-5.302669758049991,-5.969962327813118,2.110113929615946,0.8074617425767872,-4.074454402138422,0.2332690025462063,0.9363750592751848,-4.471596021512337,0.47083407858727977,8.584727604202486,5.966901194361326,5.367818193860238,9.705706790979857,2.8418210775592394,-6.192616452604254,-1.980414748916044,1.7223994292607008,-0.8234281305058491,3.9779726109640103,7.70230551073131,-1.4316397425613645,-6.421915377033674,-1.7481134230143371,-4.834228316143149,-10.547962354571938,-5.23788976317433,-1.953162114058591,-5.818582781658261,-2.217463082618425,0.34766374363595554,-10.370582264685911,-14.363910599679542,-2.8598808354024783,4.9119422104283075,7.620574142764253,11.962523724956379,5.091346767524163,-8.58847351843841,-5.449878455067292,6.344541726762105,6.4182245467409516,3.825357263467695,4.063017542304196,-3.055859541594657,-6.394689121292439,5.2243983547102335,12.550792752485396,8.088978163194456,9.018996478413923,11.967013192920415,5.057598736378907,0.7945605749089875,1.587485794596553,-8.658011234592147,-20.11799275325645,-15.751723186856081,-8.722133229597254,-6.868126306812508,0.9501643084437492,5.683030976234649,-5.27948160769158,-15.707837239689892,-16.640278914013066,-19.587591055424245,-17.786170525936456,-2.1763115097585954,7.842933087189221,3.5860482431892704,0.9689039864142883,-1.9655539014629595,-13.442997428557454,-18.868665667210315,-14.502761175137552,-15.251889228487375,-14.100368631682588,0.9504889507283076,13.171622078992892,13.703741411998902,16.71890331396412,17.474697930806695,5.115458270540737,-4.225281709176943,-3.209876585307801,-6.417411351540624,-8.977215905476108,-0.2045820795306148,4.3027739903227396,-2.2507543309744946,-4.664038189269014,-6.288312417970121,-17.042076665338644,-22.08409072121116,-15.246561099118388,-11.800588360043463,-8.513421610983912,4.451516383911599,12.568289471155536,10.03249274371835,11.048759246271207,10.541797559697638,-0.8849756215951086,-6.216777847495773,0.8090870949336773,3.2644866430482677,3.790130987625132,12.03187855091635,13.70434244719996,5.841511372942441,6.410853774987087,11.587870149944274,11.927524708289845,24.606996647896047,51.96416605865703,70.52869318930641,85.21127387249459,115.51947850799931,151.81533435735838,187.07678152798317,225.72393525031788,244.02467558097632,223.11101760049104,190.04178610709738,166.57164980368276,143.78781624562833,124.12170829754292,111.98415028036877,88.88093906821302,52.48655657247564,22.794448952780506,-4.249708247669035,-39.93018638901839,-68.85660419136039,-85.09708991164531,-102.47052181761973,-115.24515568205189,-115.24641937455887,-119.31021526031478,-132.96731164433282,-142.57993503892988,-153.0666792642338,-171.2314876582417,-180.1075603188544,-176.47935191961005,-178.18544519314463,-180.81952676304877,-172.67405714179395,-166.72487136149206,-166.36389119713328,-157.64236917281326,-150.27426793884385,-156.43281547760455,-158.19938262524272,-148.4014782892748,-142.4440864729764,-135.86317298370662,-118.91164515321213,-106.63027519230585,-103.90165855544511,-96.00133512426443,-88.84314266367147,-92.29506284338046,-89.14673843630965,-74.12819917387398,-65.05059488906346,-58.045050747783336,-42.41223093644297,-32.14744103071041,-29.44212773644006,-18.13527756938216,-6.699046443349805,-7.302143301733833,-3.37309792004855,9.266152367023752,12.778652504861405,13.421053079876115,23.767854319403327,29.46155372731786,27.881111143783095,35.244590470866406,43.082427916354376,39.32734631263555,39.268040015114984,45.39549745171509,40.12084325410427,31.190309711988775,34.595601403381345,39.81566329817657,43.64755659453424,58.092100934190825,69.80237167291155,63.71034866568276,57.70176219385182,59.93624045404686,55.26274249974895,49.53814619842808,55.18598590831459,59.99713450551803,62.22867436839291,76.44770025706802,90.65189498301935,87.43510222035508,79.8889780921883,74.95420626807893,62.567938222635185,55.12950401754378,65.77840334331847,76.61290912756236,79.38592633329331,85.40977976917469,85.65808278672377,71.97756733651315,64.65087428998208,69.15043155690805,68.35535469384156,66.80776154309494,73.15874747616492,71.44697364562059,60.37771387342497,59.47235176972251,62.93046107407762,55.84881753503841,48.3729598802846,43.88423293196057,31.326925651988372,22.8398415389808,31.8225056071337,40.13474339430755,37.53792790123138,35.841458051937124,30.314944706179546,14.526424051842085,6.453091761559062,10.546901405121886,10.612108053634964,11.213518561601221,20.27390222765251,21.478723009514766,13.054562409057418,14.105644505935384,19.87221515835663,17.69460124753537,18.766350296381304,23.602118752861983,16.597237074985326,8.698363189957963,14.700316885731363,19.11051751028498,16.459301715813922,21.263002810524146,25.770275886312902,18.839475131789072,15.99967119494231,20.621479391634818,16.882916350094103,12.3344569607583,18.45823913562037,19.723193087130028,11.813016683088978,10.26789296823112,8.271846093570554,-4.847464911962826,-12.146029065736675,-8.518601275805722,-9.992338246981834,-11.092891439528465,-3.6557968593314003,-5.272852106740059,-17.92950802239457,-21.977700018673815,-21.365443706911023,-25.618603609427073,-21.0550428439441,-8.289631424370633-5.520054974035645,-6.236966761678177,-0.114668671119317,-0.9503854429070551,-8.225410430394303,-4.623030817306379,1.2229899580744539,-3.2779339662352873,-5.481794584806822,-4.247879835690547,-12.227011442591792,-18.16719051268278,-12.457721462645427,-12.406743945622784,-19.9135058876127,-17.181328582839274,-9.804959577438353,-9.470707589302812,-7.146365481732099,-6.262818258301312,-19.92728641089715,-31.34628902931407,-25.01889344162341,-19.390158570475876,-23.59962811338248,-26.421206514883522,-32.950808603353046,-45.33913149092182,-44.01399266770679,-31.39624320571773,-29.860439755813932,-34.03505818029819,-31.004340796955606,-30.546461353743094,-32.86092215677344,-26.170176479514154,-21.864525839640745,-30.399190014459993,-34.29431938120307,-28.600678884867065,-29.02720556732281,-30.745028634927557,-25.066527702962595,-25.705087761213903,-32.515352548624236,-29.71118139833021,-26.063699067167924,-32.516298038040716,-34.558863773154016,-28.96462403252505,-28.37034567422139,-25.06678856089729,-12.064261948844521,-5.8975971271550245,-7.752809983795124,-1.297767205041045,6.7480398493145595,5.534951228661654,5.305962189900454,4.658105738245726,-6.66906956914265,-11.684728355245568,2.452971233825994,14.827077804038568,14.534967852858315,11.507175797955266,0.6000211543418406,-19.71606928977593,-28.454565966566513,-25.555599084197226,-31.142004867418294,-37.71482417437055,-31.464833247721195,-23.90068245757409,-17.409645185388992,-2.413948700521326,5.753020984007526,-6.522281064171139,-19.875501716219794,-23.217706414868182,-25.97177467193065,-21.810772613812794,-8.073558805167126,-6.020823266087569,-15.56217909187815,-14.172137181200366,-5.592466884400176,-1.9493296848115869,5.766615112099762,14.357912885147947,8.301847424977947,-0.7482271400004068,0.5124228843527501,-2.749848649019321,-12.98828863693885,-14.78416776654458,-17.20230815286335,-31.607056787923106,-41.18176898564353,-39.95890541589268,-40.23391823095996,-34.26028410802445,-15.320730986841046,-3.363306035705546,-2.5914197087965407,3.880153103119989,9.301241710665014,4.282939420494779,5.580362754643704,15.234125772728365,16.962065502193852,17.85399870504459,26.568197752919712,27.82631889286962,21.603188681773332,24.181904845826452,25.806611993213046,13.916193467729407,4.008782469623428,1.8842124627299177,-4.199174377812246,-6.126658965501534,4.027120064244183,8.277317874442462,2.565902076087305,2.745855691462908,2.5251724217559968,-7.303242688250853,-10.87190528546665,-6.4382284463473205,-9.574691389521748,-10.542383783273754,1.5061236490298926,9.307220995823593,8.238036863840787,10.936699630958763,9.370003994476729,-1.3433038282340783,-1.610260455396039,9.024814088449697,11.25488572627351,10.18028209046978,15.448436185590397,14.225739696378568,7.018723331715312,9.442631703082165,12.264762690262721,4.310687032370664,0.9020281955957943,3.4838605129874396,-4.49673704852582,-12.991912071395081,-8.653069061130656,-6.448269290840642,-8.398889628039797,1.1816138451934912,12.406615134398411,12.503237440623506,14.32806418697161,17.64394925236188,8.096973319753769,-1.8995228043564683,0.6679972919867736,1.1412954003357902,-1.8901045657139681,5.976716374247923,14.265507540193818,11.095572929538623,8.672101480189491,6.224524017277986,-7.552016945365271,-16.66229810827534,-8.331313184829156,-0.6873387626747258,1.0837961309945907,11.184580741706558,23.828245549169434,32.84753822193052,54.69269849888644,88.71564726523873,116.06097991375744,142.3715286211056,175.02468831979792,195.41446533680025,199.48430219372446,202.95400022373354,200.84657451191174,185.62981546205094,169.36169154466182,147.68887570690555,107.09746107868318,66.6038950317905,44.78517071190776,28.25778768556213,9.569073946035056,-8.39708649067432,-37.78727177957051,-77.35518454504626,-101.06752564895467,-107.20222852503149,-117.29766366508593,-128.18693190692812,-130.66538278284116,-136.74470690241407,-144.598641633893,-141.9471476585154,-143.1438987729734,-157.45604272846825,-164.4571386209832,-159.78668924767248,-158.589855902613,-154.8719200358379,-142.4411037039199,-136.77506574621816,-136.68183817221234,-126.9750835478226,-118.48512327879261,-121.60490724556423,-120.41763972897158,-113.38553441388638,-113.9741390044992,-111.69572590594785,-97.86442801862984,-88.07637485749498,-82.38890340904831,-68.06359947281877,-56.922835706704774,-57.75254930652954,-53.04573965554533,-41.30115074759898,-38.83329626181094,-37.939011916714804,-27.82944161514565,-21.14389951517362,-17.952418569959278,-4.839572611280325,6.675700003513128,5.455810536850665,8.953826792727861,21.696076293579363,26.793878700755773,27.484789246757515,33.30471446388486,34.891962015636764,34.246750726341006,43.61764776574057,50.15422964614798,42.5821763920425,38.53424871737017,43.30039468955691,43.16248024014503,44.69486783202616,54.461490043108384,56.77380944732426,54.09247772688395,62.52081184223171,68.53022306215951,60.702782015112625,57.76339993935883,61.88391827731271,57.13088322651163,52.21832788537409,56.01736179822727,54.048284582403014,48.82577609021709,56.96430869763795,66.56892215019897,63.902731106286254,62.5969245525253,64.10350797467544,56.105919919025766,51.91867628889761,63.520657444707155,73.51346832441475,75.20744143304941,78.41843213724074,73.93539498233417,56.59010088385696,47.81509865461551,52.093895805740786,52.10261815273405,51.63249528352864,57.41218765008941,54.761912714568055,45.10401865235122,45.30144377400584,47.67756059608598,42.989415502967475,44.257317650739175,49.856456047869685,44.88067390677922,39.11663668569946,41.87745360239408,38.080921448953774,28.30659742882414,28.359019273476058,29.653891087932216,23.210806026475716,21.919762396065877,23.17301240534712,13.405695175897783,5.59823730663715,10.969961248150403,13.993903798381982,11.431960165617276,14.712142114302177,15.149526823585745,6.291656676210986,3.9148105359179834,8.227807966847626,4.973188801695787,3.374373328154033,12.04693342257154,14.394094337149767,8.194305433683102,8.10152328968869,7.290845137024336,-0.2160491607729127,1.8355359275906211,12.378158316527196,15.288183682120104,18.92675945119489,30.688506401387343,32.87122376703829,23.19827207672973,16.506148289063216,7.032822376152284,-7.97445782966826,-9.05243459089647,1.6949960120320395,3.352268382684609,1.0669293460544045,2.86572022696689,-4.03174827531643,-13.175715156991325,-6.39075534988851,1.480570010905023,-4.80711199058041,-10.3677586733357,-12.700318967815432,-22.271134051844392,-24.33650105764924,-10.194357558340295,-0.9993910782347637,-1.0275904178960926,2.5085699849727785,-1.0441147929654462,-18.558901225949043,-30.055718086566408,-31.09183828120434,-34.33336316628252,-33.039001799207014,-23.783984130326147,-24.84795790623546,-35.36152213820128,-37.281445916536356,-36.359565566650936,-39.55120413578217,-33.21234242953335,-22.57784751233126,-25.815293294470475,-31.732604522139845,-28.800382239414994,-30.364887241528827,-33.43241594700974,-22.970159996927933,-13.163722272648819,-16.19313667464327,-15.621573674586894,-11.631390993572413,-20.148597910563005,-29.100841713196488,-26.522928266153684,-26.59782265560459,-28.412499443051633,-19.236466138379384,-12.945945642770777,-20.31529380428151,-25.2757464685843,-25.594627280715564,-33.17451805482736,-38.47262723723592,-34.12915384876896,-33.675924744225426,-34.076258789242075,-21.40600724799922,-9.04652083025147,-9.300237095655712,-8.230408674617934,-5.460989396791133,-13.557215975914461,-20.455411201513876,-17.254836632373483,-19.938992031820515,-25.870939576487757,-18.51333755002406,-10.245021837016466,-12.47521140199395,-10.397422724535827,-5.19394818667574-11.134592542490324,-16.255458706397583,-11.051150955760757,-10.990245292832288,-14.524000753582225,-7.291273300419917,-1.9503467335192721,-8.960850502844472,-13.247541625108932,-14.691381244932249,-23.74516661911719,-25.301727822323805,-11.250313211012033,-1.637608770229053,-0.5666000469006099,2.136916254877361,-3.2723419551350688,-17.901452744184457,-19.73106756162281,-10.625129374567223,-10.517151118376303,-12.867503955803738,-9.670091582943877,-13.06958356826394,-16.63600896297226,-4.791297830917875,7.135028050852237,6.372120945825019,7.506922332680818,9.615271769729345,-0.7744846877740388,-10.717670444319323,-9.61595125843401,-11.801712350331892,-15.110627024930766,-5.234130875665521,3.8003708496648914,-0.8398475046465341,-5.154785670538928,-8.90040853608004,-23.39290010335814,-33.17187551745533,-26.23200326096275,-19.64395323375036,-16.795964998177702,-6.382864337993576,-0.6417209691284795,-8.4539919451115,-12.350416283093885,-10.865569178513702,-17.783940270046184,-21.45021342245715,-11.136936767337863,-2.7118413886826978,1.3932839094092073,11.765550007848864,15.817533530684864,7.243495077307779,5.951789276824294,12.50651991656612,10.982285315961269,8.839706478739387,11.08436989367082,3.216792282525882,-7.806732366722266,-4.461016622158927,0.9438063969724311,-1.1718237013403625,3.3532696130162476,9.762346629946677,2.749834436529092,-4.132582197235397,0.06231290506506948,1.8026741582066808,3.167600218154656,16.011296757793403,25.49401728839009,21.065873024598396,18.230726928999136,17.126282100561188,5.286826430140171,-5.494160107330865,-4.849892291035619,-4.631571625411134,-3.571197324777991,7.686007202976496,14.164154148514346,6.7315097864307445,1.7336821061585925,0.17365373395181755,-8.907921448883805,-13.671000607215404,-7.62569539475675,-6.696568331081316,-8.289578764732815,1.4088882663714473,10.217999134264591,9.899739821874888,15.467740169911997,23.41355307331501,19.246870432170056,16.322349909444128,24.41707597993519,28.208741019299865,27.799714206908085,33.2770957647817,31.171168517543236,16.777936165216733,10.852378298797964,13.274101504886339,8.569148463955434,6.017814425456422,11.996747926805316,11.843991969980415,9.563575047170133,18.107478073669146,22.722748948798028,14.728001383360699,12.341699613585288,17.170030747594275,17.960288166617545,25.02105191621986,42.83702508517424,57.723158358594155,76.71698921619114,113.80583496665999,152.20962968608268,176.42285747726595,194.9655729768476,204.59462406309882,196.5380925198392,185.38539520989488,175.4569249332909,149.05944335660928,113.29004853257877,88.08590393794336,63.07751035579935,29.074636538575156,1.002937445525328,-22.539621655651935,-52.75644754903189,-74.86268128764735,-82.5788699551138,-96.16434488862384,-113.34824966945024,-117.19867532238487,-120.92863311855591,-136.5278557787309,-148.41261433241766,-153.88480213415747,-161.64500577866312,-158.78859452534888,-142.0414926420062,-134.12885977780851,-136.4209597266476,-132.05524060715175,-126.45422810767454,-125.81397037246266,-119.8377916809483,-114.37837881234286,-120.61200254294549,-122.29492900116648,-109.12217739385977,-98.34466572338557,-93.05738886333765,-82.83645418037742,-77.106930046103,-78.09934413942703,-68.55892484180664,-55.524369542498036,-57.000791865615426,-58.58522672307476,-47.021249320955604,-36.37623822568996,-27.01069649055523,-9.904953440995296,-1.3399899838654235,-7.380193772512573,-5.77184113667467,3.8438458373517936,4.5886452591813205,4.873243920083005,11.308334169345335,10.561153625815109,9.86599751362523,25.064209049543685,40.707050776580274,43.54778001472355,45.16481826632012,43.37996512976203,30.35034525686811,23.919552548534543,32.49604937083746,38.72910100926387,41.64026160066972,49.96660738729837,50.488511954358245,39.498974242972096,37.15754213328911,43.48985976789775,44.60254654684992,48.3808269654169,56.04634308309265,49.9555865372435,37.567774593949544,38.490533936612735,43.00271840222557,42.34427848421023,47.89938547164941,53.47442728644619,45.88956099223902,39.402676717276066,42.8446306653857,41.2227166317519,36.709937440142156,42.12605881647001,46.34293567118364,42.7593644309061,44.98069089478702,48.7274282324207,41.125548832472795,34.45144510848715,36.152472279923735,32.51436529843088,27.348026210060922,32.44223321742415,34.89330878456236,29.497654638644352,32.57868168321268,40.31939716910664,38.60784062864734,37.86329691376437,43.66648913637336,41.543457198533744,36.02922241771129,40.60220497518601,42.554125039537624,34.64845096851658,33.1341417347855,36.191153418096064,30.41325851535193,26.24778608237663,28.643426366369034,21.97331447572462,11.942262252482383,15.124391366122143,20.083058909366244,17.291505907735576,18.039191116087192,17.280904098675318,4.644425181097665,-2.762125247225955,4.546984141248554,10.147103138766845,13.412032619227169,23.9130034603628,28.70412090644183,21.87818874114088,18.96187159914441,16.815602873420712,4.013808263234551,-4.706234319831951,-1.3120481456717001,-1.9979467397381512,-5.842751297259031,-0.6680189002072172,2.5755047564309668,-1.7048067921950594,1.5983821097091249,6.634994258612434,-2.391812719864999,-11.992344874680322,-12.299770737629702,-16.808930713466147,-21.01973802845301,-11.321920811889584,-0.7792514144417166,2.357673304885647,9.76040401616894,12.40881481876757,-3.951473187341959,-20.94122090250317,-24.8536791395628,-27.780205802420596,-27.54543549908001,-15.752072398917207,-8.428920389736067,-12.180805047243975,-10.53471632979696,-7.0086940181949675,-15.376599904142523,-22.87955053687557,-20.704859900877487,-22.57526834237893,-25.396555906207954,-17.23635449724498,-11.984289977922089,-17.27451937237757,-16.87331691729217,-13.465356617662536,-20.835370766522882,-26.696638885282674,-23.695449092643564,-26.39084475045999,-29.665195326037313,-19.974715159190154,-12.452842099979629,-16.44053835647311,-16.510964767517255,-14.583729254184036,-21.835838992672944,-23.871399381821167,-13.202411381398743,-6.930249848588367,-4.2386407021946,6.241762894694871,10.283083093957401,0.931448624332154,-3.4814199857396364,-4.15710381086319,-14.19679203813925,-20.181166228734245,-14.40719672337733,-13.475110227199568,-14.938579870599463,-6.766842653384929,-4.5058284270916715,-15.75391095101843,-21.085531176599073,-20.129200305335775,-25.915372501236817,-27.391686467154493,-20.069653764753117,-21.54112600196706,-26.405616821520603,-17.8102388986539,-8.487284779094972,-8.525074137001829,-6.0508356779748524,-5.660096419145131,-17.06967116132887,-22.444411928506984,-12.702498599079782,-5.903823309721698,-4.16945559199602,0.6794158644528623,-4.039187370600224,-18.660758215162772,-20.76316389893342,-13.37435116173279,-14.720405079479793,-17.98375138849956,-18.601094857406146,-27.889090311823335,-35.34627509504226,-26.164813366842814,-17.71108206590199,-21.29164988844715,-22.212323105685748,-21.809341160980278,-29.484703183818738,-30.79805873080383,-21.705045468352953,-21.089799259501227,-24.72914796975344,-17.134840492066516,-11.247783934271382,-15.344605998017034,-14.019519813193636,-9.917805723924653,-14.289185760741756,-12.710602378135384,-0.9900300472642725,-0.32753215753114007,-8.790278037541386,-9.025427922088364,-9.256248236684893,-15.186868517062596,-12.030081652034085,-4.6962572453317994,-7.943667677116403,-9.290115830553118,-2.0814303331135964,-3.0107278433715305,-7.431491201925699,0.43480472933007075,6.897476372176321,1.6930201922263897,-0.6027852546120366,0.07607099045894183,-3.305620751033841,3.93823434187197,22.807424832580008,29.82527998866991,25.898875125208065,27.846858466648033,28.122864411043075,22.034787267043217,22.514008434002186,22.1101817870668149.8069227563049,5.053203518473107,16.232083306038735,23.411565294385106,24.93535316701641,29.454195863071114,23.507172413697685,5.5707266306731755,-1.740163866670245,1.4557772098419275,0.2675956703618094,3.6645665319977763,15.19581643361599,16.80219816228152,11.852959682332568,15.424286125088148,17.036934806802986,11.899133214350876,14.961131238627281,19.733467131934496,11.58342740824167,2.4656174145338974,-1.0346004394995187,-9.808208031264131,-14.62465526964959,-3.762987508868062,4.856760400130653,1.7709147835694916,1.1866174753695584,1.0205964454511947,-5.827324827556848,-3.8082705515148696,8.270747055020598,7.571324073560511,-2.6646388670379633,-2.5564815015684346,1.1900462767608295,2.6539960071766613,13.357022209133966,22.552186457469915,13.99408182226011,4.772083107625206,5.653894254574458,0.9037664302456268,-5.616493495928168,1.197474849657648,9.347423179063856,10.696324007385687,17.220827460071288,22.068667252150007,14.108573753757646,10.421953194441903,17.26840901062566,16.766817986299767,13.477957862026283,21.108577175058866,25.94951124484555,22.075991415587513,24.311226676303114,26.330598735471014,16.729368645029545,10.923559339403006,12.655087982639943,4.451360357706045,-6.235822334084725,-3.2982096208008302,0.4930031105451933,-2.336529303045018,0.8592826228116688,3.839522195314786,-4.450973631886733,-8.2997298792241,-1.7669682919175815,-1.4302577614891243,-2.805690637646364,6.097197705822035,10.627880265819218,5.598661173937709,7.815981497748652,11.962061016913452,4.022855165945009,-3.312379778419994,-3.626819968145665,-9.691016432777083,-13.97345461074953,-4.807152944459058,0.2540864123457255,-6.847034599661512,-8.606928651880358,-6.008379465899263,-9.370411021396349,-6.470987446526049,3.976840372908408,2.4570953125057136,-5.50872233428608,-2.608055163120166,1.3035955774280708,0.7515554638389441,9.319575589413194,18.532092359599655,12.224773288140799,3.5315437472900033,1.1812256168278659,-6.715304562558149,-13.556161526372527,-6.890161782875721,-1.623525991937648,-6.197384121750326,-6.800471046095329,-7.0727958065794905,-17.015697525683915,-20.984362225905087,-12.958552582897923,-9.808074452411631,-8.261247402038343,1.9196554179670522,5.394566227776047,-2.0723428489767506,-2.738027278580705,-1.6258856793289127,-11.908285825624903,-19.284638804146088,-15.999846654185404,-15.321737412553425,-13.07871529681001,-1.033819463794038,3.922631087373443,-2.9408618611982096,-2.991130050182568,0.1393435027085459,-7.388550439478989,-13.568034805170036,-12.274771979707463,-15.279376797145586,-13.879340163616934,2.2312405992687516,13.511190782196788,12.29588093969096,15.938979847023353,20.649376174647685,14.438595012581072,11.689209518215442,18.10190904575796,19.463736645802967,25.520962742486073,52.60573905198931,84.87935152390006,112.10865956686587,147.16638255174226,181.67729063498336,198.81801149142876,209.450311995829,216.65891998890316,204.61462876938543,183.56937496567664,172.16282422324286,158.3828297989773,134.61916638085336,113.1509599192805,86.83946262603088,44.78240934961746,4.569459039332929,-25.237507873788193,-56.72626654535367,-80.87808496711646,-87.06090553655825,-95.4529200057254,-114.31770966504445,-128.08740172575364,-141.5386105095728,-162.90078981257847,-174.75936400069216,-173.89521711155766,-177.83326566592785,-181.14884236550796,-174.15603865037082,-173.49947485112577,-182.4734571147463,-180.18960414574116,-168.66131879663976,-163.27161325387823,-157.1054755625065,-149.0861770587216,-154.0666263935464,-161.68848253312692,-151.89801495409506,-135.2484444475495,-122.58353023605514,-105.93844274456605,-93.72837286797551,-97.60961850060835,-100.85687295386995,-93.92084665035435,-89.24809173556557,-82.4775015339786,-64.94635876704699,-51.53728271512772,-46.17747810045751,-35.415845710333905,-29.064763023257086,-39.71818138343283,-48.83176080702285,-44.82439767287439,-38.44821369214244,-25.361504512845954,-1.3246193791167808,11.63238652620629,8.377314582647731,11.317316385201975,19.743615150927216,20.339499229996346,23.56689971729238,32.14394393412942,31.170836164250943,29.48569989737928,41.00131639729802,49.858143790317115,49.31104821860522,54.801133218789445,60.15967304204537,53.413199505877245,49.813395948539345,54.75546325860934,53.3038998745453,51.63623485508192,61.10028749949147,67.60698460163037,66.65679243814432,72.46707186569773,77.49100650676033,69.3701927263446,64.0066703243278,69.21470738179454,70.38561141313694,70.05302777654451,76.0251601644581,74.65220888465754,66.1771096745145,69.32685531077871,75.41968705669902,66.84268640442085,56.07611432845796,52.41676971479052,47.27869450760323,49.0621585474485,64.17302149787227,70.58481555888983,61.81043661173613,57.27406839726369,55.03988568190684,45.15184487486153,41.78177745755028,48.35051395990277,49.485377690002835,51.250772650349134,62.38828754785249,65.5614510202821,56.71921346033721,53.4441411174411,51.90326784186502,42.912075205409025,41.900817794107894,52.03835022053148,54.992318809992874,52.931874182970894,54.58890326330314,47.72713673926124,34.895337343744174,35.85253856559619,41.429921753374146,34.7006019116617,27.581933444815093,25.504945930987898,17.25898833804236,12.886761941130725,23.03895758761014,28.893679336886606,23.749277479219934,24.335420697328352,25.230296090155456,14.213725005597727,6.735008477038068,9.319747260500932,7.646855295081941,7.446453742491458,18.10955853945287,22.569041111968293,14.696901267735374,10.007323847773822,5.388072911828723,-6.54900449936466,-9.284304673834484,0.8561682847520702,5.490199773248807,6.786105430009174,13.736521192367274,13.244372956456846,4.787271982386357,5.8182443937801365,9.477350051193604,3.1003213469435043,0.40606630984274994,5.428840706904949,2.1999468782984875,-4.460271527372144,-2.494093460134083,-2.216855761953998,-5.08946765945502,2.1746658926422207,8.901897751565086,0.15107115815138972,-10.553451512436599,-16.97163183531877,-30.474193637375006,-39.74243188234453,-30.14752789451167,-17.4758668782569,-10.637937899023342,-1.1395845949412466,-1.2893196459186678,-20.712683668936393,-36.10477846499607,-37.28877502381688,-40.33288079323939,-41.97267360082758,-32.82546260681821,-26.75305752373982,-26.663493504122766,-19.587674586274957,-16.124174600925432,-28.577432756132747,-38.92221235341465,-37.792602249101776,-37.55870284158239,-33.826591945205514,-21.099537013513945,-17.442979228938576,-24.247112030737142,-21.790086019396227,-15.875063924634924,-19.771533424031393,-20.79290450016868,-16.708853961019916,-23.20212716333339,-31.025817652805387,-26.511343355580685,-25.26939017547846,-31.98524915049374,-29.204672407191946,-22.977177947300554,-26.949287671900308,-28.220837932848603,-23.698202215341976,-29.20259390325385,-36.29827995047851,-31.004017469865815,-27.56903245824517,-30.310382972338175,-23.69814837036243,-15.426466048999295,-18.674903569912715,-21.120315358805982,-21.273219186170223,-33.506569051406174,-45.42463842571002,-39.14448362755901,-26.671679869768372,-15.282001354287285,2.1432541500679765,10.069712205394026,-5.251128499328448,-22.341306527066042,-27.141522458085255,-29.119060056929037,-23.349051075043793,-6.123702893961423,1.2474693435726387,-6.084342232394063,-9.102574297446726,-9.981162554506577,-18.644242524563836,-22.604710555247806,-19.670098838771256,-24.268715508558664,-27.630650063145204,-17.073457763104955,-7.717986506466343,-6.171088879640866,-1.704456973070537,-4.160986650371587,-21.682263085004767,-33.248711698496344,-31.611179989581963,-31.447422176172324,-27.804052920253483,-13.763559927754546,-5.994670522401137,-6.659973295314063,-0.4620710243853763,3.2720417630485037-7.028824146312109,-13.917591214422622,-10.044453925227472,-8.24424759656387,-3.5791016195231036,8.977597472193699,10.885875103990534,1.0170778035500443,0.40797742846132,5.343693482210247,2.8702345490504233,3.893368960027635,9.853177819948128,6.016752804544345,1.7859710087512974,8.861350518377371,10.364702103230576,2.3917586833946434,2.281821506593897,3.5600592262965876,-6.352471604970097,-13.704863383895823,-12.990672238450145,-15.004654502636116,-11.327071051452323,4.253356067336557,11.130272055886897,4.4550082078530195,2.031120829211636,1.3824321493529905,-4.602957408229165,-3.148907284155541,3.2714197764309834,-1.3513860006034482,-5.869620712989029,2.2348436993769965,7.41070042152146,5.649339290294209,10.035520774188829,11.652302491290689,2.9775211444744576,3.0075051454774737,12.746003014396932,12.799455858163686,9.634938718875683,14.962643940454702,16.44348222702379,13.422588166696567,20.132166049866463,25.997253689131707,17.75137000655196,10.944204407885,11.810910637991192,6.9760237584934615,3.745869933376458,12.629756385452733,17.685663866524855,14.13136238609627,16.53615041657082,17.149198785473036,5.194649193390676,-2.241668212444243,0.24322468569048405,-1.4578786821291374,0.5332869615264358,14.488193419491306,20.98100522080872,15.740647094650123,15.996565727783462,15.945786866944909,6.128643526405787,2.130308473145349,4.975059489064535,-2.0117250658223753,-8.702823021286841,-1.0788668487446587,6.446728914496793,9.152860763033683,18.294744123406556,22.677782572057822,12.39279630101639,6.007112055242811,7.810510117075674,1.54207830358368,-5.505650062088934,-1.5443817670156745,-0.5564575585966107,-4.9208506364811235,-0.02307120041270405,4.99758340998221,-0.21102723961134862,1.1484804285717014,10.454073668036285,7.898098763025358,-0.6093803460102007,-0.3088078116528916,0.007654258282424775,0.0555151938116879,10.81941817098695,16.856198263491713,4.750275466414683,-5.505395226806399,-4.975414545901174,-6.725970478839366,-6.0609871751846915,2.6839773078614293,4.076753517737534,-0.5546627072826267,6.262057000395235,14.832689495046319,11.051046476957607,7.824624778601715,8.627372786235721,2.4767736067567827,0.6851433718229096,12.23492973235389,18.85836029752816,17.355487140731114,22.84938280927289,26.50216315065751,18.240233174090932,14.861948736669355,19.2915944044349,16.465417374345268,15.04577348394422,24.31159490482681,27.7626625818604,26.359742839623983,39.89182991843585,60.20451843753585,75.52333877963017,101.48042200263437,139.8781141657168,174.18074743696394,208.67547536169616,243.6466964180848,254.66983878735235,240.25456344619832,222.4112741458419,199.27408461473712,165.86565740413573,140.59909355991056,124.09143750669247,98.2350554450727,69.9542142131474,47.4599008293488,15.632074045249365,-21.362788199421495,-42.86608722267549,-59.144607703424775,-86.03949457548028,-111.36410165166299,-131.87276725200618,-156.88046345959174,-171.89227522236706,-168.50457286326287,-169.50822786661257,-181.03026065070753,-187.71763563732804,-194.95272817771445,-208.25970256718568,-211.10067443909915,-205.2226295923377,-208.81334194919543,-212.84157810826923,-205.380327712958,-200.02044089477297,-197.09137930181143,-182.49068695658582,-168.38295093641256,-167.1533555634823,-162.80960386797065,-152.71318740186882,-152.00641846344064,-151.67723897472166,-140.0525952344415,-130.53273702860977,-123.5230070689457,-104.29755563328793,-85.18840518617229,-81.22796851006694,-77.87172284836859,-69.53028299274646,-67.15103483958971,-60.92133928145164,-42.43984758838812,-29.38254637544831,-24.11649527562501,-10.461543899813904,3.3942867085572157,6.056584336209816,11.1124688800597,19.97003252891479,19.88421923691003,21.53319731379584,33.41138934202339,38.03351185003979,34.31347264673249,39.23286591046192,45.66288598960409,43.37570691405824,44.70489506872813,49.069709893985504,43.78162573931813,40.19800910246374,48.55554299600131,54.40380998279147,56.31064792413113,67.36321510480539,77.2275347558782,73.98065359105676,70.67362923813259,70.1384532334086,62.8717769305151,61.80495744792737,75.28969131643578,83.59340498099237,82.76683576505037,87.20703360611469,88.49620856706146,78.74226567920078,74.96962538245423,78.22069174208069,73.26714935076197,69.30829354473903,75.20767048394043,74.2270921920235,66.06474749998881,69.17566428671283,76.64437798870631,76.0117847757156,77.24643854643278,77.88159355382567,64.44979131043176,52.60414901794276,58.42861848610046,66.41898350585325,68.92456449604342,74.29290107572787,72.69667462999132,58.105119806977726,49.223147592651195,48.78408285308106,42.39068339923474,39.11685100090391,48.91256361154275,56.050420706599745,56.4824441340147,60.89477986834662,58.93680151731846,43.561005156439876,34.90156668062052,38.03506263868927,37.73461331302019,38.97877892201016,47.05376072970816,44.65071515051859,33.84393442163965,35.81722180223048,43.61317674615105,42.802486590710394,42.5544541811027,42.54312838195533,31.746400023677815,23.319966933278582,27.46444756667613,27.263176897247206,20.701842428223294,23.248403829122207,26.776543235980668,20.47323882802739,16.609715383944142,15.363110725992374,5.250381367788391,-2.359513210817247,-0.8753815966899534,-7.796195726657885,-19.609701642135803,-15.583251390655484,-4.505635029433895,-1.5037839613968431,0.470213563283425,-1.377162242188736,-14.55254670292285,-19.210407542250792,-4.515237696059327,6.669190615543936,5.449906068433638,3.913605000046725,-2.6945888497638792,-17.2300759743056,-21.699015819515594,-16.440052877109686,-18.724671988633073,-20.720575919382057,-12.78711243746253,-11.277996667027018,-19.000519333971905,-21.18271791018326,-23.568128025665885,-31.165938542117395,-28.278520003466895,-17.59707429237992,-17.273941117486046,-20.32513369041028,-17.96453972232106,-22.987336684282933,-31.820073409832478,-27.56550427464657,-19.766876629516307,-18.704482441682266,-12.110261393954051,-4.671887496117943,-13.607205231894035,-26.172079090671215,-27.33656996915692,-29.180000756508658,-32.13929655096989,-23.686310866095134,-17.53474288174109,-26.2056385897734,-32.578952222844876,-31.90547056591457,-37.185710951006314,-39.85472541018035,-32.13857316059634,-31.056514132626265,-37.11053398702567,-33.78028767001064,-30.444149479000203,-36.956810817597045,-36.54907206546244,-29.069718425181954,-31.497871381570373,-34.63514356296753,-28.723169477426687,-28.33101738204028,-31.708762913942994,-24.504068582567307,-20.563944606062183,-32.10072445323299,-41.31550781572106,-42.289703603744954,-46.37511352916739,-45.13716258709574,-32.900564279918314,-27.513939662051428,-29.283018248025762,-23.233198385407924,-18.890088296740878,-24.069342319032963,-23.244559754769533,-17.72556176948855,-21.355291594117404,-22.719538119989068,-12.968162498740181,-7.613569762897548,-6.878863999748269,0.9259808028594905,2.7792639250556532,-8.959364177802492,-15.037369104058962,-13.878184632677733,-19.958254428773056,-23.78374940654383,-17.703438133731893,-17.828435178599026,-23.25741589409595,-18.40973703034918,-13.17463988169154,-17.60251392524146,-18.26354649384596,-16.70231515817499,-25.586167845289605,-30.503829313006097,-20.199890960849316,-12.00220040071251,-9.776343178772384,-2.5584394826182075,-0.4966899868907566,-8.59281351963715,-8.905825442867128,-4.412306530538895,-13.060317783191467,-23.124732367011692,-20.3045854590367,-16.47078580779005,-12.994078623103452,-1.244724860741873,3.824437169921717,-6.118035255676675,-11.335967044868097,-8.174038364537786,-10.38972217242107,-10.34784644789125,-1.6110198932811484,-0.5085423825181223,-6.896752984755721,-4.931762069832381,-1.770612576804244-4.663091364996065,-0.912798209213959,4.338860724379618,-4.110920565712986,-11.76596151908396,-5.407744871444513,-0.07107833734381508,0.8858839448376693,7.664692579157572,10.055946939821645,2.8776164257547996,2.871179381069504,6.945307512927415,-0.4139179290018462,-5.695624019323418,3.0010941803551066,9.713833074921011,11.713994515644627,19.200220577003666,19.60846845424401,6.804427400177744,0.850798377264767,2.3271725717502187,-4.2711242601959505,-7.787701907184096,1.3914617835004948,6.619298347589213,7.045984806827028,15.762974414125075,21.404506532357978,16.3615218389218,17.975380716089173,25.099050995527413,20.702503595597065,12.984413814072916,11.133759924407451,4.4888551803886845,-0.7392684467315211,9.923822800501668,21.722317690833943,22.078648220390544,24.015615384696602,25.756155706163863,13.897250418621304,1.3177048811905032,-1.0464753368553346,-6.30584131923332,-11.208757079865617,-1.654708226574236,8.588133716495932,8.16866984450308,11.047556397619424,15.577684427767611,8.040931727794263,0.7726394971972343,4.5053127565515485,5.461511232673728,4.510702446934226,14.351054918789021,22.131878667703194,17.71335738116897,16.281081958145368,17.42781139200193,8.887089495431061,4.0877093498391694,11.99887503562187,15.60559762015787,14.419384332879197,21.578056216383384,26.539554643317175,22.480637100948588,25.15910981206213,30.96066422680372,22.801221135012817,11.529403067661177,8.78302716619671,3.4334486316506085,-0.11350771181149955,11.768312027020855,23.608431400035006,22.509118786018938,22.2152321966015,21.584748887608573,8.529202460952414,-0.9544502816045017,5.911431989574709,12.849133730597652,16.801121679367178,26.922182623382877,28.24361758222257,13.88895745975515,5.955742628226787,7.129920100562175,1.9921398260963423,-0.8700796976531809,5.398914398149985,5.1479168465266,1.733275414978361,11.816707633125155,24.844889261677967,30.85534702995178,43.67100599748325,63.21520644131857,79.33881687634721,105.9193041203475,150.1492201632994,189.63821307815886,214.28799449229314,230.02002868406615,226.66854477020908,202.44779739052913,179.70881155897933,161.80089694119033,136.06515557332312,112.56571858214514,97.98854649418945,75.58780066325444,45.637760523928925,21.625110476177518,-5.84898887961617,-41.56313376033349,-68.4056865633874,-89.18692787781038,-118.58756045892638,-143.3624025796499,-152.90145138579464,-161.5488999287285,-169.81806251578712,-170.029080802927,-177.14921112442232,-196.19982465753102,-207.12393560043762,-208.58357758730037,-213.55382379162003,-212.9557220717362,-201.78532209630245,-197.0962747870721,-197.7153717209726,-189.94991965560314,-184.44464213681746,-186.96579611438244,-181.02195718459197,-169.08974562499225,-163.0953953929955,-149.30119963160567,-122.59135676671946,-104.75715172267516,-100.09344527526618,-96.41008720550852,-97.8413535590253,-101.462854797112,-87.34554393515518,-62.4206434900176,-50.867318937657856,-47.37380074226736,-40.938830216878884,-40.43341004097613,-40.23974030280329,-27.0272177845128,-16.192495729950963,-19.893927093808163,-22.462071846811806,-20.419611163452174,-22.590368417727596,-16.66413572423252,3.597369426504642,18.30621232608117,23.62201837613938,32.83468977759091,39.76260050308714,41.43621856733152,53.69134406022478,69.63732332882036,69.22626310223406,63.33898711822382,64.87708916167695,62.73061614858021,59.95141238280222,68.83072546438817,75.50972061016029,72.98097049318383,79.27031503259369,89.93698027799167,86.18445713647563,79.80307205925472,82.29749736021742,79.91490918322988,74.31128520122027,77.10318982587049,75.95126835353032,67.84492532749468,72.75379897163629,85.83765350401589,86.82559036562719,82.58085933302618,81.03626649458346,72.33393605245875,63.363008248515776,66.88736739435738,69.49402115440786,64.82295100766336,69.44821235973896,79.14024380916264,76.14641033961058,69.26536317835618,67.18863579322635,59.39682000227701,53.66616895454618,63.67162417873739,71.04826176331397,63.63208423262027,59.59539972401188,60.35369274397728,53.34601240925889,50.158899271398134,55.92812343763674,53.243075005534585,47.102005872941305,53.3831006169972,57.73041259485461,49.745662314182425,45.7240809254467,46.26499822817314,40.74584559169797,41.662747884198446,52.825924593545835,53.80015294638829,46.374508599967214,47.13875660223156,46.842161195933905,39.49699351231801,40.64440301109343,44.85969409605529,35.39444050318002,24.91837111341109,24.061514373706714,19.512622253504585,14.52618002972029,21.302276271720157,24.706324039809665,16.250152928193742,14.126079105495045,18.227648855562588,14.110209762106166,10.608306354161426,13.092450706112334,7.116718889713869,-1.5506724594125854,2.9688269159767113,7.228013710418466,-0.41523085421706396,-5.959927180482306,-8.452826380176605,-16.60549394359714,-17.080196147127293,-6.3626994831248185,-6.4405349497748166,-17.965178907110325,-23.977850782271748,-29.186097321080194,-35.83768416255694,-29.03308646704123,-17.01711040203731,-18.83487333114494,-23.419241981201015,-21.150742064236283,-24.63969255970848,-29.052616657619794,-21.60341591235078,-16.336962321213065,-20.823685422167227,-19.965193734041293,-18.530295389152514,-30.610995147580553,-41.57475970046582,-40.291727856603025,-39.33271526545845,-36.19655189746819,-22.23672958974425,-15.199121832113551,-24.41360500702928,-32.996376979089035,-39.7320156416968,-52.0551593413157,-53.553947731460035,-38.215849231782215,-26.903199249388248,-22.326940781551208,-14.026013835496784,-12.84246172076902,-22.137785364163797,-24.83785520406343,-25.924702603933177,-38.85826133376461,-46.51650610918387,-38.55343316255504,-33.31476278765884,-33.573789467021435,-30.059480615425485,-32.66965059259339,-41.0309601497393,-36.070072297057564,-24.783913615363275,-26.415803215581445,-30.721448068894844,-28.05516927783433,-29.834360314527633,-31.473087025151912,-21.94324438444582,-15.78045695133061,-19.034169143543892,-15.15327192771294,-8.621863349627002,-13.79037228094813,-18.414800127938836,-16.20280002834631,-22.081773482307682,-30.130816549931925,-25.057677721180887,-19.70307576018978,-22.442619098289324,-19.1898678955066,-15.591566263486207,-26.053154058061526,-35.46359011734223,-34.61075004864138,-38.675027197805846,-42.50057462998044,-32.63271779974177,-25.426717372306978,-29.589391439325226,-27.371641033831658,-19.564699805065587,-18.168807403541273,-12.85909815639704,-2.0617160216916424,-3.344326264329728,-10.053255836491777,-5.040628919949606,0.36946406086442907,-3.043259540759223,-3.1300192343302298,-2.9710612415247515,-13.279599230895974,-21.299327734767374,-20.598657353287273,-24.820057234792788,-28.45784675837927,-18.90732167886967,-11.182122492394107,-13.608568205610391,-10.819488314251917,-5.198514379693774,-8.059905950819253,-7.881304208150494,-1.410242317292307,-3.7461645011503983,-6.84281270898268,4.413786366905843,13.79974567750795,10.009524538779328,8.113435235547483,7.555978719199614,-1.4002586228172915,-4.652807597989626,1.8966024653826876,-1.4429607305503214,-10.868759972840257,-8.988887117098868,-6.42841155281878,-11.606793699438782,-10.493714729737823,-6.1118156332255635,-10.197808024971307,-9.356079123922726,2.2788139241981122,7.228403456497186,7.390988932635024,15.765616320903705,20.496497493156966,14.989841281184468,14.675453728145854,17.021735915428188,9.559464383399405,3.6124689454454044,4.538465151245289,-1.802448351262298,-8.121752730264921,0.43022539674827875,7.969199603240283,2.9859499262407656,-1.1387034691449065,-5.714065232457216,-17.134116890595664,-17.192479465244507,-1.812737962260731,5.737294674560939,4.250525768136684,7.111493963879405,5.134402285537828-3.4359706226466376,-0.40924491045643885,8.72720436458042,8.408641884930251,11.024714619847131,22.051005426744236,23.477570160928657,17.313036175465122,16.715421417197568,12.73505279609413,4.373665045914581,7.604980075334714,14.35083314102999,9.141141722759338,5.202585045171348,10.66464585084965,12.3813313657396,13.56456904341445,22.970952445105148,25.752664581985435,17.55491593383219,16.860018330231618,20.82391891167328,14.484230121749707,7.573351140639771,5.026289762211217,-6.5812450469406905,-17.661999683117823,-10.048804464838392,3.8395215070036803,12.231497730324147,22.191294273017103,24.991208008667495,10.88952483436737,0.24749120222359222,4.013919596394322,6.067133213601895,7.352099135848798,17.441317274906222,21.606974430635017,15.652769180606333,17.64945319423467,21.970359611668272,13.572658941591975,5.873024729778661,6.313704222104729,1.6643296948636652,-0.6642378494781405,12.546981262665666,23.859391547179182,21.012553515018983,17.075912255056128,11.496442089137094,-2.03631446236348,-6.289925048492462,3.6967175645459704,7.086656048620624,3.8814234655977686,7.138802763958858,6.949805106622192,0.10136062795069334,2.2226569598849686,7.11099674185739,1.5030771901837605,-0.6761563635212211,6.457406264409584,7.008368208066025,5.380403958677475,14.057256490478375,19.503588126589293,15.172036498213643,14.983123482439884,12.966548967788308,-1.640186916673093,-10.184947460190529,-3.4542889538140753,1.229100547927307,4.027558524001054,12.538644660308192,10.817720504249444,-2.7306482186874943,-5.287444445700108,1.0297540085222425,1.5165684591978235,6.136511821763663,16.20313954900947,13.323643104305184,4.392838508690623,6.1755855666004456,6.571660982534067,-0.7728957055093879,-0.3565462015468599,2.6946415881604184,-4.6864796811977945,-7.955937350237552,-1.253342520374062,-2.5127795227354888,-7.658095339457813,-1.461776847357795,4.460911493539003,3.2643760288475585,8.215835118808588,12.62951701299121,4.338461953025034,0.5116771006009448,9.065947159670367,11.961788189184677,10.712231427173904,16.68693802589257,18.081145095778005,13.559281049164793,20.94983447136496,34.13296779826043,41.08965307114987,57.85657061057937,90.49587208941696,122.73374613167694,155.84403149012326,193.09282905242554,213.60123888788522,211.27459017406073,203.04328507729446,186.14257486248889,152.94804584998644,121.66960379884338,100.44224684787578,75.98498208586307,53.16186456603586,39.01363832897462,15.25856877270268,-20.419404796157778,-45.52410648353048,-61.28224801132095,-81.82346850181455,-100.24439474698767,-116.05542640909047,-141.23318250686054,-162.36808621161597,-162.68231431295996,-159.21308493597917,-164.5167501035765,-166.82570429074457,-169.05530399180515,-179.12453589392706,-181.69340693262689,-172.6756573263891,-168.37572849078336,-163.740197361923,-147.86891448877503,-136.40318305597225,-135.5459681832198,-129.4129643118241,-121.41379562338088,-121.34948361740501,-114.8369144928761,-99.22035213817327,-92.57373202299254,-88.6079346023264,-73.8097337704606,-63.55734465012932,-64.75163874277418,-62.65183454795501,-61.83878448567389,-70.0424644376072,-68.86278582787457,-53.50775499818306,-43.46069398908527,-37.66690819438612,-25.474666223855905,-17.34619896678488,-14.42663030836652,-2.881450070858455,6.511145618916554,-0.0011264338769376714,-4.946326796510983,0.6158245356625742,3.565396460893947,9.901993786717307,27.735250072411493,37.680549100896286,34.47195224887946,36.39119143058693,38.36616322561606,29.55290122835286,27.783561581812354,38.02332044239333,40.00351591795375,36.739451148330254,41.09635285286946,41.30554392829057,37.00860766527791,46.72157087598609,61.2161691612378,62.00627422273647,59.694491178213994,60.66197190084998,54.63511290727861,50.974817543182354,59.99586165584928,64.15584551855198,58.03995366736994,59.15093117323268,63.40587175438447,58.33688014097153,55.486770587901646,57.9265535993666,52.737554389325226,49.31019720254781,58.12972133784323,60.272870824066835,49.19683038888466,43.70136402365328,41.904268162643916,32.810833383916,29.88011270143055,36.18650595199499,35.206124843387585,34.38930030609818,45.73012549310991,51.872782664258,47.17256051878348,49.842051303466334,55.368969697508966,49.97054637170349,45.60917486546656,47.024382467536974,41.15702042665684,35.69867939227949,41.34090166115897,42.4167865228398,34.74420042675584,34.724481184569356,36.60893307988998,27.922163594816304,22.322421122349553,25.90752567758527,25.85503286158719,27.225032355324263,36.2919231710264,35.10977217235596,22.14801835300454,19.592816398695497,24.92924083645395,22.61701574067743,20.354945553858578,21.19333467722165,13.561272780633356,7.630484940814776,15.65292950113408,19.94151304677488,12.712155473170842,10.014494551404011,9.76668499691688,3.401191401535005,3.0423372827891355,8.16905350595109,1.8848651911579715,-7.93458083544739,-7.580310005167801,-8.258835818744519,-11.78073743795331,-4.965325293067124,0.9888895304107224,-7.267903552225073,-13.79968794382367,-12.309354898090833,-15.57040475182753,-16.0199536553758,-5.229295295668237,-1.3080366430102344,-8.196252691860465,-8.158056482877521,-5.706856248302582,-11.026548731831447,-9.5810691453104,0.6825048250714332,1.9627921218480653,0.5683961076589089,8.375060493000255,9.67460925315683,0.3025106648721674,-2.2206493926709427,-3.169067105895102,-13.224094882556088,-16.463545903876163,-9.700317225047403,-10.628145588434208,-13.112063489175771,-5.251520435638014,-2.26718943784082,-9.870522268769799,-12.109492015269506,-11.248977174222844,-15.62619993156001,-12.179545347189032,-1.7891664379972934,-5.465991377026448,-18.597742140760673,-25.85614467284201,-34.03423086983388,-41.05278022208727,-32.392490843939854,-19.76850275535606,-18.75924628798605,-18.07870149159564,-15.621252130636629,-24.911730588823048,-35.02359935355991,-31.635983283193376,-28.699546280217113,-30.110434813189812,-21.974463032122948,-14.281979738651064,-19.39519212672076,-21.14971724410087,-16.15029515166059,-21.10007535308532,-28.02445103344202,-24.3038789190675,-23.646546828849843,-26.90228557550833,-17.864601879472737,-7.690775131591942,-11.811466413567997,-16.173120400358876,-15.556932944540922,-21.0592884084619,-21.220278351549002,-6.148165527609123,3.086005191721741,-2.0769337056290262,-5.82851887091544,-10.135403830669476,-21.241338788184628,-22.919578990897737,-13.840604200080492,-14.345227731968874,-21.372312705758382,-22.19186696029356,-26.091864973069356,-32.455152723271745,-25.03539963267428,-13.537645073617531,-14.744153496456567,-18.312316128370494,-20.252663477896782,-31.48626897493879,-39.85042723221158,-31.402297918212263,-21.816917982733468,-17.66860641923975,-7.0195274630431,-0.3153367090482371,-9.331768482870215,-16.01200988172546,-13.976521372617617,-17.40567508058522,-17.88599127340072,-4.633731726319125,4.294021949037155,2.53277427780772,5.159032575756147,6.058139502353474,-4.4829342636216865,-9.956440338108504,-6.316506379078408,-9.501719544283192,-12.210116200314925,-2.2564410267215718,5.26326397883801,4.504405519588401,8.497908855346457,10.040495061686698,0.10954211793217006,-3.9314475520364778,2.0338373769643106,0.8612789995671297,-2.2484358372781594,2.665901664758544,0.907305445705024,-7.798680202914351,-5.4451657164162315,-0.5148728859747358,-6.344569395399763,-10.027100449047312,-8.790451683100917,-14.270817878465678,-15.318263892190616,-2.252955720455569,5.677652556778017,1.2442284381957252,-1.1950287180877002,-3.9159606310454818,-10.969588196245004,-6.736639918894043,7.2693000956703635,10.837859730312395,7.496656044441869,8.256853009392556,4.254357007410743-2.1187211087180793,3.8618833530703136,11.515054250592115,7.662898991832219,5.377553554637925,7.835404707541517,3.0170502400347763,0.4095748707632222,9.392618130511417,13.630515554880168,10.302925010766376,14.350660720408174,17.62566365695638,10.279104483933462,7.96914165966583,12.343195698913302,7.261830284656839,0.8622973531485658,4.942113059606442,5.910044252316752,1.2467573792418485,4.478324606124002,6.397838928589155,-3.29459355760499,-7.719175940916216,-2.3802410946929418,-2.8322550303631266,-3.5035824372436783,4.547291114502409,6.246767790926231,-0.31970877959034816,0.6565413816938561,2.3299656264013757,-4.458672495475561,-3.892058755805677,6.4417309974781425,9.708401844886998,10.631298154935301,18.18786055430774,18.46426478711577,10.945269804291073,12.878401122227485,17.224783575816012,12.61109670266871,12.713460689749265,18.317311897955555,13.1336660552058,5.115644073345486,5.675790670734843,3.155496828973426,-0.4110977502573563,10.810020294375704,24.946748558857173,26.307107391435693,25.82462321185074,24.68613758456978,11.555275450360805,0.07138373005954879,2.567894575831957,3.535038455275159,0.39184359627669973,6.592946247530579,12.22073002547308,7.047936496912601,5.795505974390166,8.913581443666663,1.5347157286112085,-6.077800089400227,-2.3804782755834175,-1.4106191801205217,-4.104094951253551,3.7080104935634566,11.269317871476762,5.891568828849559,0.5795510527842825,-1.9839581460556337,-11.778266884132947,-15.912146289995434,-3.9864629726003686,5.768559027464771,6.351100990923964,9.939320493898743,10.687772340320809,2.0662463604579,0.13631475515663039,5.629246005359151,2.888951477200793,1.8336962368891148,13.178460504942255,19.74504661112324,17.85134528520078,21.419147122343066,22.103512986050866,12.432184286211903,9.139493323432077,11.659413526339883,3.174046472542363,-6.01498280825732,-3.308777228942755,-2.6952336944224573,-5.819890969741297,0.770829821940834,6.233187662394763,0.7227172370998098,1.5277425368167556,10.12752167654062,10.521646569018035,12.58655737334654,27.47401830611497,40.01554059586023,49.035691121523456,69.21078804013881,91.22881359370297,106.04934138368517,129.9997581428219,163.19077262024476,185.9949814756383,200.65505647593724,212.44969313076308,205.71116232823005,181.9696885507176,161.73092062015002,142.07219863355633,114.89494816522591,92.95923862485873,74.51656014774727,43.422024598717954,10.164976772607847,-11.63315262479949,-34.247218064913156,-59.80353507989391,-76.35804302111534,-93.47194234541024,-119.70337703154075,-138.42036472145747,-147.51210681661385,-163.61428727525904,-179.7939594722251,-184.97887138696981,-192.0942287236402,-200.7723066942354,-196.83679817200425,-193.53994228609918,-203.05502747476362,-206.54666403532528,-198.1483948358853,-191.2580770345372,-179.3058177112336,-159.05484850794764,-150.75446883694872,-151.75020155855862,-139.52317366854322,-121.8205414632848,-112.87902625651813,-101.79588891514491,-89.86184141720109,-90.81744936192271,-91.76841780515693,-80.77723694914283,-72.64263623013575,-67.63886917051941,-51.696676801414995,-37.996874948183866,-40.446495851194996,-44.18965912188642,-44.539195745242935,-51.191613120925695,-53.19424364976347,-42.382235762585466,-33.33964292530353,-24.319772477915627,-1.3123535935474155,20.599201115364657,25.502918193931542,27.006065599786876,29.25340760183719,24.030292427454572,25.90993066674453,43.10845449145546,55.31442910313186,58.09687747275764,62.262971319759224,56.833275064223024,39.373958655062886,35.447479868379,48.10478584140942,56.140349221105396,59.77854720184403,63.34795365347221,55.803707142881635,46.59526833490123,54.353078083852466,63.96372960234382,60.134209978602456,58.32467640710646,62.2438268256612,59.401642687379436,58.64696259278846,66.94031276263638,68.85931077463434,66.1649931200275,73.65271537011841,78.66464251226103,69.68996291349153,64.02226821804153,64.88470163105927,57.66371391437396,50.74614044684,52.5377912060674,48.338430447988934,40.8757369001103,47.11383869702901,55.962524367051536,54.918246621116985,56.95323058961996,60.44524433322787,50.449213738820646,40.43218562419386,43.92551046047011,46.52981661233987,47.58191107904465,59.58555134090362,68.29070924929754,62.48201655148283,58.90040383695128,58.365431319321004,47.36002002138406,38.9770450656744,44.46747424950132,47.72448547502522,46.713970322216966,53.71282652649012,57.32760013875508,48.355362436406246,41.90849328529205,37.60213794489495,23.091657303841252,12.508771494788776,17.03408662893997,20.628219174068107,21.43675907428703,30.387504219755527,34.447843487320824,25.498942623227347,21.203516973498523,22.46103105082523,15.887927204884845,11.927350074595033,18.198886826027326,18.248357100203357,12.862790696417951,17.287423096016997,20.655109004043595,12.208595198459083,5.834151860031104,1.7495788866297495,-10.539650529118699,-16.61502344651956,-7.704006491209439,-2.5273535096814532,-3.8365314987109933,0.9640139845619289,2.1211656114547233,-6.785375384040014,-9.312949935694215,-6.645576488038847,-13.134315147729344,-18.34829896154026,-14.32104056306554,-16.594325153569784,-23.65313410266546,-20.24982203721442,-16.216064678258032,-20.096594934181017,-17.92246154406511,-13.140942905731142,-20.847174102923994,-28.458763469107605,-24.79089173980044,-23.49416293062031,-24.59609055823671,-17.87302440140498,-16.813909316038245,-28.3771677545587,-32.53076387767317,-26.58610897742608,-25.451448350191505,-22.3947092491225,-12.48384936239788,-11.973153082497962,-17.77025437365262,-12.856460438981632,-7.048360728127273,-10.042247299345988,-8.439028923165997,-5.5466834120265585,-16.346653046116945,-27.538544781576256,-26.43137172711659,-24.854149812969787,-21.97428373582207,-9.808712181794085,-5.312665109079443,-16.677430410446583,-23.664684016192584,-23.0307092389256,-28.234435305680666,-31.376930198655078,-27.348889211133237,-31.380304685231373,-38.676713586581705,-32.84506092092576,-26.518416814797767,-30.339295242911756,-28.16756032396386,-20.12349015177719,-21.62841728264121,-23.51002231953617,-18.06081052044937,-19.35809997793445,-22.581084305290187,-12.812773381630821,-5.47758587087487,-13.243839756176165,-21.006404563410236,-26.582485126697776,-38.2287847780476,-41.90969028601552,-31.82356439458546,-27.064537269246014,-27.731037653518555,-20.062266931333077,-14.822032867336574,-19.600269602802513,-19.176961834614588,-16.220795159514488,-25.051847459462696,-32.14611021641986,-26.4290947725638,-23.34345416295305,-22.760435716583913,-12.444688819207284,-6.5280648933902885,-14.029875482444716,-16.544572798858276,-13.509507921542877,-20.297654914105905,-27.2337290796273,-25.127217076915436,-27.30011949705624,-30.09318005784776,-18.431539703714954,-5.770127801000031,-4.637458269930026,-1.8761416850834407,1.489840106531936,-6.551870359468021,-12.047941474575488,-5.227160770506024,-2.5768587166638537,-4.633307189423062,1.1493090777955959,3.6197901317569565,-3.2805124573542583,-1.920172535770488,4.9807354437815645,0.012791040222441818,-7.0354890023514365,-5.962428521104506,-8.297896149476193,-10.00632712156229,1.357879669266218,11.028807769158748,8.584878875053354,9.315087408435776,13.237761330058078,8.582047284988311,7.311009573447376,15.599078292594397,14.75394871139629,6.286612269260823,8.122766991025745,12.475678005932195,11.348089605498874,16.52894242514307,20.53076408609161,7.528125853927183,-5.963181924185163,-5.594032244508431,-6.298801937157997,-10.411418908503963,-6.466613239335564,-4.182432288384116,-9.532454680817459,-6.736980049155587,1.38142540615338,-1.9867509596525967,-7.14972997330948,-3.708694084190854,-5.016979327216584-8.87172514370577,0.39849841393961505,11.626356540670324,13.121946160763978,16.517051802252276,17.85474372952519,3.579626727756837,-9.914461262997971,-8.135417143046052,-4.945962953456009,-1.5981203216185533,11.385873906768055,18.43006029102676,10.984572173102197,7.672969625374524,8.712175284139997,1.5044607107059957,0.06249073175023834,12.487116769164647,19.734103533755327,20.63751286029226,27.23788918654173,26.774968082030135,13.812040840004268,9.131112351857695,12.07652572132499,6.231062383179666,2.206023360694415,7.990759173793433,7.002602119901855,0.8032423496113312,4.168037564275635,6.100113072068542,-1.459560232354736,-2.568700109230602,1.1629483908032856,-4.176803708883304,-6.330387639019337,2.807083823444246,6.82501690933065,6.637433628310726,14.656649572093716,18.91631754540007,12.408303082089066,10.951075817786482,12.995316909684455,6.076480727770432,2.070125173985824,8.229665065107369,9.809066808427009,9.487847393758067,19.29444245735446,25.36654069739256,18.34590178518544,13.115576448673407,11.283013801969965,5.481869225022725,8.530832211106173,22.747812346276092,25.73589101157881,16.53634068140479,12.34730933967735,8.88806967760792,3.0361737856655635,7.552278882800855,14.071510027607227,7.1246835447264765,1.2757825342171425,6.980432833209298,9.076240536280022,6.72692647779018,10.250133267924786,9.676672040436237,1.6860042767461763,2.0969873261484584,6.009204787144875,-1.3892635843659704,-7.761442733805427,-3.399067473872074,-1.7186270305924078,-2.550920984731391,3.2196550423944648,3.2121768712925567,-6.708916787203214,-7.940757709974883,-2.5227840243040482,-5.989463239701,-8.106811996757504,-1.243829810634364,0.11845009378450089,-0.7629186662079176,8.067490693781194,11.794002408677267,3.636879928094371,1.4277460249813927,2.792085215055382,-4.292216986499631,-5.3880821282677775,5.635514751841296,10.542783768007569,9.457797699208111,12.573535059361877,10.024361008612491,3.504787587389405,13.814590549342014,35.64478519436536,50.21634676627777,66.2624392627192,92.11265568009335,115.969695137546,140.97730267042482,173.624683790279,193.4957561770213,192.81453648299077,191.63249258118202,189.49491587511542,173.53369107869946,154.77911968455876,137.4964971757783,108.70345098389328,79.76476028402129,66.95183737306242,52.73233331358284,24.474746342213685,-3.811068195521525,-32.10715381305693,-67.06474990650082,-91.87314475363357,-103.02023459596856,-122.58381455487333,-147.18988433155636,-157.52815586723202,-162.33879779400115,-170.1594448972526,-169.929859833666,-168.59734161806196,-179.59417643858114,-187.96669116427023,-184.8315797173391,-185.1474073524717,-184.2831290717044,-167.76326147473512,-151.02513410986919,-146.59885954138628,-141.9689444932605,-138.5264080348648,-143.56070930496855,-139.5611133815653,-121.00696161496064,-110.07606355647931,-108.84649644971061,-103.76319132237647,-102.987738515538,-108.6758725948466,-102.66756591879928,-89.39125049978679,-84.71390488952423,-77.58273529160125,-62.33054735216088,-54.620679863481215,-49.7525949212889,-35.033866754259066,-24.45020882841358,-24.212788776075428,-18.30501608680492,-10.116986449131083,-10.802766132118798,-6.391028624157624,8.143344190751364,14.746691469456868,15.011135057272403,21.129497386929863,21.943561840392697,15.141102732481976,20.768858312602724,35.000756781530505,39.47935947770877,41.582377384513265,45.82482644509505,39.66233848115844,34.38965086057391,47.961648359110406,63.59787542134306,65.93572077895558,65.813524755924,62.651753701009596,51.28785296845969,50.63349453106831,65.53492124347298,72.35268366563776,69.3881012456952,71.48120536757058,70.58913550533677,62.46557128832012,61.585540707429544,62.61913141144363,53.514443442974994,50.15829680852553,60.69068059778332,67.06107955711198,67.88776468523065,73.40911630558053,72.13395817671639,59.797647007548235,54.156354000412094,53.94410156609984,47.34888028493124,46.994893295088545,57.938046925084834,61.21063498876481,57.616963374330105,61.085869767900185,62.52231115422543,57.51921829249952,60.29706931483852,64.32225194406432,55.323617746052804,47.97152165742271,51.539209056956636,50.70676395410347,46.87314904595026,50.25889368539107,47.732631021115324,35.65698639100915,31.79147520206935,32.06501532660343,23.306084356366398,19.257460151448072,26.269045738556017,26.74155440716097,22.805347251682825,27.61426224664045,29.54927745419295,23.993485608822475,27.486086568821367,33.71617293071991,25.955020447208945,17.429627436476192,18.418934136062376,15.543690431306386,11.954544479878143,19.36030087568287,23.286558641095336,15.676169216372674,13.319576913965907,15.571270506377655,10.356259165773231,8.580268948180276,14.27646833799197,10.589111669176521,1.3047315705704179,1.169469832142705,1.6198944751932283,-0.8390793654514361,6.363867981205294,14.127647541309768,7.68499855810029,0.853072079646128,1.8446180685658002,-2.086476390329633,-5.163415876984774,3.377926409180096,6.799346173945315,-0.7877329420437316,-0.7975453553395582,2.8467587944881654,-4.5861102859565985,-11.097933900140076,-10.82781121851492,-18.712025501545163,-27.513811200655446,-21.317208630698598,-14.742636151013588,-18.123571492866404,-17.80330685295047,-16.809092227179633,-24.59211319027345,-25.281517165288765,-13.745313221132344,-9.211785019018182,-10.781515502798054,-6.004215495617801,-5.04552977355208,-11.589287233313609,-10.948758423825147,-10.488955394876815,-24.724314113810323,-38.07564180901163,-39.912966903654095,-43.02985643703053,-44.551204192809536,-36.18664988536191,-33.586390988885796,-41.43906200241818,-41.75843147999074,-36.80531902702175,-38.66036231061932,-36.37473101169321,-26.354132552053706,-23.598806809470858,-22.8031464793751,-12.347346533946958,-6.576299220315811,-11.729342165409248,-11.755579097332994,-8.771102252226159,-13.588959139092955,-14.775890364960638,-10.459649699229715,-18.501139588210975,-31.860833970725402,-32.226920917869,-30.187402104796032,-33.95335690287748,-32.34792385167201,-32.158654672033315,-43.68272365748513,-49.34408619247508,-42.28405140143689,-40.21028101367353,-39.140229747030354,-25.288869726462675,-12.94701174067316,-11.018878545165705,-7.227003848626113,-8.117810303770165,-23.255504040657925,-31.582294498736925,-23.436777936390826,-17.905536945348373,-15.117967410378338,-5.196200222391681,-2.320339095858977,-9.655043616418373,-8.138373377746241,-2.7060333543724115,-8.653347122058669,-13.543977856839595,-10.6670608765249,-14.068077021900406,-17.43442778529827,-7.727078471992439,0.26617950104546706,-1.3345591964584997,1.789370699032745,5.195518614828633,-3.5171393130996687,-11.47666938524599,-12.135576671943245,-18.814958761905313,-25.680640729125116,-19.490490596488673,-12.216526501747607,-9.810149301463959,0.48923607961786564,11.021460920329293,7.967863049343746,5.344810124510426,10.399553382646078,8.380525460315727,2.1671815139216295,1.9018795190930278,-3.114879769229736,-11.24622103416826,-3.1829372822246507,11.601385979155392,11.71380194010984,5.318069229564662,0.5401460964179694,-9.30994269471704,-12.48967842322294,1.120694035534191,10.615196696230026,6.514458092536032,5.1706513658246624,5.217183417987631,-1.3836648787752188,-0.324456544880231,10.504310879735414,12.6819503359092,9.59358861368241,12.716556086508664,10.306777021417943,0.23788187341075595,-1.708917387534683,-2.025873848992234,-11.78698538934194,-15.29940911574028,-7.664527608370677,-5.736332814000832,-5.907766862975188,1.5267518440431402,2.759223460404429,-3.3958482548845965,0.7126804667352671,6.678439902845788,-0.25738082699015985,-4.484327979507507,1.0025075558601775,0.28056420128117643-1.9238436620469008,5.582474886607424,8.072695970552743,2.0720387632046435,5.301012449907957,11.12425423963969,3.649346815911361,-4.85195405011425,-5.263106260067015,-7.340263152267185,-4.701381744258129,11.921302628872727,23.804966426570363,20.454654431397188,17.484408174778306,15.186009822433654,5.267218061797293,1.5100894319452605,7.1725400314434005,4.534495475735254,-0.5390930656007078,7.135377963000879,15.096429517326456,16.904755831972942,24.619670865066116,28.360627877920766,14.454696933017626,0.8300240256368476,-1.2881703150889938,-4.339706511234878,-4.298687343801727,6.160464675169072,9.192155523177258,1.329548283988435,2.5379212789624743,8.415068778692858,3.8795367029870507,-0.39269405630392074,0.5196961159572042,-4.506324345185374,-5.156572172842806,9.617085860649388,20.216832653333213,17.322295353507133,16.260192250162863,15.252801990542816,6.531002535577097,3.876720829135261,8.324954523419363,3.028728604043214,-3.9060215038734345,2.2567914680355914,9.577672109225151,12.434399420764654,20.97328005538717,25.805349388349107,16.499891584932875,9.477414646419271,11.254899282410772,8.450457152828463,7.764418577294212,19.66409126509301,27.149416908500186,23.6293809130008,24.864458313576463,25.977837177312544,15.446762646202,7.061835608776439,5.640659023905803,-2.460617403005487,-9.15489199191431,-2.3958407020348416,1.1505098933362485,-5.635273307034946,-6.030467800101709,-2.3060500052733657,-5.258502397255735,-4.048639085275235,1.2690213820997767,-5.74022225387823,-15.056302676575768,-10.396674806548443,-5.082940208601798,-6.127594150242811,-1.8910370157498138,-0.46309614353027945,-12.023578624968481,-18.967040072742957,-14.394240991224143,-13.511723773493731,-12.998653625139763,-5.4673203824668715,-6.066395244452024,-14.972375623818511,-11.796957127373247,-1.091945601739444,2.1204719425582117,5.644845985802859,10.369325589139205,4.035627018499248,-1.1002512799615198,9.940765623294313,21.884077066689372,27.396015683378163,39.7620084871769,54.06675083745331,62.53909224897022,80.87829359559288,112.24015114311193,140.32533510886088,168.341531033917,202.18532036617702,222.0726826892688,220.62016417316548,214.77355886355002,203.83138607799532,181.95552809544364,165.36977662636139,153.7599072943774,126.26455890217105,90.01642009497101,60.97707720399059,29.160374726400853,-6.177275388712122,-29.66959794989764,-48.62130321878005,-74.06798895038014,-93.94398434283396,-108.43037111400875,-133.67555897484755,-160.66194702077541,-174.72053695923202,-187.3572301848288,-201.55471294112058,-204.13576676081823,-204.26829869707404,-213.37722730021295,-216.92437394367897,-212.9858431100411,-216.86275660784761,-217.92636327312204,-201.94058193580076,-185.21148871106948,-175.64348821052633,-160.98108364216702,-148.27437897910866,-146.690436525281,-140.62696784018706,-127.415981421081,-122.60729090993672,-118.32833471577305,-102.75362747690794,-91.23664014214499,-89.24116357871873,-82.37571621139065,-75.9737248708518,-78.44982844409529,-73.63716951279324,-59.15813780117373,-53.30322701791251,-50.82894514106231,-40.41179084167475,-35.85583537999429,-38.15838950072661,-29.054865207705127,-15.797124175979437,-12.708855671252493,-8.790739939293593,-2.0436444569882237,-4.085022863861578,-2.0006158582890645,17.16557557608113,35.42823618973066,43.11552843077128,50.732316024099845,51.568518768795414,39.1642245697884,34.153935889842394,42.39949370972109,45.74672492485986,48.23549815103473,59.83211739506959,64.6806894976541,60.885956870967846,67.55513887018023,77.23636323607262,74.78796942307292,72.04971871289845,71.8969703833212,62.2165694990466,56.17535730235612,67.64927462785333,78.45479943190465,79.21007794890404,82.09853642250653,81.92366980563385,71.63721736868179,68.60279187187238,75.62040244156879,73.32107777350835,66.23842101291108,68.51562785140678,69.71394539752177,67.73224137592155,76.34607038463419,83.57585557771307,73.89703861641851,63.98711164654167,63.25918740185683,59.38030506752353,56.71716749693969,62.66709234720317,62.721226464696784,56.042367053662176,59.90679278543738,65.8505627127149,58.458728228616515,52.45599489174744,56.54918410674383,57.40674100531997,58.6768340933777,66.96100921102267,65.39019099102569,53.664024810087426,52.888875121274694,56.84055133447441,48.96865661507954,39.3741155356931,34.064455081923654,24.922208805304365,22.991958073959545,37.163372654569045,47.12984232946084,44.611706801701224,44.22887974025847,42.35752693563122,31.408363106675075,25.651259442230717,25.51709932616215,15.982009918880967,8.899967629005118,18.395781751365675,27.026431459623595,26.472692257673888,28.662492239631167,25.264548690794324,8.864821393059287,1.3343866763275474,7.764190148435481,7.9104284838103425,4.104418712262119,5.889940858046066,0.6667926275844303,-10.386586870300436,-8.369012241578993,-1.1681184605861212,-4.839299437584254,-8.37231846386302,-7.724642741252881,-15.452588032699033,-21.671879861482584,-13.890035343470176,-7.1786724558039055,-5.884632264291112,3.005927513253483,8.456339309602583,-2.2064374695423936,-11.661358369449697,-13.108501647919525,-19.487594086721575,-22.952465868243763,-14.566305420715334,-11.758770865516894,-18.78108364339162,-20.28276824815398,-21.710557870775133,-30.744401992693355,-30.93871629202007,-20.2407699177396,-17.9289472540836,-21.765724104455437,-20.248454343810018,-21.114360124230483,-22.593128667530372,-11.321567800255092,-1.0333528772184009,-8.746638235580408,-19.39536980301328,-22.63390539710224,-26.378039710808658,-22.453987193511544,-6.037598591477879,1.0002450658750142,-7.267933624365572,-13.800403578833668,-21.53570457767273,-37.978760547974275,-47.502388434019366,-46.05886785031965,-47.49327089564997,-45.48765240168745,-32.88176150402701,-28.723405961086474,-37.55784370285929,-40.10679656443999,-38.02518069043422,-40.9191755132645,-36.75063148510547,-25.965847016181407,-25.36595255483477,-25.773433589598078,-15.37859181621352,-12.329041341890553,-21.57747082446096,-24.025005303560533,-22.187956189932223,-25.452787411506264,-21.67674476829047,-14.058922710127831,-22.10810177152638,-35.865321894496105,-39.11875693361855,-43.081697839723454,-48.78899565304626,-41.16923636404553,-29.4604847772171,-26.690111642172326,-21.84202210066418,-15.516718364087986,-21.849251861049062,-28.648997058707135,-21.3887769271375,-14.317566059615402,-12.340123492715753,-3.525339344504907,2.0429355445962316,-6.068808441970381,-11.035160217969455,-9.018861479630786,-14.345930788872616,-18.302425928318144,-10.138305643112977,-5.732365444400167,-9.726425838832462,-8.254106053500966,-8.01504765726291,-18.18568894337614,-22.810993805580893,-18.00891623377776,-18.87144109849448,-18.590984277157787,-7.640581497485447,-2.5348838774978297,-6.758109037258233,-4.569719923914445,-2.389651897145134,-9.89669272684965,-12.597045362249899,-7.7448231143979,-9.131776338528965,-8.69924456966405,2.6852580386753244,7.949912701565912,3.624438057911341,5.775814015359556,7.571849873319593,-1.5062967687924682,-6.939247957931858,-6.3656553026779985,-13.321802218293202,-16.357837136621754,-4.045941426712828,4.324623297623741,1.918493695530447,2.775109120091769,-0.23315062599053005,-14.67188336775493,-20.56498813026995,-12.72206082531728,-8.848481383030848,-5.9125382922392395,3.8585667021779355,5.96127557528607,0.7780811066495854,6.667250407157259,15.510484764096097,12.3413294213107,8.562286356623895,7.3738974737662595,-3.1980767280825835,-12.321179788718654,-7.514552059257456,-2.494067401351839,0.17564250704212608,12.603576917190251,20.72175956209676,9.150792987700795,-4.792161053261573,-11.143895163562526,-18.786293678388002-17.619679702545177,-0.6144167955164228,9.941813677066568,7.571001097620968,9.09751451888249,9.616842128599496,1.2369143065039405,1.6731256770893022,12.964261425365274,15.51009822396655,13.567417878482901,17.81256010216073,15.914784966197828,8.390448646649673,11.015894621019754,13.260521680019528,2.8021679134599737,-3.3813615235857153,-0.13262598552986704,-1.8172316101710757,-0.8575513791145017,12.00041119449726,19.730840676069707,18.441642168502618,22.24100786631299,22.210663400990647,9.252156552998791,2.7122285769084558,7.40758668485656,5.692929919172961,2.3049089077889025,8.076169820086909,10.404462007127355,8.262736190635714,15.853463041406002,21.78278297622712,13.141033966061737,7.3012380803201555,10.123331614892892,6.163070410823793,0.31832619606337653,1.058238759206076,-4.632451143804139,-14.345699351772321,-9.571896656603286,1.1287139107283006,3.798557139279962,10.088039817440494,20.161900915859373,17.329157210869887,9.228605577692635,8.05507553916208,1.9860835830143975,-7.909127945666254,-3.804807557272459,5.62083554898119,5.444871772764152,6.784285380196506,10.56016632671729,2.8813701543837786,-3.7461482133509296,4.454093625883653,11.100068682154433,10.918345498473407,16.472121808467055,18.701579634389137,9.609512672821769,6.574971336449596,10.713543013556807,5.390807459481099,-0.10659013106032655,7.162622111789796,13.187193492117721,14.553814201524919,22.979417702271437,26.051288709492542,12.704065373373005,1.9997606105299182,0.2309707507627008,-6.472795347958047,-10.37934833076498,-2.569851838842924,-0.6749362549040971,-7.044758051774811,-4.039058851946517,0.8471867401857267,-3.12645574156946,-1.3645974929972235,4.670426261730606,-2.876894745384027,-12.522693973516203,-9.155418615075344,-5.995939783278395,-5.414610829149396,4.5992119529859306,11.71624524238887,6.181617283139634,7.096574205253522,17.140289993167833,18.305825871196657,17.42747999402543,25.981988289916384,31.072645441848774,32.844565884600605,46.54423424339303,62.68190882787134,73.1104665521264,97.37569374898874,137.47170339160698,172.13777214236222,200.63256591408464,225.45383550511605,229.28467268166023,215.09486083235214,205.8703207818237,197.4655465460196,177.9219418625185,157.14401406721913,132.7093403805208,91.86662927212656,51.94065763754824,29.421747585739354,7.710939122081611,-18.971136479875586,-38.64328655941408,-61.645046294644615,-97.52923619954753,-131.55437073278804,-161.1622674443663,-191.12005455401516,-201.5761710448328,-184.3757278159388,-168.6802982186991,-171.07403360503022,-179.77955451598416,-191.893974321721,-204.27543653000188,-200.70317154531165,-188.83817483314684,-189.4652416658493,-189.70145560991432,-173.67005026337085,-157.81995695571277,-149.43958341897627,-136.92912499750744,-128.2192631397955,-130.71457467670655,-127.816001808855,-119.24310764166236,-120.92792946209859,-120.92722421214455,-105.43151648707374,-92.16100824739385,-88.56994067499856,-80.6173117608443,-72.66484212009131,-71.60549896420486,-63.5665382330206,-50.585364947103365,-49.46867954925409,-49.212114371713525,-35.38686305998428,-20.367180358917114,-7.215467186489395,11.961368767330919,21.269214576843055,11.119431485989347,3.1086162268313755,4.097445946552185,1.8770203248751005,5.601639041927155,20.906072367415813,27.18546291286411,23.04266159702937,26.408629312734575,29.98466156139217,24.25811009286798,25.08444609938969,35.318125067706525,40.14159320145402,45.427991179989576,58.233319750079204,62.55906460672743,57.74403851771863,61.56599576375062,68.4797193652017,67.90085101988478,70.66820051810562,75.27031735748044,68.27496423791186,61.70002999636262,67.02100461996636,69.47281782360949,67.19308309135326,73.00291423348457,76.46901692924847,67.59432346131756,61.238800955009715,59.122044095610725,49.94749371209666,45.98840772939139,56.299419741783424,63.364529553923475,63.38954635121793,67.93221732394306,67.92050502090102,57.36282640436475,53.87396376522277,57.79605210124025,53.689900991957465,50.681362412236425,57.34219838146649,58.426458128360416,54.413948370419774,58.70323433088245,59.47157625935506,48.03424959059334,43.023871333813574,47.41121527510179,45.8659174859888,44.97356617265872,51.259277601970986,48.85291021708843,40.01838401340234,43.13458195830799,49.54455786942368,47.15239358927884,47.76567514923391,50.49384258210528,41.434953390648545,31.415768861082988,30.889271403481274,25.63875570966667,16.487126416654334,18.987549596034185,23.733086370034805,21.634007785329484,27.2785872270776,37.12656049625482,31.835482040916744,20.68905389081926,17.307198577394725,11.46445414158784,6.414313573147551,16.3427969829836,25.405737719713986,19.035312015520645,15.159558301262358,19.171466534779807,15.764428291406432,11.1147574339692,13.642053028585545,8.267591299135674,-3.529065490631319,-2.8356724685522763,1.039635077079693,-5.650301905672194,-8.596254384081137,-4.922363488912113,-9.35172221954227,-13.675107887629835,-8.448243964364288,-9.748881840796368,-18.811536109418654,-17.31508888101568,-10.195294516983981,-8.613428262270514,-3.4161563833865785,1.5017999194427614,-9.469526401503103,-23.288234412290265,-23.04713194930504,-19.337353596933127,-16.329919515480324,-6.7289482454333145,-3.4515912077332422,-14.105861959755831,-19.4569661014062,-16.5710183574759,-21.29447167109166,-27.0321221152674,-25.58564360159793,-29.94330883550069,-36.165515531069126,-27.340552984398634,-15.744194193847527,-15.995777501806227,-16.105873347657738,-15.536078763187383,-26.251169693958527,-35.12710874660938,-31.014824780332848,-29.041074610805126,-28.889877673284623,-16.18722410955571,-3.740209362531859,-5.132339800583058,-8.366559168157535,-13.059670654398463,-28.705910269892122,-39.22455586569621,-32.8091426342854,-26.789800382394517,-25.756654152087954,-19.07679130900755,-17.94355856070461,-29.833893630057922,-35.53789496227882,-31.205951192647866,-30.50107260407595,-26.75377398453238,-15.80946563102122,-15.680027780492253,-24.90816081549371,-25.00886385944764,-22.906451138413892,-27.503906933806658,-25.97475157846338,-21.269977679831705,-27.757010533028076,-33.688791945216295,-29.75016381290478,-30.736475637094827,-34.70359022436125,-26.913422172580127,-18.983408229280542,-21.899436036141715,-22.72945181237852,-22.879892726471088,-34.70434292398387,-43.57372919517899,-37.022040388040494,-30.95266737585324,-28.667363520641544,-19.2210138667267,-14.324323165030012,-21.39523391066743,-22.087908469752904,-16.77997960528638,-22.428734847786508,-28.551427269623208,-23.111009118311596,-19.132753869067862,-16.420835803778182,-4.756729582649337,-0.3463482944744585,-12.662833328699056,-20.414445868369114,-18.26522816596134,-19.665506825411953,-17.525426286738707,-7.010000892350495,-5.187723693131294,-9.960605525253412,-4.896403955301875,-1.3743624329240793,-9.574190189128224,-11.516427164080095,-4.449931829867157,-3.609477611852037,-2.607292424177902,3.4573574755401535,-1.6728231753036495,-12.952723934596065,-9.971465677556187,-3.313010882017319,-7.9301447790621005,-11.972187949776878,-12.596699885511807,-17.91665687657221,-14.321701695972237,4.369657643590285,15.62279548002573,14.362670427920293,15.509455686564817,12.731541001475437,1.3019979754564526,-0.36701348274269896,6.975894103895838,6.231441605964953,6.032562938546099,14.55685905713258,15.31389172834286,8.997110101543736,12.757108005478026,17.437363679827826,11.183023456185941,7.322101442688316,7.992144064205325,2.415621145730669,2.186440322750919,14.773096731365104,20.662763366797115,16.161289365303414,15.713018922615648,13.157467391819473,3.38073541120638,2.018936392152104,6.725550790554585,1.9886762130170696-1.1624087973107389,6.218744749410722,7.0851591011735895,2.1873107127359552,7.784805249242558,12.814585898234387,6.594521538582352,4.520150863295657,6.745433583283266,-0.2095547666848372,-3.7320056113435576,5.989142571077044,10.753994181698573,8.161074853583795,12.806335936467237,16.174280602155562,11.290711849651572,14.290386802554426,22.950777471190747,19.55014350265879,12.433602401190772,11.429510176387819,4.732610328006654,-2.5905821872791144,5.43410398300087,14.724417008559575,11.39819761333066,9.282517007936278,9.43550929121239,0.6147401449199386,-3.4385061653051525,5.811988489404891,8.57871910421774,2.9572107583795364,5.701442012744536,9.301021500493109,5.0707030781218245,7.0257299460085765,12.109432047108267,3.868990997926137,-4.96360651376305,-0.43822166593490675,4.018317431488982,6.018687988862379,15.131140493407099,18.086771902646614,6.960546850038502,0.7658051394095415,1.8340211376156326,-4.095967972068383,-7.496549258152473,-0.6135302688260498,-0.38772664438924687,-6.119846881837928,-1.2125137329633562,5.566795757175123,4.563568716395626,7.8735468693349615,11.143597592665282,-0.3440529937877219,-11.246990032874278,-7.039767606613174,-1.8295205915112764,1.6142014691142341,12.256011367687858,16.669545161757497,7.4921054617610485,2.1544191411835723,0.9220101312890931,-8.238019834289895,-12.110315442823985,-2.7246303185424945,0.43188889469710173,-5.170610654636667,-4.814797403637801,-4.658362712873348,-7.436474988288509,2.8903299149873782,18.057061567496525,16.584781759678215,8.786857881326785,7.7183767122830425,4.189135030545224,2.89991935459459,15.195243564594556,24.732095814487938,20.833624713655297,19.600524683855877,20.815319031602858,11.580982313305533,4.304454601061302,7.777161525561699,6.520430495936693,2.9775798352046916,11.345670549798207,17.683717267460914,11.912465943310202,11.317165201145453,16.36778839846395,13.828798583281163,15.400534200115292,28.307351750808742,37.109041000744526,46.38851295113616,72.87352717645416,107.89109001132634,143.30780493001197,187.37883507308962,229.12437235998624,247.27814451554232,247.54566467209915,239.31624904616743,216.75194490542555,191.35680761698666,180.62875403696256,170.20196994272266,145.55475859100164,118.37448426542878,88.37111290156857,46.129474937956395,8.807509321200481,-13.38208035292995,-39.522532911604166,-68.67574503081642,-82.94076502481295,-93.40149922733228,-113.08205382958093,-131.65139009102768,-150.94376010394774,-178.2917713275033,-194.49169252609866,-189.47986725916036,-186.0185472207482,-193.05473171868618,-198.71131892317894,-206.48350818651352,-216.79004403077278,-212.91857825477166,-200.40714395041138,-198.5085833158954,-198.3677146232678,-189.94549819517064,-186.02545664752108,-183.89698533439363,-169.48944836564232,-154.63651323109127,-148.96326913152828,-138.87252352226335,-126.74144291927021,-125.4941804544203,-121.97960074847164,-107.00155233253346,-95.99403303073126,-88.22855365925902,-72.68965646647094,-63.48987903697207,-67.94160537630664,-67.1713754252973,-59.72864898095878,-58.25909978149568,-52.428288297241224,-36.24574184842976,-26.749678617272764,-22.08835320930509,-7.23381228315918,5.294294424660638,4.641894241617743,6.307903573356705,11.390208476693934,9.372536239403905,13.839042568636675,30.450378730784152,37.54122567520718,33.943202825983114,36.85293816663278,39.950730097779186,37.95471090932498,45.1178780133221,54.458568929698714,48.18893519523349,40.10783050665058,43.6777178551714,46.518667273388516,49.99059037960559,65.10989584796577,76.38188664834632,72.25077128612672,68.04281111437442,65.44416921877655,55.353984242469636,53.4217469263361,67.90513315178183,78.49973012911008,82.07446491110043,89.81659534589194,89.2798086282877,75.65554966893356,70.29470617613558,73.85879506521067,71.68541272280407,73.34969633100982,83.19031597998685,83.1625535210182,76.91184850583639,81.0368314237898,84.03569027124526,76.9221141945605,75.18247594782262,76.82715832919453,67.86404583886105,60.636041165209264,63.68729688545429,61.76553186782348,57.80235856841677,65.58234691125072,70.64922393661321,61.89075505700637,55.010720095982514,50.89935778170837,38.77080808532019,32.78575722444282,40.618416131569134,43.00908255408265,40.129622432900845,46.774431041216886,50.55059916412764,42.055617062252196,36.89867913735281,33.78906970245419,20.925381344522602,13.58666961967231,21.725466537238912,27.264962181885092,27.186553904421835,32.52964028320599,31.561536046009717,17.39268411695723,8.6385379390878,7.165737580882636,0.44319506524171226,-1.2708884192291285,7.3356395041913895,8.427449746213208,3.910436772588154,8.240700594684121,9.321239392264584,-0.31748147223297885,-3.842093013839513,-2.602319345029625,-8.061729985460618,-5.748798381438481,9.67547588419814,16.610625835136368,13.580381547245974,13.530031541920856,6.795952842406226,-8.710949951778474,-12.307050532011855,-6.1511319160555065,-8.500309920911306,-11.566062716259557,-7.77123626945705,-11.242712736305052,-17.86807954292631,-11.548474063439684,-4.42777684302913,-6.975345425474329,-4.699769390653038,0.14311899966336172,-7.202518808047375,-14.88076347939541,-12.46842898232719,-13.113262361463944,-15.01959259766551,-6.2433924904794855,-0.129442956230579,-5.7949495041976515,-7.605524284306187,-5.720565785244991,-12.546922308746382,-17.416144799890393,-13.866980654360622,-15.997254247827788,-18.608189794615797,-7.811239125296257,0.889452301547973,-4.208074476155472,-9.190134066400683,-14.994327241705356,-29.961554457832,-36.34686389389779,-26.46426570736259,-19.836279200834632,-17.179020175117927,-8.341489053558908,-7.970248622896019,-21.370473581070666,-29.07976193088143,-32.14043944337698,-41.86366548419535,-43.512589446202284,-31.055292335175746,-23.336063801185603,-20.218256700487615,-11.563498538976127,-11.177920327537283,-23.070572942566518,-27.52758476594687,-26.850892471046308,-34.77735332653168,-37.570109263942975,-27.64953936055371,-22.965904485422598,-23.43538961528158,-17.243595602080415,-15.823139475820362,-22.43413047149832,-18.24092312252849,-7.371948322536384,-7.419638548706268,-9.930830922425708,-8.702611362855116,-17.214275115212615,-29.87358489713972,-31.007961966646608,-30.37169640714533,-34.21908367269285,-28.570582771231443,-18.743806769284134,-21.146521215121865,-25.97076716082804,-24.96367607547229,-30.159142335580622,-36.11143255506063,-28.420881061238777,-20.300310453109667,-21.435507770653278,-16.68127178054833,-7.925665815155739,-10.002314419048087,-13.137798884112783,-9.933721865987884,-13.259884105174045,-18.494838957467646,-13.060396951342867,-10.457588231811538,-17.894022078539162,-18.45014627388055,-12.586838497683662,-13.424225457533336,-13.061049939461771,-8.576556427814648,-14.052088574952164,-21.9276727639415,-16.5012204854366,-10.14495668141493,-10.78579504894196,-5.012209500094491,0.3517572154259936,-10.179098337870101,-21.606189890444433,-22.17773897441304,-24.198678911433717,-23.158885045187823,-7.978324981349976,3.0712360276031196,-0.11731395747152895,0.8452701035117636,5.943108416636312,1.8906199629571,-0.009432032738486806,5.990756745656252,3.8334528327848574,-1.7367528436481403,4.488443177678357,10.067604723965324,6.910810495704414,8.532155592377586,8.539637618074039,-6.362209663569535,-19.478573652922943,-20.255874784906297,-21.291291894462727,-17.79530629391907,-1.5004901168915543,7.458064707920817,-0.13632669445115297,-5.991685241247285,-8.67766659106277,-16.033439944215424,-13.200999408270494,3.0702135870622405,11.431348070206914,12.34215794868814,19.110047634538958,20.95736697787104,13.611319608505264,13.425722680128182,15.844836975630901,8.0508183531976824.996969705816196,14.076049859707094,17.463734540923646,15.887507906988713,20.755625449211227,19.272752320202773,6.692299910045369,2.1164624828136684,4.82366011276483,1.6631024920346267,3.5796705737615224,15.01114989719498,17.032000811804643,10.854163049487587,11.353060169745552,9.874749783818116,1.7813568826763104,2.5930875294305147,8.385351172782313,4.049409658460896,-0.7694034911392237,0.6233145808665512,-4.044219122541354,-8.207599855275458,1.9164662710813598,11.356512728399608,9.630342465388221,10.252951008435348,10.856176959807524,2.4327094728963,1.2333501975111894,11.960653315559679,13.712293888728524,7.265855618232689,6.609262585729932,3.3291017015792983,-3.4087933215608834,3.4302313919220246,15.24950086572118,12.749985820560163,7.131687512353451,8.011522840067451,2.891425592856534,-3.31790094335921,2.7740434953924753,8.424359005922458,7.920833974661342,17.608932104503147,30.413937191013115,27.407882078735085,19.543603786665415,16.41152640072562,7.328511579545637,-0.6228993370401423,4.111178561813488,5.243538241744787,-3.9296600247873745,-5.581923347411033,-1.6819340446280635,-5.071986674249167,-5.064110688674374,1.9581003079657773,0.6438144537107477,-1.951385621241959,8.085808996132787,15.38653614152585,11.2915090138168,10.551851477326531,10.653022107464931,2.0973368282322156,0.0919368954171009,9.561576487054388,10.739588698209419,5.574938436617286,9.226145084540919,11.222426868289757,5.716340876832472,7.393460462002003,10.747412971723383,2.5194242188731266,-2.5878272050919207,3.0190547378658175,2.2005750125699546,-3.0030549802499884,1.6049041929735144,6.087701854145391,5.078712581683782,12.247650420083186,20.30459850887297,13.802921529971341,5.847932660498331,5.193161542635092,-0.8014820941774534,-6.448496420069212,0.49118171013635736,5.225109141456588,0.5552879792251626,1.4056590690544408,3.084343035443758,-5.527751023965475,-8.713115613586845,-0.8743930974260659,0.6568625277317763,0.23065255975329846,9.243890505948837,11.683783357404552,2.8007889178221057,2.5153803976646416,8.576698126315586,7.480995534586681,9.473719028256737,15.85684893646471,8.859231298994981,-2.676253095526634,1.6784570881175607,12.016561094747626,18.457870451278755,29.28558857598001,35.997621744509864,28.2080638819161,25.83558336083894,41.38224880823635,60.66840367745862,84.15220721932543,120.71517083031179,154.48602028655156,174.9451986551009,194.04402964079716,207.71155154902453,204.2076513553265,197.19044929891564,192.58522432400673,173.75789622114544,146.91155554119266,129.8543238789375,111.836240333885,84.5399453170899,58.7088653579647,27.56844610141517,-16.568358240613136,-52.984658513489066,-74.75103150425149,-101.14703814257042,-129.88228679043024,-147.57489938704705,-164.4131372912981,-183.3419631867716,-189.26410654868033,-189.24639033525656,-197.85726289765896,-201.71986183479922,-194.68068146543982,-194.79250580817828,-199.83915733932628,-197.5787149680084,-201.163729658643,-212.14966700734192,-208.33089042518287,-193.53665961183884,-185.29911143308163,-176.13720317875283,-164.06689978989263,-163.116886191325,-163.7519258626776,-149.55079033794433,-132.89910694569767,-122.14348460435751,-104.78944089582396,-86.76824223749327,-82.64796528748457,-80.13151043195657,-69.3982111615064,-60.97014584989603,-51.7003783880056,-34.64456233832563,-25.91561296663481,-29.398955684341487,-24.302862535924472,-10.46626885620455,-2.1043914520821563,5.743705594977413,12.168010436412903,4.686775551709989,-2.5988022497674343,8.544703916928903,22.04642415734889,24.968535070108608,28.44612348092211,30.6740822978138,26.085880071541787,31.311424811969204,47.535059698051896,51.31678750850401,45.89506466268117,51.43774884970822,60.76778384245163,65.39094335291131,73.85185681770959,77.30822252864661,64.6147561871011,54.96833889248812,59.34390170468696,61.81799996765684,62.906593092367984,72.88435917605528,78.29422027620984,73.4706856354941,74.31765595239705,77.14052381409859,70.7496054559167,68.93711942893452,76.13589866777241,75.87230787203767,73.1582483139886,80.74114570139533,84.32408150840529,76.26155572972998,70.98689313541632,65.85093346776722,52.94519741717719,48.90046732895175,57.96531036995533,59.99352048591857,55.78755903144814,57.68451098028995,56.702857089930845,51.982945590555325,58.53972675343762,66.39603361589268,58.67686071621831,49.46728306049672,49.224091334589346,46.82005929416123,47.62209224831065,60.619559718942746,67.39711732838299,60.378404851501536,57.00754045248722,55.18128479786259,44.55164687414681,39.90440939552416,46.434753710520255,46.68135564655489,43.19875933261795,47.2378601157499,45.60413907103307,33.64547781361748,28.488719098566463,27.359552453600877,19.27351918134879,18.44369868319992,28.903319589801217,30.424283962754345,23.87242715210565,22.599486381393927,17.78395956260257,7.971292535948292,9.8209940395342,16.74152888605852,13.39818296758507,12.017650585029209,18.111941402624105,15.010143777502684,6.400311661521721,5.38049393081578,1.9616689621893992,-4.667012161855954,1.0445949761341145,8.944062164583919,2.929477374686863,-2.578877430727969,0.24733568937692718,-2.4313559699107783,-5.041325620995697,3.00686097494523,5.103110580089257,-4.559173512723531,-8.200490996876013,-9.159900056009265,-18.152638296115413,-19.520437905143474,-10.093435358351329,-12.205955976903024,-24.02673008361438,-28.48121858287085,-31.783962401154504,-36.26110699645367,-29.104170635561353,-20.369718587978358,-25.81526191345941,-31.329651446591093,-28.605525796659574,-32.024028747712435,-36.77497846005849,-28.996759114258687,-20.674108354510974,-18.96148159784564,-13.090186482305297,-11.969333974632962,-27.211191040440657,-39.636219571317625,-37.52696567396272,-34.09248977412116,-26.546389468699964,-7.692622990778994,2.2042316168358504,-6.535785458373037,-16.532044647434933,-25.517019868868847,-37.96980787192005,-38.27544050628111,-25.792910391597722,-21.574498893241387,-22.776223195136968,-16.06951598368872,-11.827357293447516,-13.885025433624342,-10.89974314968238,-12.323924128153573,-27.042665679687893,-34.24156839845942,-26.411101204864636,-21.99049098216243,-19.892872071996972,-11.25219280445971,-10.327013416167881,-18.900760820862768,-19.035419368255138,-18.49492458562634,-30.861666211063383,-38.44298049138347,-32.809898297948145,-30.543877358821593,-29.561590924004157,-21.396438609066706,-21.290272711568278,-31.16753616509033,-31.475924493785172,-26.97063345532189,-31.17220624553527,-32.065244769301,-26.09299359404889,-28.466314501191288,-33.03639696806313,-27.073607927185222,-22.91714164516667,-25.69347804289619,-22.153755036065533,-18.11651817671131,-24.44940864736393,-27.236757420210942,-20.460663175890723,-17.81064530058721,-16.0152390634334,-7.12776772345342,-4.925657668482026,-11.82577583687148,-11.923963517993982,-10.540921764228226,-17.719640803438892,-19.273330209607593,-12.625093132326263,-13.95246367363756,-16.716673741883707,-9.08219118368622,-4.727438586648159,-7.06305258909464,-0.921166060108439,5.518702659598735,-1.028059719524538,-4.466643306043206,2.4806551985444463,3.7831253733680335,3.0965769559295007,10.909573995652007,12.937045538874226,6.535583932876651,9.280566070934668,13.551636876884967,4.901559901978409,-2.033073385413245,-1.3633727583979447,-6.6691095927417035,-9.713297322542857,0.12709899271369451,6.0895796586859365,3.3300376695078606,6.641225337733507,7.495749851763155,-6.633030005323247,-17.9302020893958,-16.728666187478574,-15.570832587773937,-9.344700524203562,8.595677246438374,17.200417775549685,8.695927379667767,1.8099485392179737,-2.9106291740475068,-12.247963820845902-10.362953203796021,4.1093323311664305,8.37482956564521,3.089047325767069,1.989275366952922,-2.0679068542848,-7.064645318061234,4.560134208070062,22.455258150058462,26.38596016329735,24.59896781879391,22.184271739683123,9.225821008199485,-1.925587944343362,3.4777512941752495,9.09083927754029,5.940005789320711,7.145961716357655,7.578379207681581,-2.728881332097882,-8.832980627048928,-6.27363241142264,-10.161759926740922,-13.281029096574052,-2.8898423315369732,5.010882741321065,2.4284034830996575,4.709107346933771,8.829486542136255,4.992356079566665,6.729580954927109,14.63934699721472,10.125710965228471,1.2773729161558867,3.9497882787498115,6.200085865125885,3.4868414684817974,9.151291487718277,14.461100460795052,6.160140458983193,-1.5595844630920261,-2.7086166786913823,-9.17743302030749,-10.99670684948711,3.9085016132587764,16.722615114354813,17.780581054211165,20.82700052266157,21.45564377111755,11.643704589559867,8.234945122297695,14.545764580419096,13.078368302483652,9.916173526482448,17.448783788877265,21.459320990071685,17.53867004103878,20.561050762340123,22.915614264968493,12.667169230051286,5.820793203641289,8.39217732961314,5.600518618262638,3.5161706264213013,12.336144648765913,15.816225046098367,9.37425069739456,9.186955477869963,10.005316714363332,2.3114636808484033,1.9997483769337487,12.207475349033418,14.141276158568644,11.17949530422479,15.566541265324759,16.11577642607676,11.135970072179365,15.997403210140572,21.220333105296202,12.208599094158096,4.104353553628902,4.094724445259684,-1.5218010708861804,-5.654066346137176,4.40058518346984,13.189694072466981,12.748186622962708,16.091960807105462,16.63321578380378,3.999519843742291,-4.115203034457019,-1.4376352313163887,-5.748668232437941,-12.426238413133907,-6.567440983996834,0.0003434878794326135,0.8788226058460333,8.082544844043035,12.293149819247459,1.0783918855274601,-7.197029574478589,-3.574521809342527,-4.248050265723693,-6.960992310097305,-1.1479077017624921,0.5704492312337052,-5.013096770100224,-2.3172090234165212,1.8836101307004065,-5.148337865440144,-9.234743025897805,-5.547109318212572,-9.51668003566839,-13.969039489727722,-4.785770495704244,5.132643115787837,9.849148517126634,20.122182360643947,24.759542634149767,12.912917404415028,6.797661713031499,18.31473367631811,34.15461320995527,58.543327191252494,98.6857863528742,135.67688025388662,162.83991789824532,193.8936121155456,219.3677463004586,223.2185580908514,216.55925967666028,205.5603088556189,182.67560812268704,162.67334214938435,158.47796929617644,148.10923797953842,118.80338053686904,84.5525324331878,46.527585010279864,5.600198974378428,-19.03898490404949,-31.43012314602923,-55.16571923709022,-84.72127223852375,-106.55801829976504,-130.84408800020137,-157.78683299715962,-172.2509704249459,-180.56993304428556,-191.8332316989381,-194.35115700915856,-192.59985720259397,-205.3123326319744,-220.8165227106617,-221.57794665044162,-218.39343241731711,-215.257398058427,-203.31425003683447,-195.3294252801757,-199.86273684569073,-196.919976076104,-183.4402351689082,-177.5728092146566,-170.77993163292683,-148.4307705400734,-126.25491858462371,-114.43934744977925,-105.04394452257613,-105.25667055815644,-116.58035904220094,-112.71795049082507,-87.13148904088531,-64.81635405893138,-53.514110170253865,-46.722141882637445,-48.98342593933205,-51.5736546644992,-37.073858119323845,-18.68989988730121,-15.475043434963649,-17.929374517501625,-19.731407786051534,-25.87970882189005,-21.546092104664687,2.9216727560486975,25.58072423668721,35.44736657717556,43.026819560952546,42.69522608730405,30.681180959622115,27.89541655374358,38.64601697346094,44.93112177990859,49.394017901117685,59.160430502034274,59.48682943663479,51.52635237565342,55.6504651355568,65.33767537155991,64.81817735355719,63.01402714107829,62.35219555874641,53.271405771052414,49.787793424626976,64.15641886432422,76.35637587799746,76.59404025238534,78.36473582300668,77.59374528092772,67.38275834966312,64.64769992442314,71.85815045760957,72.2255518471928,72.77048658931547,83.39255849253264,87.30644247979264,81.10397696450907,80.63513307700109,78.43200706325811,64.3997875170827,56.01960921297866,58.993933620206164,57.889809884058046,57.63908285855618,67.28785814226195,70.39873261379678,63.450243971916876,65.14451295643458,71.03097669899346,68.05397642204167,67.39359367957269,70.25156941842201,60.868194654198746,48.93362413007894,50.75431923460088,54.9630781533197,56.129958290692535,63.69072412682033,64.95418273625121,48.22152111202081,33.854291753342146,31.683575218000243,29.714843172417226,34.53418583753753,51.35046137276154,58.11750462044597,48.82172971359781,42.046369000071536,36.98793459281703,27.184644425403835,28.134277199428077,39.03945339816034,37.73865686254518,29.50759652902846,29.208047681850687,26.236428747480012,20.22788866049263,26.22473980912759,32.43693700503834,23.269047624521424,11.93070346273941,4.141987430891005,-8.956094818470444,-15.23854724450733,-3.7917637807015394,7.734615361876285,11.84668586410655,20.37443802799185,24.46240715308354,12.221379315510802,0.34282370943110596,-2.4948578214084973,-7.329371804113636,-7.292834437844647,4.989346499727497,10.757679801946553,5.082238398334486,4.667529453027809,3.679132576115968,-9.549962498163575,-20.16578817831606,-21.43499281710571,-24.523700294968403,-23.242769451805366,-12.708008028501872,-11.579269937156887,-20.76554100496173,-20.330317442706104,-15.471329978829596,-18.85486200212583,-19.93339255243828,-18.363296203067208,-26.472084363085855,-31.14763928438222,-20.217682049967316,-12.02309327217353,-12.947472188620273,-9.994790850828114,-11.452029002177888,-25.208613005935113,-32.07649154585143,-27.282012838389974,-26.496353649709988,-25.203519610524868,-17.63405813434538,-19.98981772655825,-30.356874099939894,-28.673362714669047,-22.668682764991257,-26.47506670598151,-28.60978514413142,-27.134641587630952,-33.192665779860434,-34.356803907294264,-21.659275115528295,-15.649371820245513,-21.095225598382523,-20.926079350034684,-20.494792569127267,-28.73836359408044,-30.36703571073606,-24.05389342267947,-25.744695433924974,-26.899804310436075,-17.26172599742766,-14.03192175817718,-20.825894845610357,-21.087510137514087,-21.02593546586014,-30.838763454332305,-35.88367921655864,-33.69420833953446,-38.97333809887762,-43.223679500781856,-35.166288781390335,-30.413388933209603,-34.07366641579995,-31.670727286467148,-28.770598318686638,-34.444433242313636,-33.800544316792255,-25.1207199669917,-25.049536574467346,-26.915499282527236,-20.38453952856451,-19.748363212798516,-27.040158093231664,-27.302887309302818,-27.218932692000074,-34.67070995318587,-33.69940029264383,-23.62081558707947,-22.026182426465446,-23.140541939263265,-17.89110847172465,-19.448102153660138,-25.83905287078365,-20.647370277741587,-14.542623611001032,-19.581328556291794,-20.231086272636503,-14.094113270875809,-16.405555415122464,-19.15971444308362,-13.26302999656448,-14.630378410573496,-22.81963632095558,-19.04636376454082,-11.236246642491892,-11.97925437034657,-8.416605508469232,-0.2752583559277295,-3.570481940681659,-9.149071433180392,-3.984677494767015,-0.7306126895724938,-1.0682884840727889,7.94667322188822,13.611310489937127,3.7583757126057113,-2.6405471844348605,-0.01566390782046323,-3.106134101621031,-3.766460852792832,5.888203981304521,7.7716846827744135,1.9316042301743421,5.844892873562893,7.538871994179526,-6.845474899300643,-18.672471531654185,-19.570344185094797,-21.196888291914767,-15.43185778324882,2.5883048791606527,9.928148364770523,3.520629625064732,4.015700288418462,6.818453468932849,0.9807955370304597-0.573890852865017,3.786803714433593,1.5085649160556363,2.3866403741975426,14.450513931004124,19.045816583488556,12.563684119630496,12.448965307286956,14.430595529168977,8.970397619978744,8.438627233481736,11.971427341623535,4.304235405662993,-3.596603648533753,0.9287164527826275,3.835399094105802,3.6039211877191843,13.32085231025613,21.197012447070513,15.449664722375076,10.94347547389696,10.921771704987608,4.0563216640435895,0.6729805675361735,9.598677609968743,14.348011911853174,12.179295990971454,16.67005767530639,18.526039818879024,8.375077097089054,2.987495145618328,4.968646906955867,-1.0701297635599776,-6.570386905641418,-0.7078830092143078,2.1518407284897454,1.3301506008130939,11.105144766889515,19.581983055648998,13.834370757833042,9.262587960831034,10.207814285425833,4.149791126585356,0.6659529581242369,10.24131636116713,16.737585029488585,14.952959319391484,17.76978590509536,18.896575758111467,11.010213993483799,10.319917275048118,18.170874495504105,16.23743293004688,10.361136408918892,13.23892633384571,13.1916015554811,7.982606634107832,10.142098458468547,10.416619966956288,0.7180252836385117,-1.218849151197778,6.24763843655109,4.679226199314415,0.13840328163365867,4.852120438735831,7.271053706773618,6.376527365315226,14.117628474068164,17.614831679256902,6.15050044571527,-0.5811308620780842,3.290964903065217,2.5448884225758586,3.2078537933902957,12.580989767511209,13.647054671374327,5.546070253363483,5.555440569479692,5.988514040191819,-3.4446423871055702,-6.7523713499639015,-1.1372531879316061,-1.8195258181844367,-1.1743475150968492,9.388095441910679,12.485146073881346,5.1468133566026095,4.127234172216482,4.867986743673639,-0.32875344823268904,2.1868565592274662,10.330586621809527,6.214756351896435,-2.3237069926022267,-2.776497757555684,-4.881135558918397,-7.9531499025989385,-0.3534581993474668,6.297463974005587,1.2556086244211944,-0.9997752305698486,1.5524126998781478,-3.995767159733438,-7.496807016715758,0.8637940618755025,5.515274979523055,4.919202132349453,12.105172865307365,16.299211913729692,9.16063213306985,7.934114473254297,13.264485011216546,9.347973752223933,5.280913718541216,11.631723588358463,15.306017985252677,17.408809370056687,32.940989428669525,51.36279299545492,61.32989280073103,78.99632693098974,108.95994980045285,137.00153544490738,166.99573141389763,200.36333355159186,214.28040475323,205.3635131964462,193.41108304979377,177.19405430800845,150.55826348351337,126.51361604906137,103.81639332046001,68.65225460401729,31.70024475778593,3.8311507649001473,-27.777629822649097,-61.99639386291784,-82.60106140327863,-95.44000729687751,-109.43919388850603,-116.30145223807543,-122.71931060612667,-143.88823739704242,-165.65962682202377,-172.38272980828944,-174.54951433199446,-173.16332437395835,-160.03391450581637,-150.53800428481114,-154.07707232525397,-153.09352734342238,-146.0702680005391,-146.88953112236774,-145.60914843662044,-134.31983023567977,-130.19220637978822,-132.3917399424165,-123.14980459655084,-111.32425590520714,-107.30318155616428,-97.36839457157295,-84.51969184363193,-86.24995884904726,-91.16075335537877,-84.92298259434024,-79.11748324140265,-73.5851001819482,-55.82085746025879,-38.529352454598104,-34.146975199343466,-29.149313526919475,-21.371556177323097,-22.93419646885028,-24.059088707615455,-15.50227325536305,-12.24356830380692,-13.967666520905588,-4.743367595972979,5.307080904491176,4.379484830465742,5.906070782969328,10.634097600287705,6.742584751255961,6.908299552849213,20.61030162812613,28.67694427072495,26.184921932255982,28.182783506378073,30.115892004182687,26.703600884938417,33.54262640259812,47.73071833158148,49.70701197087827,47.304769796462104,52.55723467290793,53.397447237205355,50.784691158249004,58.736244853544065,65.32168522132784,59.39194787500715,56.85485510553689,59.26572194106317,52.86391964153392,49.14710616904204,58.07097713195684,61.750174430863,56.92879362510183,57.62576384093131,55.382073565506644,43.65827308474427,41.78007343595051,51.4038239486214,54.57156370840087,57.02616715481209,65.99138079231038,65.28358622736664,55.86720042653232,55.45485762738694,56.243168532209005,48.737340475910194,47.670607066896764,52.84235613623375,48.83558924095877,44.65038969031709,49.15853207516786,47.366616802015464,40.213355574477326,42.467167266728374,42.834300891949525,31.32890026654796,24.743868576186152,25.81069968775872,22.451911993887105,24.302043125518676,35.53518017052712,35.8227355577104,25.98804729374467,25.61210079571077,29.433281483953728,29.238691488246815,35.483882144406635,41.3308331096743,30.392694894435166,16.132842778798263,12.906438288490248,10.680262385871451,11.441434707136965,25.10461293691897,34.861484230279515,28.06339814111825,20.184823434741574,14.6499792545481,1.9552851596882257,-5.147220573879336,2.241484620114278,6.843751175246506,6.447560095488143,13.905661329739385,17.436929375610458,7.249815726558598,1.0702032711188276,2.3649427671563483,-1.5647067280372902,-1.8861066590413955,7.460217952462687,9.554868670155717,4.8421388547337205,7.654550296381151,6.877162174716572,-6.178712186760343,-12.670835935597205,-8.978339238847674,-9.453676789448922,-7.755972166379263,-0.23759598740713672,-4.9137675514012775,-18.121452558885686,-19.320143475124347,-16.543152474930405,-20.990346813198528,-18.429608891185453,-7.5404982099153255,-2.895534693144511,1.4399483217525935,9.410152445223124,3.600022435894715,-12.655920160339551,-17.01827994522436,-13.48314870685332,-12.641991284935665,-5.784065358502721,0.9777767502508725,-8.364307703258504,-20.834832441417785,-23.366479936559248,-27.776348418899126,-31.448009130437185,-21.059711724410967,-10.859232699000028,-13.156513754126989,-14.070784708872116,-13.642043096943258,-23.590176903090498,-30.39310101101798,-24.166938375341473,-21.39268910955178,-23.143319250293867,-16.546511433113743,-13.098654206932336,-21.37383264212623,-24.37689579993763,-21.24928021067425,-26.001796466751415,-28.49112850332408,-20.449356002945745,-17.875736889887786,-20.755807766674163,-15.449109792034605,-12.650109725559965,-20.41979152483351,-22.746806723389465,-20.063338773545127,-26.40645018803446,-31.380096345365427,-24.915370479614268,-19.66582342955122,-15.757040218536007,-3.710350877988614,1.177365246120977,-11.297590521311989,-21.41520338955825,-22.834749849446993,-26.881145613548693,-25.76579952254021,-15.887186452667713,-15.366864389462727,-21.22963584326643,-15.367970848195085,-8.134756159586086,-11.184498475069766,-11.34598129146013,-9.985773264899349,-20.36892677040927,