-11.70873557595163,-9.885881325518817,-6.642404383325889,-15.332500287162878,-22.70957572302736,-21.011841713218487,-22.017790414993385,-20.92179035181144,-10.091374695816913,-7.077520836209342,-16.79795134083338,-20.628967091742837,-20.492363248604775,-27.47322176111967,-30.635170134881896,-27.15673197188893,-29.80338420614073,-30.015713903059048,-16.013354706883298,-4.200732625834932,-4.760967162268651,-6.01556196692017,-9.048556697951863,-18.710229766684485,-20.07441043283654,-11.281236277846206,-10.971125669990634,-16.276550903128832,-14.462358193471339,-14.743973256526886,-19.29123220221249,-14.759221271338742,-8.953451225795714,-14.20799970251549,-18.032653409177684,-16.546559725140817,-22.586943372055032,-27.879579042524888,-20.86063229072145,-16.066182596364058,-18.961884849506184,-16.67598072726621,-15.46818241221764,-24.08014653710248,-26.67207338992211,-19.703692163425565,-19.43278950898497,-20.693525473849583,-13.724444632890926,-12.650658400557326,-19.19983644114703,-16.77132959825405,-11.379204645559152,-14.780503801769587,-15.470537707441245,-11.166756012555798,-15.272076005964342,-19.79448722187702,-13.69237517674198,-12.805418685604902,-22.954735014338898,-27.01956125774954,-26.060509938362433,-29.01741524849738,-24.25892305169487,-12.987458130758132,-14.873448050025267,-23.132967874916744,-21.35425419387834,-19.455525996151888,-21.62855369695927,-15.88848907058118,-11.066979672005196,-18.368335235993282,-21.75369136179424,-15.609098548106871,-15.083943308195039,-15.915664930186367,-9.04026837864253,-7.920589317984556,-14.268149429433182,-12.537132039240554,-9.63523056411221,-17.08165244851094,-21.182472033604128,-17.474874084103423,-19.84078733263732,-22.514432452656703,-15.695030102430763,-13.127202081408567,-17.2800084434712,-12.50000457187296,-5.616191151485413,-9.363735219938622,-11.046781923608354,-5.505997088240905,-5.712177199211811,-6.318653583411857,2.048606853877154,5.213868398939042,-1.233689524043545,-2.6632629266240055,-3.8104998511061337,-14.351507513655031,-20.018727915683346,-15.717463911992342,-14.920752849514512,-13.61091355292243,-4.793253319244132,-3.373845539296676,-11.504182720047574,-11.435229819850314,-6.366826161078189,-6.633462502990151,-1.200977578559224,8.579100056817552,4.312806844600489,-6.331941720176268,-7.098518018098267,-6.6257316487472515,-7.2202044731409885,2.292745498600314,9.737942731859695,1.0154150772267299,-8.065915914537856,-9.071142564791897,-13.230962301235389,-13.587862299446293,-1.2657205476326139,6.346395016006922,3.8498842179352546,7.276244556910808,10.896476915930565,2.9097305428110563,-2.3445603701317115,0.3254727444141283,-2.4355118404818707,-2.8684504380220597,9.125120484974046,15.4065516978788,8.798915118820524,5.5334768653195825,3.6249167791862664,-5.488536269624994,-8.692580918758464,-4.3691531761192,-8.718488289473209,-14.171367805497255,-7.243679246108005,-1.6078148711091578,-2.903653410004213,1.4544622781521324,3.4575516410584206,-7.2849577944115875,-14.193485596762567,-11.444031445080665,-12.36182522630549,-9.290537057492365,6.835944178809337,17.233454873314702,15.38097888242758,16.455501514389802,15.467796053283346,4.2259499825163145,-0.6688379908826131,3.1063646684638218,-1.4680076661067134,-6.3135827337113755,1.2126118678389024,6.095281872225585,3.2628018703466943,6.405867263849471,8.790325601822317,1.2729436242047756,-0.3012857476858757,6.512372147426614,3.7691938326293326,-2.988849296415578,0.13167671668185088,3.2641676045528634,3.57342962370612,12.240642719288271,18.064397957732194,8.583297127153795,1.365292717196792,5.779825052076594,9.269705089035027,14.348970591955704,24.799986942911563,23.032587082359413,8.9112452499236,4.256734013100732,7.112445604440161,5.658194442878808,8.816175586463057,15.219574685293383,9.367043173350382,1.2467330349412529,5.447043295482966,9.352905850957255,7.725384962887422,11.312968794133747,11.471957456838146,-0.7253763602310332,-7.751629557189325,-2.5630168102977113,0.9866336434775698,4.735069706576546,13.424892589966849,12.209872250121569,0.744190489249283,-2.3407314310528746,0.445035797905428,-1.1141563775950072,2.5782086245796316,11.211422816438358,9.238330301427583,3.2178200336634832,4.956387888801154,3.052972909091614,-3.2008127413993677,1.5963751628172602,8.914819976662761,5.245606305755484,1.91458162444734,1.82566061906714,-5.257262966525097,-7.153751019967642,6.776604701745114,17.208204201084968,15.197361223330997,13.330014102913612,7.935773734176859,-5.4035129624110185,-8.147291441281133,1.8017544164372765,4.140947189282746,1.339316777860586,4.274388170221955,1.4528488613629118,-7.51239492023996,-5.340165685086204,1.1973410287301063,-1.1978609947884178,0.44246326035810835,9.136411668926122,7.98403237411638,3.2815948284446796,7.7509685694946935,8.577977205006816,4.032774623577509,9.810564055438936,16.344560382092638,9.144986422075966,1.9736374341714564,1.1713493430035196,-4.421733718537894,-6.894763778799715,1.9929940319519566,3.916783600480579,-5.904876339544853,-8.916381307260103,-6.734866239166678,-8.902405564923873,-4.8384853380028705,4.235113974563115,2.5682465120570086,-0.9569802316935488,6.046475088024355,9.605105042937407,5.455250396978121,7.232604066736458,8.748235486773488,1.2149622263431694,-1.2627057339180483,2.2231528555172204,-4.42179821631891,-13.104987014588954,-10.28162576255281,-7.392435595431309,-7.449993464375811,1.4572373779464964,8.7397350077843,1.9915495388110815,-2.8562884733582217,0.425587183637941,-1.5482173226741391,-2.5543848371529014,6.202795911904262,8.887433591531062,1.6674480827617075,0.46649271966177064,1.1291839434391948,-4.877880882531862,-3.0039783335538712,7.5840252660468135,7.771160957337681,2.06065873030606,2.159386421578893,-2.6451683603921863,-11.242888961589614,-7.3980963464529585,0.28332826633351793,-1.0595714524309727,-0.26666137306696247,3.02694245297523,-4.9653822846679345,-13.08033071752224,-7.201363565834331,-1.0099145510382728,0.16212724904210218,7.2634529763283115,11.331453865704335,3.779274350887958,1.2722484352198238,6.597945011845766,3.444174275362223,-1.9713058866244362,2.0854340566317586,3.7360817857040316,0.6378466166182379,5.991674328146221,10.741106125213106,2.5887443809482336,-4.490703434584326,-5.28465883564318,-11.652591520951098,-14.9471434342495,-4.673408192449794,3.140631110827208,2.7947955506967497,7.500328236258817,10.54451283320148,2.338786723318502,-2.016300727597806,0.8458720000269013,-3.6367535191727534,-7.9959375624819495,-1.921424909882448,0.09669585704286193,-4.451127975494589,-0.6752345465961371,4.424029494335236,0.26860456752381623,-0.39713701278491575,3.9822573440006934,-0.2521105922069147,-4.062772765705132,4.308400526009746,10.744880222896406,9.841778827942118,12.892841304242395,12.273817224877142,0.0247281170758038,-6.600317629330915,-2.745664509596071,-3.0586514924792247,-2.777363989731613,5.551598866120128,6.566321631539861,-1.903226503628931,-3.6614269972895728,-3.1377208415076208,-8.102893505982564,-5.107333693141671,4.552003591561874,2.7093975762590095,-3.9951910221231026,-2.6618892812471726,-3.4777618136019885,-7.3440396448861085,-1.931861998600914,1.6647123398086503,-8.170726924811381,-14.801088482019608,-12.396414026196556,-14.087472761332975,-13.741058265224725,-3.962252693895695,0.5929235528767915,-1.2611842685027412,4.402264292567664,9.601287301092293,3.9262650937861103,-0.01234263064306046,0.1762554042208565,-7.440311460032367,-12.827931011061636,-4.883452003389902,0.9495163008420906,-0.10067949834551926,3.6469788133801426,2.763563422521222,-10.111177202252728,-15.248701539068374,-8.779765877549684,-7.730275901897348,-7.243010567387294,1.1230277634695862,2.60581039889458-3.7602226894350537,-1.8154253860590057,0.535737260803515,-7.158541590218947,-9.282258446346711,-3.332135042559395,-4.839059319566975,-6.081324980600087,2.886597427253482,6.407900617438699,1.0711960671527578,0.8506443534666703,-0.9141449699331271,-11.466994027607598,-13.606106405314307,-5.072141011800571,-4.232791087606504,-6.938826415085089,-2.845916545944978,-3.30516119892841,-7.132516040069073,0.10155510796368361,6.499965526396003,-1.2189929195073526,-8.134448384050142,-8.434291963909093,-11.829842920621402,-9.904269052656126,1.641709082970241,3.159075258624677,-7.3539198673928405,-12.318995290916417,-14.83883755335841,-20.744380898876525,-16.41385541935897,-3.3076987742224904,2.0691614962110583,5.413868637511466,14.34628564504086,14.45102744631758,5.362603252754166,4.495867113741776,6.965182886008516,1.856212127714149,-0.5609483953411,-0.6810689805135975,-11.36812380409014,-19.830497210419324,-11.255180310724725,0.17377487360861021,7.215205145146832,17.827298878828028,21.109347939426158,9.383826921115189,1.93273169052584,3.3610305061121513,-1.2023623147137994,-5.321432435291103,-0.3137436974384271,0.2444236386272225,-3.3226714348336066,4.480038934364481,14.654879284032608,14.699551149080746,16.769836568755437,22.261570081455318,17.344501960850863,10.981268901328086,14.155736243731612,13.16145782582845,5.919458755838987,6.099536630979955,5.680785523540988,-4.433914028653273,-9.146596251663825,-5.834922836348866,-8.482433591072047,-9.949203770432968,-1.8868531940968616,-0.0671778327314328,-6.519624041422187,-4.584744511775687,-0.361827174633655,-4.86071954592107,-5.124510673098962,0.5762348191083846,-1.5960586794807465,-2.1738120408748225,8.80168480231585,14.503271486937908,10.987477258035316,12.831992304966704,14.335756464247748,7.960173555139111,7.652436716513293,13.236672335117461,9.680345057938247,4.832035941589057,7.538117894419001,3.0949760175397905,-8.735744205564341,-10.221494735607749,-6.973244233949519,-9.612434472039348,-6.245497454080049,1.7877217304964637,-1.1225138774648444,-4.259693164478891,4.275815788540722,9.159498580232723,7.154741497853728,11.60010497851206,14.328780154722365,6.668558809721968,4.068875859468115,8.932365954280984,7.611603372000761,7.643009246292275,16.494377899016953,18.53317510005033,13.618908387893201,20.329756530855676,35.14662729940938,48.00046165530423,70.8514053713802,106.4199635624355,140.6817068010849,180.84945656805706,235.0350267282113,279.66813911847703,301.7452055044523,313.6072252057745,311.18499099923537,289.4495294722936,268.9430493755738,255.7668961393706,235.152573936159,213.5086867579638,200.04808653856168,179.05895357534135,147.40126258725454,119.63639670114466,87.90501103419567,43.04068321840532,2.3006497700454567,-29.158032358664595,-63.62019577998726,-92.90660072230057,-109.37227648640749,-130.57434003981717,-160.2556020387363,-182.67323071573563,-201.97109534020316,-225.7518665596582,-241.16871078078418,-249.6044241602931,-267.3712449531152,-285.61816912505486,-291.21646640250333,-295.7471616477258,-301.601411991327,-296.84395702793785,-290.63668597492085,-292.70963888022646,-289.48031946260517,-280.77473251780066,-281.3088792017224,-281.66125127940484,-270.4999562375618,-261.9882407717266,-258.85737526431524,-247.90793262343863,-237.9206439877077,-238.0914232045847,-232.8039457057203,-220.36963385184112,-215.28101093635286,-208.51298940207784,-190.4413440822965,-177.16112421960833,-170.9440358228476,-155.66527187712109,-137.81208252423727,-128.04031928333248,-113.9698397127693,-95.34432071137634,-87.11836010427558,-79.52486612397752,-60.149095858541145,-43.99000332500768,-35.64025178997145,-21.905654938004258,-10.572312248017987,-11.199381880977514,-8.49539004606439,1.366277395147272,5.918060435256372,13.849628945438745,34.215205526537126,50.005365197631086,56.20774306394374,66.2547269270156,73.64024186843905,70.60704493871728,72.71152821990178,81.99827502679209,84.61591827518461,88.7680661759493,101.93536620093533,106.59277450620299,100.67878537900695,101.42887001155799,105.02793251792954,104.02039691911773,110.68169307142605,122.4682861068228,122.28410020507606,118.88646201380799,125.74490068151299,131.46292236055692,133.413390636401,142.89236515866992,149.28259371832957,141.18962223655305,133.25861988230793,130.05724074454497,121.45287266321657,118.07360634204755,128.22663858365462,134.6889605016862,133.55791417451454,136.76382159868785,136.0906966868524,125.20602949124505,121.03254157757024,124.66226667976272,120.72934361566354,116.98167928675178,122.51593280127662,123.3089893923203,118.93005043209666,123.67207596000586,128.38656053209684,121.98622204656331,117.92822898745735,117.99788038595234,108.674252682152,100.10965638334565,103.986098471199,105.85171206556753,102.45860362150296,105.81430868264086,106.45143105567152,95.91631446989507,90.06380691321104,89.86924097937906,80.56386037452988,70.89098180620263,70.80111092678453,67.34355580981872,60.63890909410195,63.63375467864738,65.44050623294008,56.373157021986884,52.79358351625518,56.52148054873939,52.66392491573888,49.56915344146113,55.01775162431139,52.89168727291853,44.236265179463075,45.120387110381984,45.39347284466863,35.6108132082826,32.16164128839972,36.11052313810054,32.4676826776476,29.310675487926858,34.643910948655375,32.942769333840346,23.815506176895646,22.266856763887773,18.76425565992797,3.253686645301773,-7.032018821201159,-7.238605793857695,-11.316487263519068,-13.30535471951377,-6.701372149826797,-7.342134426329498,-14.890168760041332,-12.651390155627329,-8.346090946779928,-12.964239148995192,-14.911290213312562,-14.45449387304268,-24.243387012112724,-33.158820450730325,-30.194202126272966,-28.79746131775849,-30.3798628685781,-24.076032289085,-21.78703345901533,-32.39722699083482,-39.00277389859693,-39.11226129347176,-46.51146233069099,-52.20900641993245,-46.2078515042528,-42.81175708500708,-43.84040270220922,-37.19459081488335,-34.47931397685198,-45.8778356697888,-53.03203197065287,-49.758458939083894,-49.32303289203556,-46.74025276787987,-37.47932564647558,-37.659649691616046,-45.26984614797557,-42.895175277600806,-38.74543751589894,-43.623378786517335,-45.44718715790686,-44.44276187470894,-52.78942022999255,-58.55063653170414,-51.881330602044486,-49.1298635921365,-52.57514310267342,-48.986310112984434,-47.28294760627877,-54.90117173338868,-55.68859018598447,-50.07808639038768,-55.06740740297123,-63.35665326202306,-63.89941117472,-66.58080441846991,-69.04350592170022,-58.59300182228725,-47.66193743517844,-48.087443399551105,-46.66926173085975,-42.099042337836536,-46.454880300897955,-50.108128069539504,-44.0353525051914,-42.21040749291649,-45.555241610544535,-40.919286002708986,-36.969423738073424,-41.621999591054156,-40.12138025295643,-33.702528460317396,-38.3856460368597,-44.85348462825655,-41.58712772867832,-40.45254858278836,-41.67808905612202,-33.904972711320596,-28.998312110305314,-36.502190921566346,-40.65331089235903,-39.581129384016236,-46.23811426002853,-50.56265557482008,-42.67116667648248,-37.289747102767386,-36.70780474586377,-29.411628133085905,-25.75719543104617,-33.16514064177069,-33.62991813592886,-24.85476378788577,-22.521163721525994,-21.344122533443468,-15.437790254543604,-18.7991130749347,-26.898657641820982,-20.602279960607937,-8.973524685417344,-6.244483136649404,-3.945048620657213,-3.772072966901185,-16.640331671056053,-28.16526704000063,-25.806129947314055,-23.909541777085074,-24.667146888003135,-15.304472235181375,-6.341113091001103,-9.508640167780953,-11.618655453116816,-10.810330421596731,-17.53638710593133,-18.441307814654365,-4.53157666392887,4.1543858404846962.2387152056946222,2.7848581274863955,-0.3689547739962762,-10.530794480741461,-9.88656203004792,-0.21192086011737254,0.6841962526409159,-0.48074235139944327,4.38193084097273,1.9569773752448225,-6.087175095156615,-4.973586153145968,-3.315791674790699,-8.866496973076773,-6.821643713039398,1.8624060837151495,1.7783422253537184,1.5646683067052076,10.453414041805184,14.44790652316892,12.854686565386286,17.937227873458443,18.918179769990225,7.320479542906764,0.48751469819711335,1.7409676729840642,-1.3989754199302875,-0.49707070205896,10.150359710653618,13.705063427413718,10.709690798455672,16.047689349994418,20.68170026076346,16.67266691984984,19.002901127754534,26.831249606827623,24.836283439029764,21.255755293933774,24.124375288625586,19.425518341745214,9.657268269809268,12.107026399607872,19.38607854783308,22.678798181799138,37.37682382793729,65.53640527848503,93.35678625032233,128.54639965162607,176.61750822606717,217.67657640848049,245.8572118957743,270.10960337217136,279.1505098442392,267.3166860686602,254.61488022067653,245.24356640885193,226.85639915656515,206.78796467852203,190.1457047005819,161.72257348986142,124.33235414497518,95.10099522411463,66.61734660568757,30.682036258423096,0.7407669881268655,-24.981462946385314,-60.9870246170899,-97.10690254004433,-122.4960155053519,-148.29814852108103,-172.69027747714466,-183.030271099731,-190.09124270613532,-202.9209393707393,-207.79155080084126,-205.85920915755867,-211.8675494249659,-217.74541907765084,-215.23878879205938,-217.40767025273757,-224.6386995502,-225.30130310401725,-227.20052007618216,-234.02124921884666,-226.8621658623298,-204.8225933871639,-187.25436778146897,-173.61789571973867,-158.8441010987682,-153.81336987546652,-153.89695046041385,-143.45579820406167,-131.1828931749425,-126.22638738059506,-116.41893187231403,-102.40218045300195,-95.8638814343332,-87.49802057638038,-70.54352064432368,-59.110828080085014,-53.44484436395725,-41.284958725546375,-29.718445345357743,-24.872456706824128,-15.386271637220997,-4.857593436000943,-6.126021545308173,-6.828920756883497,5.027185787332716,16.0263828458238,22.154421522664876,33.15892264551285,40.26941305658348,37.45373926600997,41.14940367156932,50.617058677660054,49.05634962793525,45.522700437541346,51.90456138489149,56.64456291178272,60.36391552771014,73.60469785207718,81.52342233564448,73.7922655972474,68.6526702118055,71.0724651807015,69.56219157514295,72.05527040961255,84.23366385414712,90.24159331229072,91.00726411581726,101.33585200702356,110.3149186459284,106.30609677161956,103.47765549725409,104.44309527374716,97.88824864340326,94.51281609932569,103.13809575611474,107.27188836477652,103.67074692414067,104.66264165477006,102.55019054931554,92.16853478593346,90.7455119408995,97.92502198052466,96.2073698202833,90.74994961081558,90.15365358736221,84.74906768363736,78.69655198958147,84.68243907145484,89.27986864367298,80.94856259324769,74.03882109151122,71.90759624671253,64.9532825792497,62.60529652296234,69.91744257881939,70.0898647237681,64.00712813123548,67.37087458547825,72.15701226452705,68.6622969951444,67.39234702023992,66.67341996937402,56.760620710997145,51.34252767947305,59.17790586163369,63.80055550301886,61.770723807877594,63.099731710061036,59.808314872215135,48.102924462650094,43.546522633471426,44.58691039329235,37.366015579108364,31.030804172044746,34.21555543020841,34.66821540902168,33.030198788581444,39.76971733939876,42.263651105532695,30.881213973286684,21.2076991822397,16.70185217432611,7.593501185903882,4.686612045136755,14.735750330803162,19.94235490724615,17.132894692579647,18.151161378725803,15.06296535079389,2.909286111885107,-2.0939023503240843,-0.27015141872802384,-5.228616966176619,-7.84585360713435,-0.9507124524790123,-0.052273873139963456,-5.676239084306439,-5.1872022418032495,-7.809378916796332,-19.042985711099867,-21.980599850929508,-17.51921476458885,-20.500145335206792,-22.255459165701694,-16.330066740626393,-18.308878581176838,-26.316144678682836,-24.357931255926047,-20.367323073335935,-23.37778882992487,-23.361432005137654,-24.598759019060285,-38.94577120199501,-51.1957824667563,-48.53746637266857,-45.32113035898243,-45.13536019163913,-38.66975843231211,-36.0779746040148,-43.0706352315955,-43.51461648895336,-38.94355102446671,-44.20953246007786,-48.68309452061531,-42.85858076590358,-41.299020812536526,-43.667759983685485,-37.10182642819542,-32.60090221404401,-38.483539794266775,-39.845506558030905,-37.57003744289118,-44.86301571408549,-51.095880601096674,-47.75993775345826,-48.71806757744726,-52.671678366760915,-46.356059283686704,-40.16974425955256,-43.33307770330247,-42.43684994072877,-37.01406581859257,-37.83763641611158,-35.16805870420943,-24.438369055876592,-22.891780420077694,-30.13962619287208,-31.39908292303621,-33.15312065262185,-40.684515228495485,-41.03924103957857,-37.50746097823624,-42.812446464923454,-46.01953434265159,-39.80879569652029,-38.736630991302405,-41.14118500896705,-33.503923277833096,-26.135476047702447,-27.93738142410065,-26.361944638450655,-23.477075455129757,-31.327920935316623,-36.87410877593051,-29.742821255200724,-24.60351352640732,-22.9108129109456,-13.916905992314511,-9.291973717518465,-17.784654181045074,-24.14700660733082,-25.555266578883877,-31.315332228390947,-31.507893630041096,-21.53789102930414,-19.081909967857246,-24.14712944994991,-21.619147649409097,-18.665454132699335,-21.72715144400485,-17.676398962176837,-10.069711369347651,-13.23180618095521,-16.682681152521173,-12.286146244727826,-14.146569343423593,-19.24940038703589,-12.368551670987106,-4.9623560292499835,-7.610429899250307,-6.820004559074087,-4.205399422980382,-13.068893736350152,-20.877427832151284,-17.271542197487673,-16.401951131032824,-17.527496893577705,-8.778811954818845,-4.159637275424965,-14.405319003754178,-22.32779392994369,-22.473904389068196,-23.92411647621384,-17.603460240344603,-1.0802894257961517,4.412315355713839,-2.946533897747728,-6.290296730439594,-8.509686587124634,-12.6152453064448,-6.384722565777582,2.697617821704694,-1.5802637197344813,-6.807599195052076,-1.4896151306346144,1.79725793911035,2.002034335187167,7.371521992723757,6.959689164459967,-0.9856869396320649,2.462945354887765,13.056217650631341,12.214577300035803,7.552191225649713,7.930790289321578,4.003071036071409,0.32275362378686734,6.703259274760043,8.943060943050096,0.20751015605313228,-2.622421324708927,0.07364238382381383,-4.486501416351677,-6.2933580062891314,1.026066403631833,3.3548355938706296,3.9223553330335665,15.472513017990936,25.06322127883973,23.39033499912151,24.330986013638167,26.13174955016629,17.828048367095757,13.975717320626309,22.690816183164756,26.24772046069248,23.536576570126197,25.752310507200512,22.645967562136423,10.914418120701832,8.098545746240742,11.469694751487065,6.469004932631286,3.8316008779945263,11.663302039905954,15.59786402517649,16.503957247055443,25.13646328838214,27.91420381524963,17.275179717666383,11.984575098773812,14.238723512240432,10.712620563658223,9.700903654506746,16.738043728867318,16.205188373212263,10.509456409629767,15.186239855521363,20.505996561720302,17.155705572931076,18.440770616978742,22.06963692178656,13.389351015131842,3.8583870372202034,5.412803633864789,6.616233403387037,8.349838215476181,20.375404165747952,27.190894998019665,18.233650222810866,10.177956910197153,6.588953640766759,-1.6249764954396553,-3.7938190419523528,5.121399100476996,8.483352285107898,6.01665578988724,10.354041005562413,13.451506772825205,9.310177795273827,10.652047187002225,14.148644465364276,7.346638102253392,2.9847076333950895,10.217713177564914,13.99878885937384313.43302356838735,18.68160200308687,19.0473889633366,10.891843199667886,11.660989622025467,17.804286248876526,13.140030076828918,7.513858388645716,9.280226412593619,6.30290734444878,2.405770189645076,9.132933048332081,12.834109447418975,5.659976655639853,3.707532277780994,6.247083259815928,0.08857581737063969,-4.64430552367986,-0.6789853880003036,-1.4005631706911383,-2.8749609893508867,7.9240588618002175,16.156806588301478,10.19366279835004,4.706544116602617,1.6537279317185756,-6.499427802265773,-5.582545221105249,8.409700474530442,14.045189295447244,9.867805136910118,10.347760545767823,8.913160702115551,3.1667568709429315,10.183000941194033,26.64765334132062,38.4652225259075,58.4084725544131,94.33284621658679,131.2526481442599,173.06143419566993,229.17052928091334,276.6596389212211,297.35450326878345,300.5031392185231,287.1225060507424,258.16968743249095,237.07513232965724,229.6016404048283,211.77422688024575,179.62565196865708,148.21400999960716,115.60792027838485,81.0729540000165,56.038255958197546,31.12621045173221,-9.624521668646322,-51.26454592200411,-79.14280497600136,-105.0836054260411,-131.34006816447345,-149.7458616210264,-171.3952785003511,-199.78173473457625,-216.07969519990786,-222.2797479255666,-236.1851939220268,-250.68682547872544,-257.00346037986554,-265.3841449844348,-271.4059596305184,-263.40917563381896,-255.27027145311982,-256.0336013398496,-250.25290706764258,-238.35728472118163,-234.2186220638902,-229.4527596799261,-218.06586962173398,-213.32651263956055,-209.87896469882415,-192.68098438578068,-174.36998385495127,-165.89777828510972,-154.7569600943945,-142.49829008775453,-140.39612965461794,-136.03236303244432,-122.37097818644301,-115.21430737348652,-112.27237747647541,-99.67047488919921,-87.82574499476696,-83.65766546313706,-73.27065040229762,-59.479897796669576,-54.909586967387376,-48.82955698224534,-34.77363434979502,-26.308004851469562,-19.927176672414433,-3.975056166210849,8.093701912817655,7.663158212169304,9.77356792914008,15.346685289016666,14.591402178342381,18.80735255880462,33.612500687053306,42.24746222884292,44.52206704342405,51.48305271002348,52.016920485455806,42.48552741412456,42.67129235885682,52.30653668911303,55.83084575331321,59.23038547484717,66.03341103926735,63.07769986733541,57.47124876190668,65.38924385320209,75.24288839938232,77.35281910948956,83.68853460638421,89.87038463736461,83.0072273237916,77.21500373234653,83.41218538555904,88.49925059285185,92.59049000998223,104.65643640247933,111.05123870418656,104.49932381726406,100.97106706726387,99.86514864745928,89.7136055072595,82.94825503573372,87.39451102364569,87.55757731956032,83.41411927941654,86.17218859565047,86.52560316513437,81.41750116984157,86.32344158248462,95.66233655731949,93.4878797671837,89.8863177163276,91.89736800928225,86.77806116522686,79.65196633050267,83.50481346880252,86.09828061592322,80.41551991931209,80.11997052753365,81.35074166248926,71.72933543789686,63.765207055315145,64.74123034215128,59.43160477189567,49.87966938527898,49.99444337720455,51.05416501362127,47.17834570266366,50.73259061945157,55.855211892905984,48.36421347508698,41.207851265189625,44.64763335486093,46.117561624806974,46.31124516602392,53.391002132467634,53.4341709861667,40.586415986575915,32.51135826843337,29.944717990646854,21.455900091135433,17.3176041509559,23.056142140102523,23.20784541329958,19.014377907576282,22.332204022890885,22.850774540255152,15.01884287061224,13.610080697422944,15.29121043538671,6.467408042054866,-1.72694495321842,-1.417329149332435,-4.126883386961471,-4.697293404150574,7.5788874237130335,17.313819160230494,15.533272531435035,15.994889201802582,16.392007473150837,5.636076481229364,-3.7452318720822095,-4.3328709912895595,-9.424319966604033,-14.655907859483118,-7.3697742585122406,-1.845996844629457,-8.490711622110803,-13.364106115678362,-15.784103597121842,-24.54741026069308,-27.14238165916172,-18.609061324451936,-16.967359615515143,-21.12454645633126,-16.481497741195128,-11.858944299775317,-13.6301414315836,-8.84916901879233,-2.2293412949942235,-7.344184253516466,-12.255464024608578,-9.218597658522224,-11.711159432026044,-15.922628884696522,-10.106336011675882,-8.0345227766299,-17.38529816243112,-23.16863518703332,-26.51828777377677,-36.36544644285486,-38.72605817965702,-28.895551435726098,-24.838456827386548,-25.066771895565118,-17.921136929327865,-15.938479001158598,-24.837643325001956,-28.0273970125948,-27.10077768973288,-32.88779731448934,-32.4154781785648,-21.208599376878603,-18.083144090999948,-21.525035693369198,-16.92419295234898,-13.914204696246365,-19.050084799956064,-19.041769874537064,-18.333056999938755,-28.631634256332102,-35.44597528928063,-31.353673753829298,-32.85818940768976,-38.85587368305716,-36.80100617556103,-35.74211563069076,-39.56433552964983,-34.98678774617871,-28.884214890416203,-34.49302174136655,-37.494457406582804,-29.70764230819323,-25.864784427482792,-24.579570915942817,-16.716995689913993,-15.07781429864072,-23.547022835716415,-25.487954698352922,-23.82291746285674,-30.388242724907478,-32.58334205749708,-24.37239516794852,-21.745750136383762,-23.435938399084247,-18.791490452464224,-18.702080413070245,-26.104386920111903,-24.822110833203176,-19.2996276221258,-23.392490339199174,-26.63280729537545,-22.125742352842174,-22.023020907780086,-23.458990882960133,-16.610680098241055,-14.059309877994416,-21.299759043038048,-22.491567253696488,-20.253632627435515,-27.072950668776926,-30.88483357570158,-24.52472517532762,-22.091248234131612,-21.953570042118763,-15.752247223083094,-17.479555599581992,-29.92338327412815,-32.17578258212562,-24.794487211927482,-22.8866140879878,-19.72581828085508,-12.428359966834151,-14.389161123174748,-18.48883055605654,-11.406577619433357,-7.111111187031878,-13.480276197877155,-15.599062620311265,-14.364010261461203,-19.741996765719186,-21.06172104712229,-14.588342461880261,-15.10235860177744,-18.901219997181563,-13.820110125819793,-11.074027135087425,-16.236087742470545,-13.996932881156708,-6.5622928239651275,-7.185597667774722,-7.429715694957894,-3.243671881959932,-7.614571605952557,-13.005100317650038,-3.6951189725846056,7.590109121566803,9.654670790130613,13.453739497941637,16.222443804144383,7.6577605571859815,1.1427522558213234,3.342466574773958,-0.950266083224887,-7.639842658335987,-2.016090807952371,4.643681124873197,3.337267378683717,5.365028666614421,7.156585656288129,-0.9267040826152351,-5.134232827797746,0.7560906023685194,2.239652881870114,2.2405889414674243,11.649315543973742,18.072800873701013,14.709908880720965,14.57136610182302,14.577974548080602,5.755238119000467,2.735231763340928,10.379602113579015,10.62894260886813,5.518988343091924,7.907402727085114,6.91020439660722,-1.5682535653484497,-1.2929149691138098,3.499367330457213,-0.8098495605234475,-2.3611396903279704,4.803960524226005,5.253850313568328,1.8686852729139958,6.231386893954524,6.406017727878269,-2.276852883864537,-3.688426236336541,0.16787004742022438,-2.120564796472082,-0.49733475736777866,8.251999800182432,8.616038790812407,4.783153125600663,10.264058771985363,13.935879641390233,10.09760747713618,13.741512437614183,20.063062288740035,14.831079676510289,10.339145636360307,13.944100601121393,11.057513244697835,5.29454828374444,9.225823031579052,10.090418248512908,2.613761019203519,4.460082381474368,11.721418768843472,7.847225016196478,2.8452595260557096,5.032319570490749,2.9777778974631244,2.018365696686187,13.270899370512215,20.689897563156727,15.626918136137128,13.972754462958251,14.903455538654374,8.63482710388114,7.61819638722426,16.717508541596903,21.34979901429299825.76095135204036,43.155758414949666,64.47215403296866,86.56992260211366,123.49882530835382,167.23165500165697,199.08292283449964,224.90261589306658,247.00465461692397,251.5148536057927,246.37720220695235,246.48242037294733,237.71606083365276,210.2901090564232,177.06129459926188,137.9391897418142,91.02915139593772,57.33745183339967,40.91088695757824,18.246367101462628,-13.135006382247763,-40.859805242028,-70.74335620529543,-101.43251860404571,-118.4158671730627,-131.49586418220954,-155.12437557525487,-174.1737994671136,-180.35742756105003,-188.67476154628676,-196.8881975949683,-193.63303746769114,-190.13298854250496,-191.14203103799343,-183.67641636494096,-176.28365547715686,-183.80719288830193,-190.8219083224898,-186.78340324905406,-185.22140941117195,-183.79020929357256,-172.62914475566788,-164.95687142222556,-164.7124554340653,-154.99644484050725,-139.84631024383862,-132.81968956103987,-122.70273170461196,-104.90469495321187,-95.74136779692891,-92.04515468425282,-81.48139007902861,-75.7304525260342,-78.63500455771421,-72.76359590784935,-61.02487330682662,-56.16032310930619,-47.227839842076335,-30.7293639505941,-23.10823143468312,-20.686857799009758,-10.632698258541105,-3.6580127577870245,-4.092624943270357,3.219847263925719,13.9365753305318,14.827762036766252,17.192628727507113,26.809721630779332,30.215724139326404,32.51003886181705,44.533009893419646,51.446269805184784,46.832425646452116,46.85497669801114,50.53206669539799,48.26235935824377,50.68702622951601,59.351089518842336,58.584187569233414,55.07701096673765,63.52647144667345,72.59290929584354,74.59926868620678,79.31463760190184,80.96782444401761,71.58376569530907,67.19020430520415,73.14033695656998,72.62434547435426,68.05015075874245,71.44690554125503,71.97159435103524,66.20725778619905,69.61811094205137,75.88096260341611,71.31934321324746,69.50086089820017,75.95937912144198,73.84276018632767,67.14862797885371,69.3178438567,68.65743688823495,61.006442849916255,62.43668325032343,68.35759296684844,65.93000835407469,67.13870975888692,76.2299249076673,75.91916078196051,69.51307169378006,71.52188215970612,72.16723375813325,66.3836145260656,67.17107654765428,67.44240900654185,54.43966119093823,43.30417470243357,42.71727061477685,39.32899310562264,37.144049422160755,46.99453534638066,54.74848894433053,52.65531166665853,52.827340901063764,50.29059762958355,35.971883483074286,26.699952889766685,29.795876313341612,29.016365172459658,26.030682648486646,31.0305225155929,31.850425409154475,24.610137529130334,23.789295667617356,23.501625037748397,12.323084295434231,5.817710736555092,11.355729564201622,12.939596969805663,11.682646913884007,16.292018892378884,14.47881391643213,5.182712574162753,5.989322790894874,11.36366942996175,7.199017065787331,4.803320126539167,9.342976354273683,6.9847344788066295,2.6395698586887386,6.6276109535032255,5.063723488417812,-5.680375745617998,-8.810283438996834,-8.345551418879456,-15.154534852554375,-16.219796247382785,-9.127040510232389,-11.142867902290831,-17.17611049296834,-13.645223612496636,-11.092655631382858,-13.517917820981006,-8.474511026695001,-4.377410417840519,-13.570874428910626,-21.09346309461883,-20.452993834127724,-25.86320884336619,-32.06317864508284,-26.41694301319498,-20.410272399976556,-20.25450929675825,-15.305707564321109,-12.664934298882653,-22.500601275997187,-28.25133643214306,-21.98421614027003,-20.045444216002203,-22.795868737016278,-21.149090261482385,-24.798813723602667,-32.90599880354794,-27.903702067074448,-17.17502648697848,-18.418774948976843,-23.500202767448656,-25.720162955635107,-33.74733163284149,-39.27801347110986,-31.140955389735325,-24.512217699011934,-27.10819510040531,-25.2098919781959,-22.677468525360258,-31.18742034851487,-38.10265009879943,-35.475363758545754,-34.52541918280133,-31.327531856844224,-18.804853993518947,-14.240501842514735,-23.76479047500543,-29.194967440926128,-29.816538497442657,-34.91011767698066,-33.98729643502191,-25.191976748300462,-24.10799999276089,-25.83004570966389,-19.13501111250003,-17.406462964816328,-25.14311075099176,-26.050248039546926,-23.16315347746901,-27.12589322563901,-26.767490346216665,-20.689841900427716,-24.55771365628712,-31.174471682413213,-26.335929957761287,-22.20890760238966,-25.588784766015987,-24.288601901708383,-22.7960904009447,-29.565467745476845,-29.385206323011957,-18.133156378309494,-14.045636402431779,-15.441299964317428,-10.793247306206439,-10.884207971464104,-18.338427701799766,-17.120167239301033,-11.792290784355554,-13.970267344822306,-12.20701677616945,-5.143945475833643,-9.815706990111245,-20.153396898659963,-21.672375553706743,-24.036968930732534,-29.625084335765422,-23.57124629945328,-12.288021121433228,-9.58553725218692,-5.760140497669781,1.5226335987173605,-1.728139845110859,-6.965095108308779,0.6711213079759579,8.212501071197192,7.602457912083473,10.041305047319069,9.816003731790317,-1.5983430832370908,-7.682149641021921,-3.090851567151313,-3.863142352413825,-6.609145885014069,-1.1010016354065408,0.3300539963588407,-5.2487931781615265,-2.6564451171900174,2.0603581656019188,-3.5539442898428555,-7.286602541511919,-4.831829709528581,-9.117020722377914,-12.389330546476016,-2.955676820055939,3.9554047672967303,0.37047072496130706,-1.128719073087392,-3.4452727977249324,-12.945743327171122,-13.764408215271349,-2.9419180685337847,0.3343125829714808,-2.3130573041438427,1.2126491545006342,1.2163280051145504,-5.161398497251353,-3.5731379181391025,0.427820559821781,-4.658519693540691,-6.370530203878328,-0.7438956278590441,-2.1307019948357597,-4.990813125599768,1.9494836204109132,6.002379445573301,2.628790799265146,5.655469715294721,9.750909669705651,4.084398562092901,1.2566048537679109,4.409599152910551,-0.9268638322013429,-6.105552284571395,3.1189956906232332,12.213220101083794,13.039904773571097,17.04208866416887,17.126529882030766,3.6871344826589834,-5.092058068100692,-0.4885757821049328,2.7953473008909686,6.929536716973357,19.6553047702359,24.154823583162425,13.846894198718147,5.79370756216843,-0.5226896605485697,-12.807172444501608,-15.38574042234362,-4.039749894901081,1.5268184619861471,1.4207668859931974,6.601963733442756,7.602757724945245,3.920226984116939,10.408556544767716,17.648721171614003,10.558901256220764,2.4137242913706802,1.6175726933335994,-1.9456888790765146,-2.5063230771624547,7.996223450937942,13.779056727764557,9.193739026781943,8.888400347087364,9.217565243833473,0.7521022176482202,-2.314321757170908,4.995261863579756,7.504910437264776,8.537153914722527,17.262779442948464,20.359296438722104,14.03971744214665,13.32059812197525,14.582701394816638,8.128106314410028,5.913004342541073,11.194720957839385,10.537824412459774,9.799235749540477,18.763587754711622,23.290406851663835,18.595051202806474,19.015203279501318,20.69970256937333,14.690033561041638,13.163015842320647,17.252693758851695,11.88051103902109,4.592172365753854,8.363578441924997,11.393603774949245,9.082205423907533,13.302997196175733,16.399627353091283,7.061669716508537,-0.19519942908487242,1.3772704112352414,-0.3171025455026295,0.809667370645384,13.666583650032855,21.083049851339997,15.144463130355089,10.10455137158127,5.693699501920443,-2.213463329380208,1.1426662669150613,14.337142291919866,14.6407625141596,3.3936115057143668,-3.6126420916977113,-8.981358364326924,-11.404051987212485,-1.4170378460101154,6.293361567800709,-3.1678283468382697,-12.691431117707882,-10.739527514010152,-7.089383404968211,1.3396449855792365,17.56722353105891,22.654839793026508,13.367765553451555,8.678179639498873,7.300306669862144,0.7518585306021661,0.9968632669140921,7.903967956393447,4.9891184326112950.3266938712840779,6.88553152861813,9.683166328327577,2.510603921054053,-0.07109897406175747,-1.5885591776220997,-8.88477033904321,-6.508799725754951,5.248013411513151,4.8784879910015695,-4.394535910293353,-7.902355962322719,-12.442353822189386,-17.57770828273115,-9.431384791157946,1.1745561984770405,-1.8007569500224223,-5.938203832002007,-3.4283500209661013,-3.4747403431990387,0.924628179602871,16.485911015692395,25.17211417790209,22.269227561694233,26.22361500426994,37.28855974120742,48.112399817838366,71.21035733909991,108.3356580657228,144.27900984814252,182.43414577970233,226.13490995307941,253.46649192925037,256.5661750213692,252.0162101079639,239.33498828321802,210.80012657725962,180.07820981375897,152.0586339429123,115.07408177362674,79.77502209729285,59.91473324566447,38.06838872783341,5.611724665274077,-21.290647294478173,-45.18733324535202,-75.92772033465307,-100.17756774553447,-115.89263406420972,-139.14447290819157,-161.23550893450897,-167.55540135170878,-172.55651377662167,-184.05441733094193,-189.6633943858365,-194.46806219179632,-206.47477805989777,-209.88873786045752,-202.5064856758449,-203.13277630416073,-207.29842991363603,-201.3942246826373,-195.39838719785124,-192.07696074950135,-178.64242816464565,-165.08623648809834,-166.0393481590258,-167.58519145491425,-162.76110988794466,-163.01821558765351,-158.6657307485669,-137.7040030333646,-117.65489486766401,-107.54369802699188,-95.74452237254235,-88.04888646301177,-91.92462222866784,-89.74753249665699,-76.19081420124547,-67.1055891130643,-58.81398117285872,-42.23554754792272,-30.960495391113174,-28.68256209030102,-21.861293764857763,-16.09584600995079,-19.80867063258441,-17.79036228711142,-5.777282411828534,1.4555823615431813,7.889851635050578,21.44595915739508,28.102967196256735,26.03189611344781,31.183641584859544,37.88825837419927,36.30115064312707,40.59954700422662,52.775332506560794,55.97690425400371,55.62463694080203,62.00640390192845,61.71953375171884,53.61764736571509,54.485682302188934,58.283873102556484,54.02562497319907,54.290021809313295,59.595698899941134,53.74280590871958,45.676933258939144,50.73143337127778,58.389853222833935,63.7270875545117,74.92559147867787,80.16558388722086,69.17481643702456,60.6548689711248,63.5298181947498,64.68934974267917,66.99415662386463,76.81065444522014,78.59031853503396,69.70144744765032,67.18440121981641,67.33104642267081,61.42098766544382,63.49939646581457,74.94729115396999,77.10294589684122,72.1126590396091,70.09437717596298,61.48176949073711,48.04587889751867,47.0462199502379,50.83146006159249,45.879369780930034,44.82929115005125,51.39252333758919,52.08595256428919,54.139581745722055,65.84284217667482,70.15564478090074,63.475699263350364,61.70711309753196,59.797600911291525,49.12762163436977,45.26474058367519,51.46262914456997,50.06456412376104,43.92072197236571,44.490506437059764,42.892865006056084,38.78859638491753,45.97335230439988,54.508319042956536,48.62865403519298,40.666266935931205,38.23729409550722,30.34349324224859,23.050915729780428,25.67794631065592,24.913358488938158,19.095072126895047,23.512064284646762,30.128971285024488,25.755475014051168,23.599555947505067,28.639298677468012,27.08859941678446,24.89217271912185,32.144982633891864,34.135125361291514,26.609262921234055,24.28084136514248,21.079912792032303,7.052406540996323,-1.424650315902408,2.316485607375624,3.6132698920732906,4.754769969885671,11.427080974467275,7.29044104936311,-9.227449738480662,-17.72905737386882,-19.383285803244345,-24.231235871310673,-21.881503624065484,-13.650758452880495,-16.83420699625038,-22.953886746517114,-17.378855118551236,-13.164701397210228,-15.740610106766198,-12.289447892632511,-10.677060744615678,-21.31327919188877,-27.369131514884117,-23.06617830680893,-22.832197670499642,-21.383443886195522,-11.312632575647962,-9.302649191131303,-18.283511237580456,-21.162821630792934,-21.408099588528792,-27.953225068442784,-29.053446649367135,-25.439903916872183,-32.699344687491845,-41.37516090390105,-37.643545045448725,-33.43408217640844,-32.53887492478091,-24.43799966067402,-19.767357900567298,-29.591898921424306,-38.07723027132451,-39.21330768889361,-44.99452212478141,-47.71546242886926,-37.55770825482325,-30.239762457889128,-30.9319611695959,-26.43776985902193,-23.73354333076469,-31.57451531410431,-33.30929135685757,-25.263569227288716,-23.982724809561834,-25.255196713333206,-20.1301751920291,-22.013699965551247,-31.774907944312012,-32.45249862358618,-29.965904684554843,-35.97044635654619,-37.897314255981804,-33.50657443735562,-38.02354498448438,-43.98965307977549,-38.62255401894102,-33.809565370065336,-33.47270299276865,-26.345959220235642,-21.5012992702011,-29.500003753144867,-34.155747240962995,-28.968157112476323,-27.70515213902292,-26.35114704663667,-17.010488379167903,-13.381702552300718,-17.902315247196167,-16.664735093549098,-15.917529974076698,-24.67538006084088,-28.454719308879927,-23.282584632021706,-23.67180064708403,-26.023165004505454,-22.14332551501683,-23.32077907957162,-28.74050623729866,-22.89214510255905,-13.969092421657813,-15.171843361731703,-15.247513707422566,-10.863086960048143,-13.42832678790461,-14.015152309923648,-3.48890383056929,1.7843705356054702,-1.449307778145794,2.1231203280608915,5.318283454539164,-2.9374589632991506,-8.798787396927922,-7.96530247895638,-11.85541886594824,-11.877936708563531,0.03686397008676234,5.335901483955814,-1.980432284450445,-5.420230857128244,-5.7379654438933425,-9.652369141951661,-5.57903444739825,4.692834102243468,3.711760990687398,-1.7165656344227238,1.4865651026234605,3.264822879824526,1.5778369379060624,7.343578959058072,10.326740146266658,0.6558013538390406,-5.413511937534439,-3.255070664445992,-6.194041626697462,-7.454440624792401,1.024210627447613,3.337257767582082,-2.470653954411244,0.11135046303190288,4.42357836964261,-0.36932849339000917,-0.3596758336169976,6.284365490960413,4.072751417953567,0.644602199036391,7.046980189941727,9.357642904934007,4.806321335092809,7.899710823399292,12.085198718328733,7.60734931871643,7.652032241625745,13.518967537387402,10.181871761916437,4.717317216159887,7.9348645688218165,7.4982001043507465,2.2703176021558784,6.561859967710742,11.727099552041743,6.119832931147348,3.2607855592982786,6.275916802866313,2.5845672431262035,1.5117896724089992,12.82406540784452,19.825037634404474,17.477891236329246,18.449006383641464,16.456472100200763,5.694152542908832,3.502707271103587,12.11639631137385,14.1280580282244,12.692666304740857,15.649243252168937,11.096808105088513,1.4075993526949868,2.8879152645717117,6.509508300231179,0.8004755619104005,-0.8578267147356387,3.7402485536530126,1.387368336541555,-0.3152531648397559,6.688643443563566,7.635534270680085,2.1125152583726066,6.055210046634235,12.826197112646934,12.906065644689,18.312908112065347,27.475731516999534,24.63601675362453,19.15527463783893,23.548553808349602,25.25758928169496,22.214476701873725,26.95023971770174,29.785934196355445,20.54331253194638,13.896148396864666,12.28156929916998,2.0037060788224537,-7.780263119658906,-4.363541793051186,-0.9956684025665465,-3.2431660167270002,0.24921588439859077,2.7724975582499645,-3.5893328240799005,-3.2857960497712506,5.444080294710144,5.20760469443528,1.4544550318700278,5.6511780936073785,6.462936355753008,3.2369901898797018,10.255319854232548,18.8603154353594,17.469276241131872,18.25550192543753,21.63063206163771,12.73842678677915,1.3902055603486874,2.107464306370024,3.3932180134220506,1.3169763385710425,6.359861357972797,7.366645049439053,-6.4232181818076,-16.99735395838997,-17.04671554920223,-19.205957571588442-18.03745185302422,-7.500176158084329,-4.433824084757815,-10.098431081572208,-6.139940099590623,3.387702137710126,7.130591992405444,13.261924510106141,19.662658953062135,12.49690674430715,2.4535827935697023,4.404183653229062,8.098963854668206,8.84522133621769,14.867684360295435,15.852441265982112,3.199538444831971,-5.733211310530781,-5.57281212406253,-10.006163162257444,-13.56396520779827,-7.934275749877062,-6.317890940426468,-8.847417928842379,-0.42647108563084624,9.240783207755836,6.483076639997652,4.826049627011468,9.364395222746921,8.273046349126837,10.52694707144962,26.634427824350762,41.5588392739157,52.63458916603827,76.17041413609923,106.50644890241767,133.11073937153083,169.19222485401576,214.57320477699812,247.21630828203223,264.5899028181815,270.5083033735948,252.035208990434,217.13584018606755,194.6908981900664,183.72210699384857,167.5913232971174,149.60371564292745,127.28826423553122,89.52400743662346,51.40202779609361,29.07182568854125,8.232798050922689,-18.15056477302946,-39.22880795957031,-62.98154011529549,-97.13552950059025,-122.94444046180892,-135.38706192554574,-150.56372306571362,-165.85662902201298,-176.08466850936543,-194.95141875063123,-219.88218045645334,-232.40979207734514,-239.1377986851299,-253.90384577874326,-266.9522285259845,-275.1616026636125,-288.7216475406026,-295.6053821545309,-282.70684743779213,-265.94270645558015,-253.54644445480318,-236.42820866578114,-223.54223295970928,-221.73800327239104,-212.48841074805853,-192.92165331858308,-180.6557978379484,-171.74326047241652,-156.6336732481844,-146.2308901985166,-139.20576672490654,-120.63750702065111,-100.80185570483744,-93.30506966656563,-85.46291765434998,-73.90769719159566,-71.44029772294925,-69.9179227893816,-58.74804879149613,-50.640973950770174,-46.628682667507995,-32.11704887570869,-15.596135590972839,-9.82141271296456,-3.761592624650878,4.751790592591561,4.700975392902881,6.423958031576291,20.759721904232507,34.22856570969592,42.79753221408781,56.14018950487032,64.49742953760851,59.907145325178774,60.5618497548551,72.08168183472745,80.2950468304559,88.7554221184011,101.0420575232344,100.36482754903484,88.8838717512807,87.04597418949272,89.99126628471707,86.57011453969565,87.49742026367869,92.02371876758683,85.77998733825939,79.56096239329071,86.63090515609856,93.22512312072011,94.71762621793373,101.86139714029903,105.39477079025151,96.64009320148736,91.60566799910383,94.09283481879756,91.47319613674972,91.52474320775045,102.56046908262454,109.22103104423886,108.85384530129328,114.04114316125275,115.61223660330776,105.3334007798275,99.4182609630566,99.89939307428052,93.58144993590446,89.88017056687264,97.49221417644614,99.87449034987031,93.61340199827939,92.2794087492,89.11641377295231,76.45709089185544,69.42629352207305,70.28143561222994,65.7102395573983,63.64924867212245,72.02823868392122,74.54394436279242,68.31528198821715,68.1667305210232,68.9485324533042,62.49508896786797,61.02143439207667,64.55722938070775,60.1150592674737,57.71019996444201,66.60732894135462,68.81619192928369,59.075717897751105,52.82089346148146,47.327546885576936,36.75491899349723,34.49017515292162,38.65261524685382,32.45137248979806,23.713787854175802,23.356152843856513,19.157824385192598,11.266634448655418,14.438592320301332,20.585141033894608,18.755475186702736,19.483563848608856,21.747619899489983,13.532837010266075,7.072360711523848,13.664780218217002,18.15946353123549,16.547374727162346,20.3180644131748,20.499685213747583,8.533698266342029,0.6183674608831213,0.32733826903021823,-5.965320675240476,-11.570906467021207,-8.642718008430947,-11.612627593057358,-20.93430390439531,-20.91868640484412,-18.079175903198095,-22.536624757282326,-23.033542243273157,-19.202826470443057,-23.642092658816573,-27.697584309191253,-22.206461863068522,-21.040405707775093,-26.57760450417836,-25.656030148955395,-24.659003731603647,-31.850007236655877,-34.28277965823243,-31.033717345414296,-35.497742796960324,-39.46097276712122,-33.12023796512607,-29.945105643831045,-32.687486631151295,-29.21031436688295,-26.776070400581585,-33.77643639959327,-37.29599206793208,-36.236272853111245,-42.70993709723994,-46.693868761196406,-38.74484804190776,-35.23843768026426,-40.1624256939641,-40.01407973795995,-40.98803014385509,-48.95800800284023,-47.53453052898898,-37.88543024383767,-38.63055471740527,-42.75006640444016,-39.05977993005082,-39.60739935618898,-43.7915057519246,-37.2167283549306,-30.4673065827213,-35.97266889060874,-40.3023569149871,-40.04435764783362,-46.0316270515079,-47.9728686246978,-37.078810980250445,-30.982599967544836,-35.2994399794979,-37.93306345371451,-44.14953957384602,-56.42325876839767,-55.36442346077606,-40.769418489741724,-33.36470795026127,-32.56141848962891,-31.008065945058433,-37.020033357785444,-44.543240251493266,-38.06588092354973,-29.819476266974146,-33.78228579935276,-37.24912807008394,-36.03107272944022,-40.36714925104633,-42.022122185393734,-34.234880007744934,-32.12645208476233,-35.41199089575127,-28.99530034023831,-22.498790795453697,-27.522286449422463,-30.855617077639003,-29.661960175622347,-34.41201346143764,-34.85125368217037,-23.126310196117878,-16.228159148177657,-17.32259285177617,-12.674313029920082,-9.059046767841544,-14.754945054117247,-16.685113140458295,-14.755883368217827,-22.619760643785057,-30.015353874817443,-24.192238963057306,-17.742806528562078,-14.600358647804866,-5.013202707210796,0.36851821586602607,-7.416063427099482,-10.956456827942636,-6.035953300858595,-7.56417448531708,-9.34069453093843,-2.645512642044102,-1.4520304146524168,-5.9255169119029665,-1.5448876516659098,2.558163319157145,-4.091448564474259,-8.379125926984381,-8.542977318706912,-15.76311129923083,-19.18893101938603,-9.169056963469995,-2.5803186214518696,-5.5691261543594806,-6.025134257143213,-7.282500519533517,-12.245841591177703,-5.76861896130299,9.186956115968723,12.232874529820208,7.476484669750919,7.683006453666382,6.225045900734477,4.713615796652773,14.096772697594808,21.500709522988213,14.83781860966182,9.305063790291904,10.197253199306923,6.295951786235962,4.141379847168179,9.750428531949526,8.499777209513002,1.259144759029369,4.82722362707103,12.625635330917842,13.127005323111149,15.992536374330149,20.755880452403478,15.583407461215781,11.735137478504726,19.199406504957924,22.023840740371124,17.029706847153165,17.401903992699864,16.460751776898256,8.246362645612717,7.733476881846772,13.475527581938541,9.45593502567416,4.4764581918567465,9.300646149784646,10.575401745482537,6.92026004354935,11.273778723761065,14.28673156373435,7.530204634364134,7.511971416689225,15.65063308953961,15.591334123013265,13.382008308678728,17.340564517870668,14.865969010365419,8.833937672807838,15.418777146734755,24.386376256541293,22.55154844860398,20.838511857956746,20.44708965419359,11.558810334572566,7.062461884537681,16.682110999375205,23.08399890095732,22.005849180030232,25.947461357027183,26.839135755249075,16.89109613089815,11.54696938216897,12.15160851238589,4.62435283844046,-1.2957749955286073,5.522619040901359,10.498085488942998,10.912132304926942,19.076733214544497,24.332442324682198,16.578941036668443,12.120638505219619,14.45374988404663,10.064435417753053,7.036831025851287,14.586805634435144,17.85632330278691,14.670668670301616,18.262717649297837,19.262985604121024,8.263544792087986,2.0250548314263215,4.658211370452527,2.3032092591946345,1.5628105638182093,9.86125182502278,11.002314262284257,3.5003589706503875,3.5749517142514873,4.7921453450356175,-1.3584428824722155,-0.6011056530989389,5.982892782223392,1.70489372366153-4.73922111170637,-1.9242113801039946,-1.9706936419975258,-4.791965845087798,2.2546582019523806,8.587990113247187,4.801799718245141,5.829741997588173,12.924544939615977,12.016436455948558,11.141792433317207,19.6860815958371,24.039503528971608,22.13866309088099,25.994546747352445,27.050479203467738,17.495345682279932,12.975325591916398,15.76723657175709,11.68776812506034,7.064661974462367,10.508829567423259,10.109297465925977,6.22233183877351,11.661999853537933,16.63745312727046,11.014071460131824,9.109343614675943,14.91988998720188,18.484233522871136,29.654090077895415,56.62336458286584,83.19817976917847,106.88491756113227,143.66916948144296,188.62230395351656,229.68728793330115,269.4349776843535,294.83487907998193,284.68764319385923,253.24818117335352,225.58364136843554,201.28038297504378,181.45289231770616,172.45029035594303,157.67359759484773,125.8213671177768,94.20990756401729,67.065523464545,31.400022641302222,-3.88519824362431,-28.230951344719603,-53.7194302799995,-79.68078330347643,-93.52116574650651,-108.3128249185445,-137.01877167855267,-165.08744941338418,-187.70874425156535,-214.05270278488317,-233.16025241346114,-236.8909641930354,-241.69672990098906,-250.0665278266888,-248.9337200021321,-247.86746439974152,-257.83034396321005,-265.9100049735352,-270.1986034695579,-280.6030596260632,-284.82856003314777,-274.5185115131794,-265.8833167608935,-259.91207163755445,-244.02719340228256,-228.1275335508576,-220.71253455251602,-208.47725824948807,-192.43972942538304,-185.71680633895042,-178.5787039514898,-162.83599736423008,-152.86365578626487,-148.01399817500297,-133.63876315222797,-118.51549531250359,-111.6160949974517,-98.92680805503244,-81.48283413441263,-74.75069662624611,-68.89445330155614,-52.57627991534538,-39.45491601916617,-31.41495926629198,-16.620358244028644,-5.388073911472528,-5.4305618244069045,1.10333510232015,16.33232263559503,24.07030512189243,29.56676851675377,40.58987592423645,45.02254518728447,44.49358516407081,53.195097720873505,62.179937208473284,61.503211599764825,64.7966604477837,74.20828619971533,76.29937492828968,77.93857181134756,87.60340181362812,92.34318179871208,92.47215104530461,101.71381103844946,109.63999481726508,104.53737219078468,99.72393555284611,98.91972156660374,93.3527541027402,94.33206601956691,109.34310437445185,120.20868634167967,121.62622101446254,124.86505167770264,122.65288101824555,109.65665546448466,103.76755723207498,107.64952475987963,106.30291792167947,105.107508433309,110.23856614462498,107.57439033604675,99.54649666325636,102.64939203425274,107.42046466466367,101.9849058007775,98.39256386164254,97.44981205569319,88.39309651842773,83.14418090353416,89.49805426706357,88.98702214735398,79.35068512898152,76.94541942417052,76.81639147789734,72.54397687315759,77.14941286208982,85.83365454187707,80.81412044515409,72.78781692072076,75.28235549821065,76.49896856138662,74.86722223288848,80.8809068595388,82.93595601101956,72.0443793092951,64.49516674874599,63.346595387373924,55.88972009283425,50.27197333762544,55.025988903301325,55.84421225284363,51.208804717547835,53.89170300474717,55.009797138317694,46.07874563071046,41.60175364243046,42.51159420783988,35.85411048234936,30.836605008025067,35.569042869032295,35.434760500302005,30.662887928034372,34.722956375133016,37.65738413464037,30.234216850248924,26.115499375814338,25.801585904523343,17.84774506751555,13.09220338973747,19.696685617954756,21.883895547660725,17.23859015704978,16.695342757096316,11.075884413823607,-5.003770168236583,-13.815033492427553,-12.744638268040916,-15.0409968784907,-15.39730257903912,-9.965493840505395,-13.672637947515911,-23.78089562061875,-23.55977534456787,-21.3334508819418,-27.1746449285864,-27.74717590599111,-22.11379722790539,-22.932523131454605,-22.05373065496321,-13.813854469065744,-14.515925202570653,-23.45969883111006,-24.311830855675616,-23.28860124504677,-28.300953558441833,-27.54689890166333,-23.166358060110884,-28.94324628748806,-35.25542305261637,-32.81542906220533,-34.81914822199475,-40.24370203247055,-35.83892814061698,-32.56182320918087,-39.41918893030782,-41.69804121676577,-40.07871534056301,-47.966506884318605,-53.8818578462397,-47.97898027645637,-44.70308988862007,-44.070010204282944,-34.14150516035066,-27.68564112866216,-34.84137440139265,-39.407482853612365,-38.54003624457853,-44.277924973929146,-46.692057743042206,-38.16716215186488,-35.88484305856808,-41.009265275594046,-38.723705058757545,-37.18859392397896,-43.70826618115224,-43.75989004701323,-38.963466386860766,-42.77437383830656,-43.944012166073875,-33.9304827688703,-29.485267213886463,-33.27792561689009,-32.65161501654073,-34.9075853159912,-44.358747265876325,-43.568024935201215,-34.35194170259111,-35.81460903672198,-41.73106600629962,-41.23892674292354,-44.03870730858823,-46.72916212672313,-35.64341907604739,-24.113838927420197,-26.582848118927004,-32.05337605066365,-38.092667748372,-51.24959153898814,-56.360688117280304,-44.69910993526555,-34.4928988203658,-30.799891473767545,-24.738945692998346,-25.773115409376807,-36.719626335627346,-38.12430136101045,-29.764166033349447,-27.43862693494929,-24.92592833145631,-17.244961427183796,-19.362634445186416,-27.75500534601396,-25.592728570342146,-21.730297755463972,-25.283971944587247,-23.372183193972624,-18.76417095511767,-26.06914230329813,-34.012588240683584,-31.86882767131478,-32.22064486519334,-33.169092460584324,-21.592266819940953,-10.404489150325087,-10.906360211124376,-9.270979151519239,-5.895768173253662,-13.24197022654177,-18.65388853814894,-11.55083404809276,-7.036222580288795,-7.37977822828913,-1.1566296447344633,2.0490314721536818,-4.40212043695367,-4.3220156343208815,2.0539246036361667,-0.32635797172284375,-4.1136025031899015,-2.1606762897891416,-6.625000071625776,-13.580726779788533,-8.3590416979387,-0.5135596607819122,0.9342466297295693,6.889325699452883,13.261257663468832,6.570827390802531,-0.618583466356726,2.7512664580072745,3.582451677019294,2.861863991606534,12.93849120960088,21.255101824097164,18.25323639077054,18.50765500190904,20.937487878057034,12.47171519774141,4.667050582027931,6.504008735765168,3.3237594023819255,-3.1796537031395555,1.8930857719820153,7.554742501901836,3.0917681691285783,1.9234573849506778,3.683515408701514,-3.376676956496637,-6.5257185940628,3.185677092422342,9.065620135535315,9.455583262719816,16.611902225511344,20.2471900741812,12.549897051278755,9.164691547269264,11.766444937863907,9.29538220100629,10.711936457409672,19.88430448929814,19.528327327938918,11.59826830168401,12.218703408087425,13.794872812802609,9.93666814390689,13.602492581322874,20.017736355629943,15.266933819027102,10.959914638083958,14.21184911756649,10.831221645534262,5.091917111027934,11.701275868035633,18.74135938295361,15.703507947838427,15.354537011913262,16.944559084544935,9.400256617454252,5.775821516163912,14.78853914226575,19.238694219933908,17.521177952139862,22.710867968815137,24.9522579640352,16.639217456551894,13.685159722165267,16.9403029899401,14.186617353941212,15.35627022292357,26.877231080798182,32.14963507531003,29.873654926238984,32.1575068791147,30.274065137904458,18.11919837743752,12.083782251487692,14.364357849029876,12.029616072012978,11.88673942002286,19.2915289062048,18.29060319312506,9.7976471623107,10.198532047518798,13.156171856026244,11.328633856212011,15.849378875209572,21.562508751114326,14.137884552904891,5.241445023985168,5.510171854515919,4.658748714447329,5.362878895189633,16.843717041014944,23.820153041619108,16.49677859650711,10.853765767087882,10.265907123338819,5.9824304416678947.851759537730189,18.513392885956772,18.969618903889707,10.42464509638351,9.728373917675825,9.853394169887636,2.8398669116042505,1.516510549520897,4.559681388062578,-0.8650479397726984,-5.236442707456922,-1.567668150815416,-3.6848826827766152,-8.348182571139233,-1.299472085899187,5.2245477270488045,0.32803232194942744,-2.36627871600321,-1.3866664553316388,-5.682837990334021,-3.8612947583871935,8.088702121924984,11.440779170613318,7.125685202149027,10.605849949265382,13.13929577550417,7.314448708661953,6.551710947069034,8.40663247697013,0.7319483575266967,-4.603746657395321,0.036067518688710276,-0.7258267835578589,-5.670626340107878,-1.1179698891724485,2.1731331481865466,-4.073627032002355,-5.96459849468955,-6.3579928269564014,-16.93380403080852,-21.514594486655568,-9.983940478372842,-1.3490058256145825,-0.3610875325656405,2.2606891269880056,-3.5120417805876167,-19.054352680127646,-21.959286526983895,-11.55404228882686,-5.832538587796188,-0.33324844904654194,9.988421042531845,10.986958940907744,5.937431839715471,9.952064023469891,13.323540601979856,9.591585983390601,16.115667006939177,33.03825016379584,47.383616877667066,70.74610122537436,111.99284781337032,155.9496217945843,199.2017636349761,244.7435235952811,271.3460181557571,268.2136324215508,257.05636496199617,246.39054358104138,227.7648870706839,210.80149143612877,199.9123129982607,178.37556261770288,147.6038188720027,121.50383288596827,91.43149616068568,52.94383871873721,23.64619529757536,2.3402920679827695,-27.73789391708071,-59.24564849002841,-83.35318534248681,-110.44966441339274,-135.96783114973988,-148.82713547957664,-164.73783820728684,-192.69758488306036,-214.49355741921374,-226.86433910522373,-240.61279761692182,-247.5474728344817,-244.4394422546337,-247.37416359426274,-254.5366519217049,-252.75943487425428,-250.91786321197435,-254.13089285120205,-247.25566396949722,-232.90930840881603,-226.46415975491664,-219.49885555277362,-204.3657111630011,-193.94736936527642,-186.18458389179722,-170.17176305627805,-159.27392078006145,-160.6058569020849,-155.23056362928867,-141.309340309162,-134.19609041457332,-127.57689894995569,-115.00059830480029,-109.87823693839132,-107.77085902576822,-92.17842735427399,-74.86472922663584,-68.46214641920974,-60.68967621828493,-50.72672702140828,-48.947428855534866,-44.630221799528655,-30.986946528728957,-23.471556132857273,-21.97522161470947,-12.302491701436463,-1.5247187726236948,2.397267092391364,10.259313695401453,19.194432454659704,17.021909889158938,15.962336653673173,25.8222700555715,33.2553479355953,39.03410802409701,54.171798933873774,66.08223391949574,65.5709765769229,66.33936939509609,68.5890231254023,62.98079251315552,62.280022181606164,73.16751421167612,79.08176292540544,80.00197220227754,88.0816308020486,92.93993647487675,88.07419954509447,88.33260353460214,91.42548666411733,84.33125497026008,78.11433320482838,80.25503435733714,78.31125968427847,76.99147885295741,88.6267280522725,100.23167477614489,102.64246628728615,106.87736687938475,109.23776442297154,99.72287489655308,92.33338804726233,95.94473656476168,97.14896083893001,96.5196156264211,103.16897118508237,104.02835938055314,93.09529412955857,87.15700503609504,86.03412153343584,79.39266518219647,79.13050859077443,89.59663732060716,92.52441073387249,87.95677341734867,89.33084048169518,89.03331315772382,82.3547234130531,82.71162535921692,85.31027838379325,76.11412812932102,67.9969070034328,70.5976410181068,69.09167595625084,63.98512109375842,67.34128609527919,68.3320800812003,60.45211924014879,58.255041660731415,58.51155346298873,48.32352750478882,41.002339166947905,45.58399159829817,47.03180521324741,45.8376180738716,52.85467298546111,55.63341302477529,46.84242819734938,41.693824767919416,39.57708346378322,30.060624030728867,25.56619999392536,31.619074261426768,31.06864924064663,25.070657761841048,26.205750629952753,24.50651607403242,14.912274935757985,11.47460132119593,10.664756478018088,2.263026203889971,0.2237984211511,10.274592233455486,15.120954775416912,13.89625235129926,16.344944906672872,12.556352380912408,0.2671258719672496,-2.144122875942799,3.6158779122914897,1.9929613252000218,0.011901846863377197,2.3266528804302444,-5.060446459971248,-17.294664684804342,-18.96985812249748,-19.594796583572144,-25.791676406630472,-23.936396279285713,-18.24726265730168,-23.537539857495975,-29.552945593849845,-27.594551994475466,-28.308246969166348,-26.778242669045817,-13.10503056651664,-4.63016183354408,-11.532335411278494,-17.649392379350736,-21.006303813188598,-29.955550115627652,-32.63341901328682,-24.960073031966886,-23.63381353582825,-27.061591482266312,-23.71831310136295,-25.03296737518336,-36.02795530159041,-39.5401302471693,-36.39967421332257,-39.72835100674477,-41.673175546293365,-39.5754785777729,-47.54042488329594,-57.27510024755074,-51.0731739298745,-39.9479457976325,-34.91700864591042,-27.821854169746672,-25.256433097015204,-38.13499805132355,-49.419190274002894,-47.10366742098746,-44.789506447308085,-43.03016694503158,-32.933487209952695,-27.546464612662046,-33.36303432630545,-34.87121766580698,-34.04574535392497,-42.888883491320954,-49.26746862024526,-45.7224122090961,-45.97179380593577,-47.82514606937471,-41.595235100187075,-39.894297836272514,-46.60715334355038,-44.71571677152695,-37.037708875218684,-37.11267459757927,-36.090413274845446,-30.316701072109872,-33.546554396958776,-39.612477839800256,-34.88958283849364,-32.06990367753542,-38.51457029260775,-39.455919859096554,-36.61771018186471,-39.96600224403117,-36.30618143167564,-21.507478319080494,-15.192769630681049,-17.49321044576744,-15.435749074740475,-18.069214802988302,-28.340186795413,-28.79695660557504,-22.87778698163094,-26.126979191037258,-29.593922972951788,-27.467056788603315,-33.112289097077245,-40.90955218465866,-35.79428435204561,-29.55108132069314,-31.23181975458416,-27.798458069777627,-22.605370807020492,-27.52727621415646,-28.670390832188865,-18.568993481773553,-13.653332838581814,-12.924175924935753,-5.233602769432524,-2.614720343955162,-10.404231795891572,-12.002843196472913,-8.247548955954889,-11.002479308204897,-10.88246795619522,-3.8978530924467507,-4.935721054168169,-10.234847576952884,-6.471184945988005,-3.9970418383795367,-9.130764664771602,-8.425144567860865,-4.886609588258377,-9.08122429519611,-8.166581168006578,2.147707709057973,3.9649622251742382,-0.7015620701022487,1.4732737793205513,1.4625152642830614,-3.435500058208773,2.7372486534709783,13.671089845191203,12.061273306525607,7.815362138791734,8.708808066617934,2.769246568426794,-3.4484227648403007,4.0423985673131675,11.54686101157712,10.027773491462996,13.048315145997929,17.203504686731517,9.754623850436074,2.8726325597774407,4.534209350352897,1.8861718229415205,-1.560458221633494,4.752919499085268,7.636478240285306,1.5498785410600318,1.99924061075833,6.291033388816422,2.5694804043192576,1.2200132566965858,6.1357781875259825,2.960515815250609,-2.0661004497906017,4.822173219369872,10.106226759823988,6.9113581171396135,10.933841451248352,17.521047047171866,12.693325244636036,9.838029425370241,16.182641180806428,16.124847540053302,13.252740832768435,19.94054679356331,22.041716361056004,12.636933756144913,9.531224662445087,12.532397589232607,9.88638624002423,11.581394380737287,19.899872981088247,17.255565714589352,7.482901588506637,5.948512874099717,5.260417051118664,2.5710694726558323,11.300739806563579,23.78144458788193,24.313533693276913,22.75799622338657,24.949167861888007,19.109452859337097,12.105483534240921,17.183769102210995,22.247185367698506,20.526677395746205,24.01953190477189,26.66433759490472,16.685806291583778.104017137408785,9.0188903079849,6.82145891116887,5.597121093412212,15.268474455671713,19.856510088092357,11.247105180418274,6.290909337286292,6.283528747588236,2.8419413017849178,7.469302077456651,20.443094994720134,20.574076181556237,10.422333185484511,7.6292057208341015,7.147753179148454,5.922000522230574,15.530886003490115,26.258421211541396,21.61798488264693,13.576534307344541,11.230566085332125,4.163751511435651,-0.8511036354781158,7.9130268757306155,15.390622344761937,14.005207960007102,17.978846309637262,23.9016894222406,22.649497377266112,28.364955138625202,45.014742341822064,57.97448085997251,74.39693414777469,109.00694647328004,150.41849822306676,190.09454542289978,234.71930637674382,270.2749550086294,278.501250047797,271.6524739757258,259.297304757283,233.7573427891872,205.57053910956338,186.85822710472758,161.73815783117794,123.08210271994577,86.57510467413357,52.34701291666718,14.094527503740025,-14.663275228832353,-31.72069494523028,-54.06348313884113,-78.28827062139797,-94.02686971749506,-114.41197733206334,-143.51014772979443,-164.9630342269528,-181.32257903363242,-202.92850787131005,-217.44078803756327,-220.4419227297317,-225.85808013435377,-228.0654295540527,-216.66889719501216,-207.463212810733,-208.1307593678974,-204.89203523682477,-201.3250910479524,-207.05155633305225,-207.76033985016068,-197.5990280502138,-191.0265456984067,-184.73351650296212,-170.37943854352764,-162.96137356059887,-165.85423754985624,-160.10800402188627,-147.5659415186791,-141.1508020556669,-131.9590867306218,-117.31877613140551,-110.39106485397645,-103.68030152082852,-86.14330163918838,-73.7590407782986,-72.82892362706951,-66.53535698358164,-55.85597060851319,-51.00900732017376,-42.6736009592142,-30.232486853783772,-28.203816135963905,-28.590637243141526,-17.97251827929727,-8.640692207585309,-4.835299838113823,7.685335508274029,22.191795639009985,24.915059228260997,27.11138769401172,34.29017400136366,34.63347609645261,35.4020930878022,47.6990165800513,55.66704548925229,52.8035047985525,55.636111082940545,61.23098773303174,57.448816396618355,56.1521603763609,63.179492317902294,64.77514162841638,64.73563651425991,74.0813227495344,80.13033796516595,77.02998699193691,79.10851217398545,81.88513345371805,73.53142167980283,67.80505435810207,72.80033639029861,76.63659399907706,82.21918328565808,95.3758931082662,99.80991411054895,91.22917469849926,87.09297486446096,86.6924793221351,80.84775751586754,80.18092462161545,86.27448449646721,83.64795080077934,76.85456180519733,77.43628182288808,74.8059413215089,66.7852586119173,68.68670594703744,73.97184453732186,68.52306693294382,64.05146361730951,66.39539471816279,63.02739554063621,59.791106029724176,66.88469796628719,70.28687229428452,65.46395678856271,67.47893636075196,71.0985579531349,64.37725491031088,60.57683460807907,65.29845467898004,63.94099051217728,59.43883092839704,60.2493752094251,53.70532389591845,39.48542731220206,36.41675795388698,40.0478230179521,36.67370796029545,36.495482731644074,43.04519299343994,42.39161940640166,39.756341199168844,45.32155941274439,45.68119478260634,36.94206317107371,34.384782739422725,33.710015506403394,24.38470759817244,18.76763299752107,20.649714789848,16.624232243540234,12.601576086575637,18.598446761908917,20.819813287048405,14.383016008066216,13.074433391928268,12.66217771930067,4.190854906129623,1.0448169785616386,6.3361250163755365,4.8267317944637345,1.8065499030988355,8.661592991002161,12.2985430646362,6.657655741414314,4.262251514935338,1.0703084939546925,-9.994141678344917,-13.926519631878666,-9.167642684312886,-14.00046333687878,-22.883428557039792,-21.10682217266602,-18.669038625051336,-20.135237224496162,-15.36819557664956,-14.41657990741938,-27.477408564307694,-36.12670755235882,-32.0363224595864,-29.25343828637753,-25.603192689595,-15.064608733235314,-13.302822332925102,-22.829467743118325,-24.70443091870331,-20.204652136063125,-20.515286795027162,-17.96816311988851,-14.064597333403249,-22.803698427940038,-32.46620280466244,-27.319508934898924,-21.205003725259516,-22.33183780084375,-20.23496802872379,-20.5179276416346,-30.255523416097127,-34.098240072252864,-29.44345972285108,-32.347658532742095,-37.77803882938728,-34.457550896787296,-33.789675838392895,-38.83135763200712,-36.39412364630621,-33.15000585326446,-39.3393359995637,-41.25986188462368,-35.531053471190376,-36.57996102887302,-38.68136566848121,-32.13004201740338,-29.87536768796409,-34.4158244678574,-31.557802529401307,-27.843814438396272,-34.68293848878986,-39.08632312857119,-35.58370230091339,-36.456564736730186,-35.79836673613298,-24.52797715619232,-18.130010621390273,-21.84314867034089,-21.1075581793854,-20.530454264252583,-29.641520106529363,-34.52564227450984,-30.646440993284187,-30.969500206015645,-29.259569733644884,-17.469188765263247,-12.874337306187034,-20.880550366013495,-25.217769992298443,-27.423007069639198,-35.162527215884595,-36.24256349702689,-28.828772479870928,-27.414239515564866,-26.5835745183005,-16.708577971322303,-12.146184431012143,-18.126051247349064,-20.03918756261611,-20.53989698388244,-27.824918194492408,-29.56363525557262,-23.376324755072826,-22.973972511966785,-22.47968117076474,-13.18418214895227,-10.163330064998814,-17.47569594475524,-18.97378569042416,-16.892431532666382,-20.0773327644198,-17.905156196716923,-10.774130397268362,-14.898110526858902,-23.91393354941526,-24.5408484713642,-25.890527486982705,-28.864326807060262,-19.535036055734658,-6.48236410186299,-3.8740471205634504,-1.7235704277558694,2.436313479289346,-3.737224185555475,-10.839995394269337,-5.760777489921237,-1.2119622256677587,-2.008964402466438,2.911704657165825,4.054216060433607,-8.25084456380936,-15.511017585938834,-10.282220694644039,-7.022429510394343,-3.1713662374961142,6.7414573771816,6.350063900860733,-5.712950771312487,-9.940742174346145,-8.963480482758376,-12.949861877430244,-10.484392065566865,-1.6512926800133427,-3.020429531691169,-7.1621668731413735,-0.9464847056461307,3.7001643372944386,3.091388140423431,9.311752149883544,14.274397406294781,7.917043852495388,4.549032697794968,8.114622139565725,5.560041528088989,3.9417093593575374,12.932706299666407,17.804251986049483,14.297127761137226,16.158908403449253,18.183038065037923,12.340840457113012,12.170316612947502,18.532843023398502,15.832197667552002,10.596137118923341,14.473636998811175,16.38330398522482,14.132967880506612,19.98635176294121,24.16932159315506,14.635775445632039,6.344894343503086,5.6592717300394115,1.7921051429018506,2.4811966866210824,14.483137839977944,19.81919409613331,15.551445735656912,17.95509517879268,20.67939700217416,13.53475097960475,9.902782784882161,11.976330703769607,7.802996844504341,7.094992947801105,17.736902642066894,21.21252805376936,13.522918749270035,11.404634092730172,11.314370104835568,5.328406344250137,6.11297600717307,12.281233997471762,7.032036582504766,-1.0047108259283593,1.7403825580074597,3.59336591429337,2.0184053597506515,9.613471296612246,16.619100515271366,11.643535770439936,10.054013069923183,16.18996531678798,15.543148070378173,14.067388684272,20.567069447997653,20.41118757086541,12.591408240650303,14.594097613710757,20.45201611965495,17.59762232200711,16.712712125554017,19.166039090117025,11.631187635028617,3.678521931532024,7.652522076058218,9.792829994874129,5.157448152477528,5.729849588057341,5.2023608413605515,-4.105693343943733,-7.213950820383616,-1.693139037980827,-2.705523258414463,-4.408774979650932,2.889812559483017,6.115369523924025,3.4161262803246206,8.467841624536812,12.693001798658281,5.6140608248969182.0892846125303945,5.720220514090838,2.969327208052298,0.9580660627358035,8.96424786894703,12.33814789985827,7.7094188073768315,9.036858485410693,9.800955856312788,0.9710940247960349,-2.040143857275013,3.8565816849649153,3.1981871543370257,2.0464819365404403,9.890012488339003,12.95155017933651,10.68025172767206,19.56645535966869,33.52416842004243,44.84475627276832,70.46493049553669,112.52470511343866,153.37737569974016,195.9063820522553,243.4989758448534,274.53468604499756,282.0713155460478,279.5819678381947,263.24302646043884,231.15658698568208,204.47210849293845,186.21157158571813,157.34454624479298,121.48786023040941,90.84137293534302,57.67427211311258,24.350781866486194,4.33907850864151,-14.778666240180096,-47.03500945500424,-77.62748665186245,-99.93384349720571,-125.59435436914335,-147.38241491397991,-155.45975898395227,-164.3385011649113,-178.21132641633548,-184.6823605761076,-191.69541093715804,-207.51265767161564,-215.37977450585856,-212.2124182363813,-214.35897546271516,-217.61335669313354,-213.02360945765543,-211.62652986453992,-212.20768193841855,-201.4004839244595,-190.99398235460401,-193.85435825340397,-195.05805826993225,-188.1325342738613,-183.1956036694424,-173.46466697563574,-154.04550975738928,-142.68344209601025,-140.66533120659574,-130.41555690314215,-117.55477958783038,-113.22128027658368,-106.85036973065107,-98.59336742547552,-100.63880538017503,-101.35543669894771,-89.2713498364021,-79.02474545069079,-74.31937304925768,-62.653498319405166,-50.78529176212234,-47.30979525855386,-39.82299681760022,-27.35573069296644,-23.023072494733505,-19.225058296605013,-6.215756382813151,3.85655996817796,9.561958281269588,23.385526511419474,36.42878246145668,37.947866027129905,39.562941398706805,41.61064544781002,33.29119857243178,27.816348978848026,36.66968039194639,45.16138738052774,50.18642710824909,62.179030646539026,69.84299272482238,63.71223912587797,59.989844618574075,62.70096249069859,60.09500371567438,61.18403744305902,73.94167014595217,80.79931691700237,77.86315860175196,79.38066763709648,78.65381446015755,68.85243361035877,67.39404168191192,76.1739920821591,78.66884651647521,80.12375062451727,87.48255185711017,85.7962616849523,75.99717082016996,75.75217858024641,78.84731889399313,75.24305561310207,76.32927834982132,80.96269245716353,75.67053968236232,70.41720701727712,75.44998122297926,76.67927106350744,71.2914335333453,71.8024554018048,71.53615344742265,64.4614078196884,64.79046977875115,70.2438206408834,65.64636875860208,60.95965998353522,66.4364981558786,68.92439911908615,67.765811222145,74.42390742813889,78.39290543737116,71.44394631764794,68.52818229854795,70.11196883547535,62.149498640505655,53.001160092061724,52.25072993864701,47.934677103466285,41.6473699386477,47.58069030650606,54.54735613034518,50.07099375859688,46.55172483477198,44.99348219283472,34.6260085347101,28.087417862934796,34.72294049926704,37.733840042081,34.30437670830088,36.79309032844026,36.32986038411303,26.211937284364474,23.101487273174225,27.45999164519182,23.086194666988316,16.549889993230032,17.026715460342615,13.313052861305449,8.050522356552081,15.419836635316882,24.368637691048537,22.783555514630418,22.046447988814304,22.112496291716457,11.372190659127604,1.4740686052277496,3.1299518198303704,2.9537470495185243,0.28904169574375116,6.478688479308188,9.268442766704036,-0.14551088370861986,-4.943952048248019,-3.476568726879007,-8.49327421755231,-10.473351754770977,-2.6003715628225637,-0.5462535866152463,-3.99361236710084,-0.06923225870253535,0.6697306699297954,-9.797894783308863,-15.605244219499431,-14.98906495024239,-19.632434556065967,-20.67188928736008,-12.845842249832053,-12.948655510884638,-21.007850594393634,-21.805230269801324,-22.36320203381961,-29.678482462888823,-29.12496446237386,-22.422662636646713,-26.006923721490956,-31.076507306221206,-26.849417075120073,-25.959156266421324,-28.037839487468155,-19.871165146986478,-13.866449350520261,-22.16631542238334,-28.35119485155744,-27.239830726428224,-30.939772872092362,-32.12905267987207,-24.708997670902207,-24.37330084799928,-30.3101534862002,-26.769516245363956,-22.066968785553094,-26.622013561381504,-28.53056128721132,-26.70333336940034,-31.66215606806088,-34.28730228406235,-29.27666929472384,-32.1229701645923,-40.4890193739191,-38.84103116149556,-36.25238746925134,-41.32132349520036,-40.930773746615436,-36.63949872696745,-41.11136401954622,-43.37220244677541,-34.98199523649405,-30.994266014573032,-31.342868549156762,-22.256417505606713,-15.126676655574553,-21.62550043536744,-26.25124293694413,-24.932405256973546,-29.814657700092532,-32.69038072104471,-27.333341554315624,-30.700185577335937,-42.2310432749295,-43.99462135564487,-41.338212435186634,-42.60677113084738,-36.165910564128865,-24.96127643162206,-24.335405445219635,-25.574025623530567,-20.440543059461607,-22.903902670187634,-30.88508607956929,-28.082338575675585,-22.14796487530242,-22.254372995326566,-17.388405270715623,-11.342972167535377,-17.802393114069233,-23.246012617087707,-15.40821425263217,-9.046962241075388,-7.617418628973143,-1.4435283169834072,-0.9522495944451144,-11.550415471138743,-15.661660906927132,-13.372752675888329,-19.390331568522463,-24.939542205297805,-21.562268816557022,-22.342150285738754,-26.567947846311466,-22.388253667774336,-19.676037025926068,-25.435327887480167,-25.102787183684434,-18.562141591405304,-17.873300916729022,-14.309141565768268,-2.1424620273014616,3.0508946188627,0.6105626082913722,2.805036291854564,2.6558966742170815,-3.1542817043743856,0.04996118282919504,8.044871153669302,5.726708679814099,2.7275415035321524,6.78427838703096,5.108187836526922,0.7166308821189853,5.752824905519397,7.019140140862879,-4.394346784004846,-12.465560927058672,-15.997110066944632,-25.418800292298723,-27.835608337494747,-15.38053240923821,-6.075525436534825,-2.787076046712443,6.843427966388225,13.261691553326425,8.374286331128427,8.112772110446477,14.210274924589315,12.94133350861917,11.673954990175634,16.847290058238784,14.420050286655286,7.504204361464283,11.526461854050943,15.64599806860658,8.381788347063063,1.9151336394811724,-2.301611534487107,-12.09396488846217,-14.932804377314703,-6.267755547672211,-4.661577364702021,-9.553439367935976,-6.163663659251707,-2.640118899468307,-5.152719858077379,-0.4425402573165087,7.2842610292198176,3.7015668372452915,-0.9414369604173477,1.702251879236276,0.9275527088080813,1.657804287026003,15.117928753124202,25.64148839650523,21.69371866611447,17.569129639235914,15.806375872808893,8.074039019171904,5.27399981922699,11.488426898059839,10.540656819099201,5.410500470375586,10.095882999246196,13.74949544901681,7.814851390155549,6.384871519484984,9.964206295877156,7.275517961875504,7.678448867377378,15.842883204013878,14.996330302645662,7.562806102642739,10.300267068270362,15.901279657969017,17.002081530077092,24.381726930442575,32.394024028894435,27.55120767262629,21.38937363251231,22.370076077791424,18.34288447167422,12.283090243910056,15.980910990091488,17.998136335592918,11.551642077144027,10.711629833533848,12.211190289411956,3.2821139375426105,-4.172806182548005,-1.8707338764933725,-2.0002515480752256,-1.0813457089055198,11.144739686174317,18.538122942856045,10.135630681860968,2.1288813113097653,-1.3489810806471951,-7.606373433484837,-4.210468742446107,12.368372174882143,21.423365088153787,21.156589727511495,23.987466640130386,21.10343735022488,8.860177758048692,4.619019208906572,7.0332093283868025,1.7747501426606607,-2.4096100646831755,1.3031008805424515,0.713047291174469,0.13640305778389383,11.111612214637505,18.965447970202664,14.46418853282904313.57758107896759,17.890721909923453,17.307068095701307,22.19399226589921,37.31168131649437,47.10012720676347,54.67936083100535,74.49333596996009,97.11808629453444,116.504151478834,147.07685897328756,185.3309931028297,214.7332843683861,239.1764764539404,257.3392031655154,250.22360655069883,224.33413117872647,203.2087365873143,185.34896223408322,166.55071838864222,156.86000452766444,146.95057636124088,122.8385933283885,102.57784187855155,98.55889636605227,91.9032205256548,75.37399139593391,55.639952661791526,24.528038919485496,-14.364498874795292,-38.049531200677805,-49.8688654193315,-69.95360398360265,-93.82364498893817,-115.48505791636674,-144.21782356822746,-170.8245095158805,-179.33563379490715,-182.08941161595948,-190.39412753867796,-195.82091219975416,-205.58110811370858,-231.60431947670247,-256.007142506066,-265.171998197663,-271.28074257809743,-273.62638027796646,-264.59302287677417,-260.0812789217169,-266.34554095967457,-264.73297062267767,-256.32119553388407,-255.79215760907522,-253.3945949727501,-242.5164556558595,-236.8646055196178,-231.2221166069895,-211.48120231186192,-191.21991458844406,-180.5628460308665,-166.7379566058917,-152.82511895876078,-150.7517608373011,-147.45992739016964,-133.9947542465451,-123.00756483429268,-112.1625857020159,-91.42230585208134,-74.45654818168885,-68.8665590572908,-59.562440382261286,-48.00607766666507,-45.67505211096977,-40.66803519437187,-26.6373460869357,-18.20699145276102,-12.243842781934138,3.0102338871852146,14.101616092286784,13.441801745922017,17.580086735228804,26.760841635334252,29.70449899695773,37.414623122897865,54.62406711423178,63.92070042931191,66.90790291170043,77.30775774470963,84.73269179573651,82.56944244684917,85.8238894492287,93.20867852586775,93.43067973367376,96.93174896815128,107.50410190260104,108.74212366788194,104.37032004128248,109.77288424309086,115.60390329010058,114.35854480923238,117.32931317258736,119.58511266441766,110.13095900251318,104.42169506825951,112.21207648104341,118.3933598570836,121.69214561363728,130.29178056104627,131.31075427922784,120.30233525863824,116.077512934802,118.99856250602446,116.43746891648516,117.0470899455902,124.1055847426912,122.34399504782978,116.0121229927132,117.57958961110405,115.43465704467471,105.29952696005489,103.46995376684988,106.4173951704384,100.52543134962457,95.7981514180414,97.18284079055549,91.03013849858584,83.11974866342007,86.74475694545406,89.5436368808351,85.57159163159017,89.37227757104833,96.07178232997556,91.36928698784482,85.4530147807537,84.57522292167322,76.3290299140873,67.47524926666584,72.34228683830979,77.51986692384865,73.96718441038078,73.7415787651825,71.33531564413465,55.52386049366447,42.58958177943922,42.17763059365528,40.175357642991926,38.450758847891066,45.933576693451755,47.31028998055918,36.504493325906175,31.73704294504226,33.02764599508587,28.74317143845006,29.420340915858542,38.51521535996582,38.747844672972434,33.5061577031729,35.58439483883295,32.548191694741334,19.791196390673296,14.613664466676209,14.1865811039101,6.024918050936987,1.3478562319551148,3.992276727972894,-1.5566937453484386,-10.68694577576452,-10.92126758250453,-13.50729344041745,-21.901463864662748,-19.46902655509495,-10.145861562184713,-9.467625133257537,-9.619513443517866,-5.388223522042054,-9.269619685528408,-15.817130657126206,-11.405811230533653,-8.30160317595831,-14.738152715962393,-16.676971244564474,-16.868988970451063,-27.269268477674316,-34.868075049999284,-32.187521523518924,-33.4488679864587,-35.74876763774892,-28.30669988006828,-23.902105544400303,-27.86164452822194,-25.288059385368733,-21.11635031176313,-29.208531473778084,-37.47798815789732,-36.949942875663496,-38.455400795870574,-38.45110848511439,-29.026758147410483,-26.217312939231043,-36.68278837471239,-42.626446555611224,-43.02646149368542,-48.621293235078504,-49.79832578343463,-43.19640383291545,-44.22505084031246,-49.18596676589777,-45.82266605316916,-45.16669062242832,-51.143559127167144,-47.83970759791743,-39.83275497601806,-42.87155037767809,-47.96352799447001,-47.2843883758443,-50.832536695697044,-53.101335517357384,-44.38614151309412,-41.23916029275112,-51.175465323611036,-55.14797188982144,-50.40414998316972,-47.83067995458502,-41.05994887807094,-31.345480410620354,-35.36110275104919,-45.40910070091371,-44.45840783155143,-42.79138161888573,-47.13820769596067,-45.51804266782568,-43.54243543519504,-51.87351522472551,-56.611876450491565,-52.21107796391167,-53.314691123342875,-55.44079903547338,-46.740050879272715,-40.01940854445088,-41.155511349989645,-36.34194857142511,-31.279130409463715,-37.698028342944724,-41.41963839541863,-35.91573033903162,-34.24372656408377,-32.044859022923504,-21.825691242699662,-19.73571963140503,-30.19914019729429,-35.505003000700825,-36.77238684302685,-44.08005940571974,-46.57820357858363,-42.26919362158403,-46.021069862376706,-49.80889552018427,-38.96530291952583,-26.613799384474685,-21.648464933517207,-14.453161884763306,-11.744131129392512,-22.570467258744973,-29.245733509909275,-22.721021716082227,-17.633049173257916,-13.484189720349516,-3.5436252092007274,-2.200856994201265,-12.072525994878193,-15.125810105825174,-14.04392138316813,-19.804017313543305,-20.879378250689733,-14.401641510519536,-15.715761064407149,-19.474224837187407,-13.370154581869732,-9.594782744565373,-12.645731995096613,-7.594226679700517,0.04398421382608131,-3.396907356331501,-6.106370842896217,-1.9485403611049796,-4.20820728143697,-7.3333730724387385,0.08482981943705026,3.781302696934934,-2.4449889354865384,-3.3637091731934112,-1.3041667807789565,-5.804548457905615,-5.422250929743786,1.2229868901099037,-1.925533667087631,-8.954397368452225,-6.841608156552002,-6.1200005302055525,-9.631242854728155,-4.524711415414755,0.4098817559704293,-6.926468661758449,-11.159543321007312,-5.0271856617593835,-1.0924331280855895,5.080051851943438,19.772066698693717,25.17509953389075,17.556928471646057,16.699212905604394,21.18895170186702,19.021559757521,19.270625626543175,22.26615460440215,13.378558163716582,2.989076814248771,7.6081592276059595,15.238898935604402,18.266170857551764,26.294179278361263,31.07744203155889,22.427776562559895,16.34100936763808,18.98315267610972,15.6842481508046,10.952721882483269,15.809559079768512,17.961980014871386,13.799374857616396,17.263563095761064,20.985442721736018,12.51559146346033,5.9677272175977745,8.100422788301021,6.408545092064644,6.400536282750245,17.376019671816596,23.56975065366848,18.544355855821866,17.40396894421033,18.247395420267384,13.055875464874902,14.757218955588872,24.601009788820186,25.210982522552893,21.351533424739564,25.40093027831229,26.539435750000827,21.43217208881841,23.196478626131643,26.08322282016847,21.000340794458317,21.640481747645957,29.649767730805678,27.534359585563948,20.366575133126425,21.542480910470218,21.325193008229533,17.54723908276972,22.97209725245363,28.15241959603833,20.316043493272367,13.861655930399401,14.87106120590698,10.631282329285279,8.735009823420286,20.724834880189547,30.398896202714756,29.54562277453303,30.850284238736116,29.55005107663048,17.602651550840672,11.643730975462494,16.2675655013303,14.113252948435125,9.22559360979854,14.125359423502482,16.81380406680373,12.768784368587358,15.369630060885775,17.920684000404,9.505752330490248,4.689229131920137,8.837332395471115,7.684838471073176,6.486679352431702,15.597154918038662,20.926847222561285,17.860284904849347,20.198119877524675,21.571465432435705,11.643864056207654,4.899062507456611,6.077479212310871,1.3103662334046164,-3.013129068324139,4.535715375533128,10.805657387402746,11.01855916644097617.793112606488755,23.34238532493925,16.07111898877572,11.072097977311824,14.773886709116427,13.782827082461967,14.91720514382623,29.947001568442367,45.68311689239946,59.017604875994905,84.93276857549398,117.7590480417449,147.42924102842164,185.09860577860778,226.52351484328108,246.86812015721785,246.5559519639962,239.92351560716645,223.73019886573096,202.82741405192127,191.3642603440241,176.44822884320402,142.98571623961016,107.44548827397341,80.25031918689861,51.030003968191664,24.826875401694664,8.084807701150725,-15.833108442552613,-49.512616054168106,-75.25824300219321,-97.64848692802644,-127.80584230254122,-152.39156634788125,-167.0621351507877,-185.7313269321562,-202.3630867379209,-206.05937376950268,-209.5508602093064,-216.93060539614612,-215.76999170533446,-213.70575094454128,-222.38547575937935,-228.07864574672664,-223.98602735421056,-221.50031121595782,-215.45228904746986,-198.92073772963863,-188.76814114941567,-189.93162196533177,-186.5989281699076,-181.59160024818667,-183.67665068650768,-179.58304147803912,-166.29612312139693,-159.98890301429162,-156.3677090925601,-144.0062008597307,-134.62662623513427,-131.01978634693754,-118.43645116561169,-103.22181275126421,-97.18926880442845,-88.49222953961191,-74.12544113987948,-67.71202402831724,-63.029169253467046,-49.68466479223255,-39.3696491368391,-33.9511776710265,-20.894028675511116,-9.200152409371348,-9.7567912125523,-8.056583887550065,1.0667545387477722,5.494478788730518,10.887881242658807,24.495375679788438,31.96419959433179,31.952112315673904,40.21678728381348,50.4806945081305,50.83004454573496,52.496138324347186,58.61820038777464,57.582547877065515,58.47591942197111,71.59402976585753,81.04964961656087,81.44694096384544,85.49918151439523,86.48424045469015,76.63457992369095,73.54719372995196,82.37060597591963,87.69088551788892,92.91132435681666,104.02841792407423,104.33228778082531,92.6771557469782,88.9685252687506,89.90007607250158,83.80553487096348,81.44627124090391,84.2201894284373,77.80989070517853,70.31596850058469,74.26004478833269,77.23053992837062,75.51628883106608,81.57266651092873,86.59171554441585,78.23338930579371,70.09597282424025,68.81904392630804,64.56968822214655,64.35594850006824,74.96866984590687,79.30663400928785,72.87383331235517,71.03958825298103,70.6953618522759,63.93932472555249,62.45032815382338,65.99038243337436,59.85056542298969,52.30086421468331,55.55772676887793,57.77232517602299,55.71664979232774,60.29396508599903,61.8276945808725,50.85676610106978,43.746978393922355,44.89348853425343,40.6683177058029,37.95712974148702,44.99388862199438,45.65657505654217,37.271652700159365,35.644799793867925,35.11394473301032,26.45322638972267,23.005877323061217,25.857962077177792,20.804986423724664,16.4323758857358,22.804018008831296,24.30397187557646,17.39089400127844,17.30837335893848,19.007209603881932,14.085168211409673,15.189374462040856,20.57317412037034,13.645918300485281,3.6503516167380545,3.6950090388834753,1.793898999508845,-3.6841800600776446,0.7428819846740238,5.945248001434119,0.13300939004486345,-3.6411035247644117,-2.4445999861223147,-9.77777673874286,-18.01907793946907,-16.317216616004558,-18.096232922766397,-25.455269982531657,-22.435610008549794,-15.49821255388175,-16.789624321490685,-15.21184125808519,-9.826979000683465,-14.535837985643594,-20.666108960378278,-16.94843286826275,-16.04774344246377,-19.992609344446464,-16.20887298227914,-13.765092925297363,-22.562436397613272,-27.319003847202612,-24.13077422572669,-26.48768009240129,-28.494306198789456,-23.17798587366412,-25.46941026560992,-35.066780296857566,-34.09593751581955,-28.907912328367193,-32.083981201357474,-32.572021148066426,-28.710392449375767,-33.760623352367745,-38.567019561433455,-32.73521002204753,-31.84204243094475,-38.48752774215532,-35.83141849422041,-28.975590061708125,-29.625375004690373,-28.56816999760358,-26.548397375114575,-36.24466400405822,-45.180526912108306,-38.92177285615799,-31.54125711687516,-29.405856716889254,-22.331574513425,-19.239640059127282,-28.738937544426975,-34.15006969351821,-31.253659523087002,-33.1660100623278,-32.92489884718242,-23.316619568820897,-20.227069527904735,-25.427652745093813,-23.319722590278385,-19.606964507807717,-23.56872143889074,-23.377178725603255,-19.28031593561859,-25.144200875261305,-31.31938196697899,-26.186101234182907,-23.238808883927163,-25.140088600662523,-19.300010707758954,-15.096242219011451,-22.0689483562831,-25.199621843181077,-22.92254513084851,-28.81247812579664,-32.91420926709208,-24.53415366672085,-18.74747731194785,-19.278092443037618,-14.23254740056425,-12.461051581993338,-21.820457662933148,-25.26977615227709,-19.836537782196324,-20.48717326388604,-20.509238872964616,-10.625269182317613,-5.626573973724433,-9.234199195476258,-9.005494508108947,-11.890852671083874,-23.952140547318965,-28.094339442650025,-22.38152229303413,-22.805494190772265,-24.65251203776193,-19.559754914056203,-18.40205579886557,-20.075847641424065,-11.983981983986812,-4.380633378308678,-7.734032512252954,-8.534818180767733,-5.1012297801800255,-10.724859713334702,-16.977362160706488,-13.00271346525879,-10.323875009980998,-9.737487128191578,0.48739879554344245,9.102389773823136,4.506385455469661,0.6673907283914742,1.3549913758717347,-4.41114492781868,-8.152296430892624,-2.3945071045544486,-2.1880349385795785,-8.271135473902401,-5.910716394360941,-2.4235132290416312,-6.128566743130085,-4.062271720118544,2.0495841848677587,-1.5894410862558366,-3.8141494909100926,5.287825715854434,10.368207513437655,9.404450823052269,14.514169587259058,15.74669990294545,5.765859488219482,1.6192147342727485,4.724465979314806,1.1632452682880308,-0.05268506214342125,9.259833022141121,12.639269313388755,7.7119456534428785,8.497461310118926,7.462138233801218,-2.6561287680823362,-5.51683786597533,-0.16622193134808105,-1.946603979603596,-1.7948175514738898,10.841981655929334,20.240194364770066,21.80092386959393,26.534165499765187,25.23273360577172,11.111749785748156,2.853365827416476,4.914612481465803,3.9404735371195656,6.006232901573325,16.561106072786245,18.89614355913459,11.336706901154143,9.36364394906957,9.030332769914029,5.038211754380631,10.184799038431331,20.327761589816102,18.01651851036073,11.840916946357034,13.389209563621913,11.985633587338786,8.955686941833026,16.247151965311893,21.468457672752617,14.57807167046308,11.22491121174532,13.95753397874037,10.711106370597335,9.794259582081214,17.445702047571157,18.09338069977397,12.54727050966816,16.26579180482921,20.047582125497037,12.883891220690767,7.271936129354719,5.031193332465786,-2.5349959210670097,-2.6371949899065443,11.418149136452413,19.5301008419288,17.053532092962975,17.396410182989968,14.802127653900417,4.742828412867715,3.7106227936640597,11.29663413328853,11.01458035228482,9.395282688276785,15.009086045434733,15.002557645035978,10.77121345910612,16.85837463029917,22.679700619361842,16.41907634336622,11.973854087588958,13.391918595197728,10.416831226604664,10.87917495280587,18.613447103498718,15.935539902251257,4.321147267412988,2.217356099925954,4.426974437826949,2.2806840119423133,5.135759941766166,8.94343779926082,2.1926023199578193,-1.1803419253601557,9.249911052779066,16.9099167249689,17.085533409688686,19.988124273384216,17.152386082228535,4.125162890896439,-1.3731007236387083,0.7780036883282542,-4.8810234439448825,-10.120442614989365,-4.3841800573375,0.9258277520586132,4.139565247177524,13.37292989253993,16.349037110549048,5.876220510857008,0.009500575600591588,3.3971064107452182,4.433065452422123,9.491527358793052,24.753680427504875,37.991406188832855,51.9399116211774980.91890477516225,116.01504663419308,149.11156485070552,191.4112116770097,233.9610251971168,252.7610266379957,251.79482505383132,244.04736904995752,227.45747663482695,210.71932503901314,205.1848074474752,193.92637709049933,163.57080003789835,130.44507495844,101.02024008344434,65.64443075003518,33.467797064239136,12.47030163645418,-11.304809975229901,-38.382993165486674,-59.123018722637255,-86.72613622599515,-127.13454544290072,-158.81348805085474,-177.00255664748758,-196.27008241949727,-212.1865102749061,-219.77540733171742,-232.1925097256746,-245.40309778780988,-243.86734446700808,-239.07726662784418,-242.92214006345958,-242.51428558857228,-237.3617307520111,-239.97484685345574,-240.92641667709668,-232.71725409150633,-229.8080193034453,-230.71184456785946,-221.15052686518578,-210.23623539337547,-205.57644118988173,-193.3527087182447,-175.3368596327148,-165.61757475581587,-155.1219445901421,-136.71783622704942,-125.82996232909228,-122.01937975088252,-110.94900967750446,-101.54052265520352,-101.26302001916955,-93.75730522369889,-77.66710313087856,-66.9423613797886,-54.241369059646274,-34.29985303251682,-23.600996705559854,-20.91893339657889,-10.514279175943207,-0.836763929046604,0.24844495346759943,7.507348828727961,20.42446788429839,24.979635621336854,29.157323578230447,38.825605730359214,39.96301668868742,37.11114550436529,47.08319777004735,59.6408142460694,63.313829196781334,68.86476927103178,74.09892333391029,68.13670753579501,64.7496782224462,73.00097489997476,77.8267599816183,79.33059859221743,88.62451500627243,94.14011967339559,88.75467274184558,87.93499259748032,91.56779960396202,87.46650956228028,85.85900051160924,93.63795912043824,95.26727552173934,91.86529141718665,97.18502598439726,100.61344279451454,94.06860076710647,92.87731411378415,96.59552884706214,92.32656685088723,90.36655108777285,96.76433868818464,94.74819954100498,86.34422479955069,87.45168186790295,88.96391880339988,83.11227394210846,83.46162409957176,86.76945138911275,79.52279596345466,73.41501515277125,76.43534113645363,74.26824601727986,69.25377263860713,74.92873117780776,80.5244009169281,76.59019910979447,74.98719453087239,74.02237347463954,63.03503387512953,55.51353297780496,60.71558827444301,63.30782304193639,62.46601844521083,68.53426767771231,69.3358213970174,58.53204305086194,52.86661951528423,51.926310782388825,43.534890359095655,38.70679401336062,44.12229310848539,44.406680187022474,40.30305619157802,42.333814847900726,38.87549086460883,26.51880157545588,24.212628842979537,30.213391134308843,28.67984702556562,26.231567445340936,27.463137769290135,20.611595232606817,13.095122661347773,19.073701532281984,24.166840032795523,18.14260503547841,15.75130505547028,16.490514267626,8.08579454944341,1.4675317028985466,4.000026872471079,1.0739391346424536,-4.745429778985691,-0.3059611334954502,1.831060727892834,-6.696896751100898,-10.502733438383439,-10.185172812165167,-17.35935584735947,-21.19391426248523,-15.707001977176231,-15.44370108403772,-17.727646204166014,-10.527463519093848,-5.862868782091551,-11.4715610444446,-13.670065484124738,-14.367127669820157,-24.77539808623667,-32.658853707228225,-29.970671108365497,-30.045891125024326,-30.54353099699811,-20.438064419316003,-12.909751837947319,-16.44036057608169,-17.508941522442054,-18.253261088253478,-29.377848175058894,-37.57149152975405,-35.68702501104872,-38.58927803671952,-43.01319118925813,-36.08196724057327,-29.95858613387507,-32.442159519980045,-30.28702333625997,-26.937740444038518,-33.96283232735675,-38.02891416767276,-31.74633158396388,-31.05220549952347,-34.84824473804148,-30.25419457073435,-26.92622676478892,-30.536466058934984,-27.269412334237998,-21.667795563658906,-27.296089647845843,-32.265261896020895,-29.13858824209379,-31.729877398265216,-36.77570073295444,-31.862209862896208,-28.039095721949636,-31.326554489152524,-28.72043878985943,-25.72801190840963,-34.6006139637786,-40.549232750254774,-35.13077745828987,-33.858982702357615,-35.67400153191306,-30.557058366937373,-30.954783755745865,-40.05140473941467,-39.0582307269361,-30.22519840761793,-28.562078586345212,-25.824850251102802,-17.627847129833846,-18.967059270326427,-25.791074937419847,-22.431343898862032,-17.559802665619767,-18.86426293633276,-14.588247447496546,-8.743303774133565,-14.60525348683031,-21.217927431194312,-20.37861297603893,-24.274865201905328,-29.57656671387919,-24.42076686175422,-20.22872252728758,-23.77315139927495,-22.26922727325266,-19.337419871526222,-25.4262393492032,-27.42375210235798,-18.870518082171415,-14.646796121915807,-13.885480494503948,-7.42913761053991,-6.667152821804464,-14.709337863810392,-15.14845569425038,-10.758463087833162,-14.289496070680244,-16.326223706172534,-12.241893820796115,-15.369046428450186,-20.954946650174413,-16.095559492003474,-11.49354825450507,-13.128342711115732,-8.856323817334465,-5.145687146312474,-14.856236846039197,-23.76162256893277,-22.496462295826095,-23.97833151335682,-25.61593323728967,-16.776015443122578,-9.801269348386922,-10.459939874741357,-4.355814689679912,3.4243859700202357,-1.9276611736301104,-9.154139620932883,-8.906437288647126,-11.579860140019084,-12.584054148677561,-1.6440223973596613,6.212924739364571,2.191887643458352,0.0058580549318275055,-2.170018704307105,-13.696720562320124,-20.070494247540427,-13.444552302026821,-9.045425500141329,-6.454584953617962,3.5756414962907517,7.318742503655574,-0.9995594100142595,-3.697391995212717,-1.0237563757909494,-4.354904950867087,-2.696666930898676,8.28611978486617,11.552407473562658,8.065060362249714,9.905879539615293,8.762113942843857,2.342740811572624,5.776132886480121,13.115245658930098,8.21711795226341,1.2383545410441008,0.7351892948567413,-3.632230710981194,-5.853962988615389,4.681524470943428,12.28737715980094,9.481785455421694,11.129710064922293,13.874224385492113,6.958573870069977,4.214669627404936,11.580850456516353,13.215837742665236,11.300673584120709,15.68815376003694,13.001498200658116,-0.24677667283337978,-5.409788198627312,-3.7948927668367256,-6.587781000061686,-2.4152118863334113,11.27267483762945,16.05247444020202,14.414399746873821,19.630564085402312,21.826736812422208,17.331743170130387,20.482587547612944,25.35561587061929,19.323538568689614,15.264494035503542,19.95459234774713,20.486739569152952,20.341375124178516,28.32956593476326,30.667512158109417,22.391118645327346,18.763239626251753,17.96648101789498,11.201034176888475,10.078257477285959,16.43569503920922,13.917008742638169,7.261351180601526,10.152407130211278,12.65445130822994,9.63733027454791,13.487890125862357,18.450394157519472,12.815516923711858,9.289721619141535,13.63871783532296,12.311777343588833,10.30475975830868,19.33003044260699,26.37719882849121,24.604985123547017,26.876764733131765,28.861138666503997,20.604429399772513,16.136248177355803,21.593248169784076,24.817516357755608,33.632914098078416,61.822809529216485,97.87847544365013,134.2632149511011,179.3128145791518,223.89779188616893,252.67112803847903,272.813450343827,286.5174958888178,280.19778702694373,261.02053733990965,245.6396327391743,227.63937804036766,202.8922376974806,181.13145454721655,154.8773536836504,114.77626289696593,77.10811029551982,49.504711077271324,17.840346207051333,-15.786729609309578,-41.02621468123544,-66.54310234254756,-93.3965830641987,-108.53725360136701,-121.12414206988618,-145.97247550143163,-170.3846740899315,-186.00310176491845,-204.09070669575252,-220.3817772163689,-225.32163561433782,-231.0176171481199,-240.03452671113678,-237.54729793578002,-232.20780129496094,-240.277745267437,-248.86638134084555,-247.73889451864878,-246.27217769554264,-238.96928227338785-218.64091368551075,-204.4923624976843,-204.98667174686506,-203.51256661834444,-200.005479872687,-202.55253408610395,-196.9550024902519,-177.9360741346414,-162.1036613089532,-149.41935324148562,-131.90570603541363,-121.68743082240735,-120.9029592475882,-112.29861915095329,-98.6591721611668,-92.01548486466234,-82.9379444709322,-68.73502946779132,-62.5251374431235,-57.23161423414925,-41.054253191383765,-27.607605688203815,-23.587683234798074,-16.22991715716058,-8.145216236379966,-6.36978378095791,2.0364650451216346,18.23527972266273,24.673600856825836,25.345977714153307,33.795765322334915,41.3998600252113,44.660251530601556,54.80024708490505,63.70632586502539,60.69861650919037,61.07336369473839,70.21144207412544,72.37737678367085,70.4845230377188,74.88110814953038,75.16375420217814,70.53753135379814,76.86977064543584,87.27485894931054,87.49360170068735,88.48979366168052,94.40573158706174,91.3114040275347,85.21877614849951,88.42705023002935,89.87539703586245,86.92150247086909,94.06974296326486,104.45440342847154,105.0099814368372,106.93467576498784,113.51721071042672,110.88279353657707,105.00250642241878,107.1173644544221,105.71501647953811,97.69997103179739,96.83535552454896,97.4587322225896,88.91307371651453,83.99212200363816,86.83296824925132,83.39796154647605,78.81131579191914,83.21124888562639,83.54959416856292,76.41408283892792,76.45227137014344,77.81127177166204,70.12902039503743,68.476339702569,77.30739045490327,79.7091135665431,78.11996807782711,80.6613267215883,74.16620581118364,59.90408856429811,57.96714259819439,62.71575636522619,58.565220540228204,54.17094580077735,53.056838468558475,43.98714262854004,36.09015978275032,41.48038637717066,45.217020369613344,40.335207516862226,40.32691834118414,41.147724240809886,33.864465572262816,32.85475225565675,41.94725347850342,44.583666873617304,42.72690504310618,43.89999030578291,35.52228894179662,18.594961316442458,12.656797504061876,14.017800733125714,10.057257275227151,9.948431074899851,13.995895503417426,6.899951574764099,-2.8043652346258274,-0.25193181377098206,2.5775791346916477,-0.11931905102867146,3.5652374514687497,6.431188424622517,-2.071598532517217,-7.019621150322153,-3.420509514310907,-6.242333763515903,-10.648041110117182,-6.553608618078643,-7.9402948941625,-18.506233617863998,-22.366945013891687,-23.248100434527327,-30.243840868368444,-30.159036266747975,-21.977864642971056,-23.524336393463578,-29.574494147124316,-27.522985000602795,-28.46922066497438,-34.341267567149806,-30.269395636657748,-24.09592248328319,-29.35725646532352,-33.82423150605404,-32.773093950331685,-38.297853439048836,-42.39721390066956,-34.198710974593595,-28.309414956008276,-30.277394305862263,-27.44034187933409,-26.523939583065662,-37.896207683403254,-45.99964594852114,-43.69159827831941,-43.87694760377053,-42.535070015775915,-32.4705836864778,-28.880937862876685,-34.08989632452616,-31.253825756843163,-25.792306822813387,-29.9212996831077,-31.842646973413345,-27.70506425155559,-30.857883479234886,-35.32545904263343,-31.203482953283945,-31.957301819879575,-39.69443323526195,-38.01868066934527,-32.77477092769571,-36.26267004392695,-37.914755692751996,-36.20379039826588,-43.35870521186017,-49.359369537267774,-42.46997532779568,-36.42341560148619,-36.00350651425924,-30.275371430103444,-27.45535543113605,-36.08500269169619,-39.77148373630812,-34.50759817493251,-35.13090252989083,-35.61834265121833,-26.803394083385655,-23.472676379421586,-28.149659668754616,-25.948203579082836,-24.815905269703638,-35.49693349589837,-41.69842744136547,-38.03907978097361,-38.81566254543153,-38.280853934060666,-27.76915381698589,-23.08295243227262,-27.58371146712429,-25.6184873703858,-23.086862454246223,-29.724395683978585,-30.908540868443062,-23.399399848906256,-22.648221566705715,-24.0726676743631,-17.96973052980281,-16.327238313487822,-20.80269828861586,-16.975332698883843,-11.933902031869735,-17.229946960300403,-20.14033756771525,-16.60230703642926,-19.420607531440965,-21.984164888741113,-14.285266281037973,-10.029227416767505,-13.428013961380604,-11.53115426032242,-10.095791115398661,-16.92109551524655,-17.601026339921006,-10.666407803422821,-11.605963360323758,-14.237606282955829,-8.060894062598097,-4.699013643929286,-6.051555850523016,-0.569728296083412,1.917339564835217,-8.856564292566077,-17.520912059280537,-19.05660674776825,-24.692488391973615,-25.893242538598926,-14.410475118474555,-7.020181020084127,-7.298880828252421,-0.7459426391434723,5.407393635343942,1.5592060870848599,1.8964158036664394,7.635966462129986,4.354180726328657,1.3316358207428824,9.44433172426501,13.28029279595658,8.957188582142361,10.836133705637419,12.584458029947438,4.7712352448674356,1.8397320788186955,6.635779676180487,3.9205276479442883,-0.2727808019717235,5.086800760524256,7.638016105883031,4.516024733429639,8.82458353714437,12.392385323218418,4.644607386263205,0.9333099157122405,6.219746306591365,6.7840482902702455,7.49931266777004,15.21621791552174,16.030476556792685,11.01782056397395,16.2056691484689,22.0070638822049,15.693572290679018,10.588943853810198,10.210309911768864,3.5646215861766235,0.6093059548627663,9.065393069712757,11.95463569848413,8.068101794452819,12.769175514412243,17.159793461194354,10.419203068425523,7.269459006918536,10.904722452928931,8.015593469071911,6.032595517151506,13.391944306382387,16.14662979846176,14.816870686065908,24.88610954119347,35.85483593593912,33.03748840264497,28.215824677211693,25.91234777563229,16.452841944863415,9.441736976022291,13.42352413749865,13.55334831949591,9.717981640900774,17.75847544433797,27.318692554241807,22.753303906678344,14.985576539934172,9.522190173605747,-0.05089148484191064,-1.247701580643859,12.833734963183003,21.32403578378607,18.356384772388964,19.025518163131643,19.88148354511194,14.954643324594329,16.698170000695978,22.49377923246572,17.215176229006964,10.570277855285447,14.528154858685369,17.134102438195054,16.291278921804917,22.935997328241292,26.089408765213392,15.949610089524578,9.4838602814506,11.181002878572812,7.545583994058346,5.247989769995525,11.739928269067786,11.928000153618166,5.49817268304426,8.338614452127292,12.70440772351963,7.988509941208783,7.071527503741104,11.087812575613997,6.851108423883245,2.5405047370318936,5.724736505508971,2.0740381688097713,-6.305477278269347,-2.054906859949784,7.217054983840119,10.365834516351716,17.192158386866172,24.172218837417955,17.07879484900394,8.238423739674015,10.158695505804106,9.817864479083816,6.12942418951684,11.213995366832439,14.649226037542828,7.501517351823978,5.0332503825676715,8.327613119720082,3.5472692933872114,-0.258025891840754,6.385859492492927,8.87431191696454,4.771650798461641,6.362552816701309,5.57860518032564,-3.83782840766087,-5.589289042490223,-0.36987319092151605,-4.876407084537174,-11.130044132093678,-7.857364838634066,-5.750759489062327,-5.1541979755651415,3.341980474231653,6.63264933090229,-3.7806533136387737,-8.532804797606245,-2.1722254896129085,1.6013230910325604,7.346926341003259,18.75131235077157,19.08525006600818,10.01094427210623,10.396660749105004,15.026297474411113,15.578914543786357,26.06306447513537,46.72143549248138,64.72677163004853,92.34340833854668,139.75387244574767,188.68860349969032,230.65523459064798,267.8897846643135,282.04054062899377,265.13571867345553,241.11087606889225,222.05087184398735,202.2983859294916,190.0598793720951,186.0245422037856,168.7756223393472,136.3376307418108,105.33887122879315,71.79135076962524,30.985571681283055,-0.6960604541558872,-21.561035740835962,-46.0148624873766,-69.17995480518184-86.72531048366767,-114.102149712113,-149.100229001018,-172.97102011215395,-189.68393296828435,-207.59781365535193,-217.82983375661502,-225.30213169343725,-244.1578675107217,-261.88259429263366,-265.21826867720216,-266.67813374840796,-269.45868055323314,-264.3388667685714,-261.0876976631168,-264.95508406883795,-258.82048366013225,-243.30133781705933,-235.4146950218983,-228.7543591329672,-214.65480903120383,-205.83728736595367,-201.46300980872303,-188.3488787781482,-176.6337101605884,-174.90447107360333,-168.3467336445188,-157.39970317087304,-156.376623301094,-154.8090893635349,-141.24423710443995,-127.95404741099823,-115.87990721131838,-94.49382013613086,-75.99941085831844,-71.2222394516388,-65.69045481171003,-56.2271734120159,-54.122506738107866,-49.673725914981134,-34.037501999716234,-22.320305726672473,-16.504026066684386,-4.136232515866519,6.020166291434678,6.817022284751358,13.260433513787245,24.96774096480098,28.342611425815424,32.682051536279204,45.61175682836215,52.486425921487324,53.82795310218596,62.49304742320598,68.4096390921525,64.8511871126712,68.1789632111192,78.04012141060593,80.05537441227148,82.3330872030372,91.25114271557575,92.56347524459287,88.52523167748123,93.91564534703883,99.55993162209494,96.55047488076627,98.37994765652985,104.41949502499155,101.08984449745051,97.7843470568904,102.19739087999582,99.54156181861956,91.98220836507046,96.10372221072025,103.68119314135974,105.13320525659451,110.98266610900649,115.71207703950924,104.78327043588867,93.38554486497392,96.54392175269481,102.11222142316929,107.43046072350046,119.28830711408672,122.64953404736353,109.6853198193143,99.10689257472596,94.609990071428,85.34576591389671,80.99714434277529,88.05343880425782,91.07319542350812,89.5509526543457,94.68016166491762,95.60271963431592,85.3027362732799,79.68225877350025,79.56835783437661,73.08087324628428,69.95104042995641,76.57354379878062,77.15960589986807,71.94193597551725,73.67254662767347,72.37183465316947,61.04607148848972,55.036812518877,54.831332292995924,48.25662972844921,43.61854740822939,46.96920155235282,44.75268539253375,39.08662793658552,43.26044701934876,46.58785325164749,39.23136776710004,33.834653090255976,30.75637884697519,20.244191351423385,14.302773650916983,20.000880075926055,20.67481691959861,16.126745551028925,20.481450376534475,24.28788796536486,18.87072363695091,17.652211586765816,18.873362290654473,10.142413507055764,4.381397150139278,10.649303260029392,12.674252631072449,9.272093439258853,12.180504751631151,11.269737749480143,0.092765392660902,-6.234312686369219,-8.590328830474476,-18.99317393940871,-25.642888673293587,-20.369610082232864,-19.61827680490043,-25.295148629594202,-25.514665429826156,-27.731815847187807,-34.454665576052705,-29.3287564292645,-17.088112276381906,-16.12769256415386,-19.69896878015463,-18.941045856568646,-22.683021759315295,-25.878075392732285,-17.195193703298663,-10.72684880742545,-16.092317879822613,-18.35515800569338,-16.85677634141401,-23.30883700800897,-27.6774768896357,-23.858254775417457,-28.01981131824204,-38.09254379498308,-37.870076959254504,-35.97436685748807,-40.88491319643673,-39.679161108898484,-35.38563223496799,-42.63867897135564,-49.54393597995096,-44.69313771187646,-42.072965464342154,-43.193917400349996,-36.998572972284045,-33.37842103060349,-38.132286539454014,-35.60077260216694,-27.681349594982624,-30.34773344982941,-36.30529075415746,-36.81480176883739,-41.700915900654635,-46.41801114308974,-38.77192628843907,-32.64099748510212,-38.613335337762585,-43.11138417881812,-46.540733865885294,-58.59488891733717,-64.17165133622973,-53.86487787180731,-44.19539759291288,-37.52805142037059,-25.9869093825205,-23.481436947560397,-34.67785648707528,-38.97400284936734,-34.956211672463965,-36.31456848596958,-34.764308498486486,-25.73851345772591,-25.122357359791508,-30.767749532557158,-29.319945754526913,-30.690346227712585,-40.69648545434305,-43.62593723381462,-40.30185611283176,-43.53810065521397,-43.88848059181985,-34.66878438445598,-30.609306019840098,-31.901678776851554,-27.166793933537942,-25.3604974893936,-30.689009518309206,-26.423655350134098,-14.361243058380083,-11.201964549061854,-10.689251154267525,-5.754497208470308,-8.134566303054545,-13.431292136527695,-7.672135187491162,-3.056860082066896,-9.31917310239173,-12.488212681987893,-13.105612270796879,-22.06474562800166,-26.66735626139584,-19.075864682302274,-14.768103962326547,-13.921876692131647,-6.183097225776714,-2.8346672581249193,-10.143790312691474,-14.075326528768809,-15.823040370958166,-24.478214700702708,-27.058856709360168,-17.00816789897663,-10.304416156408465,-8.628130726599515,-2.8623017139691487,-2.020852394612401,-8.516849958731777,-7.337091100404468,-2.907427392434831,-8.18599874640566,-11.397831084741695,-5.248668925584083,-3.034546438545143,-2.34043350120682,6.614856580400275,11.069570153203601,5.8694587046194275,6.719531372768495,10.426397043773406,3.851071653637626,-1.1885006691932145,2.7666281844422276,0.9296789910743148,-4.144977388632422,1.2342863146945335,6.548294753871981,4.537077512978475,8.17854694245144,12.672168208390646,4.1029550854335595,-4.405174804160671,-1.664180233413243,0.6209641824149573,3.1383543426926037,14.05911138652322,19.8150332076654,14.007116152811697,12.151564036997783,13.041596797919711,5.470444627625373,1.1341348863526743,6.411988910467942,6.92305093386226,5.505719120620386,12.997664010348357,16.555656405591648,10.660264328636526,11.208421359452453,16.12340911204184,13.564813607008256,14.339528137192616,23.257006966191277,24.38261900094706,20.359041402353917,24.543991943023045,26.0691035071798,18.45098274346468,16.525770331300173,17.285482399622477,8.002135553725974,1.0824328334057727,4.3790793882909895,4.197570062352828,3.7679059595269058,14.897692005349375,24.154863957795783,22.14531920086346,21.528399662524322,20.77791289259935,10.7984287101485,5.302248511978845,11.291703163943353,13.759070998288966,13.809267395536843,21.53837326530294,24.478276696194733,16.208068355090084,11.27525770382763,8.140163242612955,-2.104800798179692,-5.925789526905865,1.837393150665211,4.7483503514553265,4.103052537014719,10.87052738797412,13.374583551353577,6.131122484808859,5.346770049867226,9.551944846343465,6.093409686945847,4.804157051648991,9.969554694599276,5.875303581223714,-2.3011225134258133,1.8368299809615527,7.876540977438911,7.069567862251285,10.514132528824838,12.695869729678348,1.4836978034951467,-8.870372064866283,-9.11402220741768,-11.768731454110604,-13.415683664642566,-3.22308411460475,5.6650492410225555,5.390735800941544,8.180699163945397,10.330656505814131,1.736912156532449,-3.182209469953627,4.004734027857181,9.142136063736539,12.214884324717849,21.336439090270584,