115.97983160646743,108.4996051171785,108.8813131152496,109.53071772979227,118.06374906103866,133.83360090552424,138.09284974640687,129.14870273946678,119.1181888623797,104.92917041946987,86.12671227671048,75.09824678895836,66.15314794252222,44.74793047220746,17.859986458967292,-8.46680772859761,-40.31305949293363,-66.26386470630004,-72.22491968796379,-71.46368966305585,-74.89039958385932,-75.43203563168979,-78.8583505738095,-91.02173139767608,-93.78252691115756,-82.67404126512064,-76.70011308917296,-73.74245272541464,-60.56169247156132,-45.37101736813109,-30.7576800979151,-9.035427966700109,0.20281209046163062,-20.876217780163792,-47.48224198782132,-59.13221209715115,-66.11856437279425,-67.89716829316829,-62.2575976616686,-70.00664924748864,-87.50339653498382,-81.68691450817097,-56.65547992259626,-40.27272753552475,-30.836026763886743,-27.104292882739585,-40.80754921496331,-51.87141166405648,-36.854333972856566,-15.092036439442541,-1.4122973652647328,16.11256602751426,26.74311842911039,13.921279225253882,-0.09477908818688618,-1.014508179360068,-7.473809866706666,-15.605062797899425,-11.30940453642813,-15.555052363037134,-35.79496752863769,-44.57215289864427,-43.48459318854874,-51.813981545736425,-52.573447870337304,-35.253161306263245,-21.022700688787523,-3.833453674079222,34.25588971390022,67.29420981597531,76.96159805833273,84.7243756805653,87.93003096270161,70.65706685060505,55.787184851346524,53.64182369063835,40.34877529598428,26.05508673089511,34.38913243384931,42.22081676097699,33.501044552073665,30.108974166141977,28.967518612904655,13.991637919513567,6.415075188235884,14.728522143106865,12.009843360888219,2.6968526253354175,8.687480479818259,13.215339067671902,7.762279957693249,16.03427163574532,31.79944016467353,31.919341812190016,27.71907366593263,25.703361700240546,10.650286903216461,-3.077970340024246,5.465721005715433,16.68665348579287,17.646614413117675,25.329931711702624,35.527299126428495,33.68111097887442,34.21143483689143,42.182640420992115,39.09762052027526,32.61946256918523,39.71342073517641,44.99908906873568,40.94744512925275,44.75642688729702,51.8447881178304,48.83105620560826,48.999973180087466,56.01990664232551,51.299415709109724,40.59187482947834,40.256032625687084,37.74962341146612,26.520269519456306,22.09231487176892,18.506332569602932,3.0594116336635997,-5.772772969855291,2.3129632432636136,9.887433988728109,16.472398637007153,28.536438723680195,28.812605277034805,15.654495983146154,11.76793861816488,13.876559925387836,6.406206811535217,-0.5454362981096086,-3.3069045680343763,-14.155374709423683,-20.78610667812586,-9.858141174431418,-2.9017490365096132,-10.641315671957756,-15.30689404361139,-18.5353937595995,-29.31034884385598,-29.575112618675107,-16.455552294118192,-14.475252761992362,-19.97426651483531,-15.094420140664925,-11.815091576954188,-14.210998894672255,-4.309367067889306,7.211298212577775,-0.02772838480850659,-10.728226621599617,-14.40903940438134,-24.329173073626897,-30.629203870969747,-18.376003556057377,-7.512396208809088,-8.066599117653258,-3.705411459701614,-2.5636912535376104,-17.72984050851229,-26.843938480627553,-20.434393265563152,-19.251438383822464,-19.67281841756572,-9.34560922590886,-7.2139966946831,-17.412788651464215,-16.082168379136647,-9.508429097191287,-16.086745527040563,-19.92875165714732,-14.781162492975714,-21.996973354923572,-36.221016021075094,-39.306780491433926,-42.895414553670776,-49.02669611393031,-37.67890977762046,-20.95135157091356,-23.791047049962508,-33.044187415776975,-35.41852228187841,-40.44981559936012,-37.63637164935382,-15.981751032849608,-1.694909933643293,-6.295778302442027,-6.8125383565521105,-4.177838022308071,-11.8210699537562,-13.323879901113893,-4.967424340791648,-9.725749463814529,-22.00215689607749,-25.026201685822805,-32.46535405783787,-44.50281049712616,-37.56688446947369,-21.640851995754687,-20.129772106037418,-22.222959101548426,-22.195816225634758,-33.85516347443184,-43.33729527347636,-33.81667185530221,-25.515982737916886,-26.42859666863011,-17.807254600773035,-7.347329455063521,-10.38624179322434,-10.697668307329332,-4.608923581277484,-11.75187781085016,-21.89452679963896,-15.91945916471892,-8.349443678815542,-6.454042072065498,3.867493240665107,13.158331698764151,7.76210967977142,5.480356550473344,12.243918375297104,7.636944638517216,-4.102278210387658,-5.884824971645446,-6.760935929067687,-8.648238446665818,3.162013539227897,14.947134217280402,6.8863998025722974,-4.993857729102594,-8.577773774153803,-13.934563330591866,-12.87496409808518,3.0836703793897744,11.536433103752536,4.411242257283951,1.1391661304217973,-0.558691648683739,-10.665165833366895,-12.863826512133024,-3.7676277113537764,-3.021216647760582,-5.719292980008273,0.840099860474727,1.470815905937168,-6.534621355600624,-3.202380992760922,4.173295189213193,-0.4605388288272767,-2.859912161820422,2.4539816119751405,-0.03895387225652858,-2.7772386293505607,5.363295680804332,6.375961470395103,-2.226814302387046,1.561361992879723,11.155662366762089,9.658143604842401,9.202273425547185,12.271216480088365,3.3300465985649157,-5.5245844190527915,1.0383568782233739,4.832062919192205,-1.3083870385156806,0.6346374483264772,6.524515707329166,3.8001152983627198,5.3325607134905635,12.527355084013095,6.861273246170385,-2.251159285372514,3.5609566503906205,11.027682234618265,12.860350629737317,21.90939239956116,27.8557144554039,17.763530123044298,11.68004820803192,16.03062790473552,10.378298405062502,0.8864276378740579,2.4243665000982566,0.1248913632653379,-6.393866757753162,4.590774284818276,21.956869218916175,24.465352355924537,24.198174757973796,25.323064449058272,12.416442513922117,-0.5907219021570289,6.48883102265799,16.6344637755809,19.29074956748965,28.266051428838193,34.03920150769536,22.82769650289807,14.181971789586635,15.345352799203084,7.860390764985262,-1.3471040219386898,2.8110437508002772,5.40895514191629,1.2709985868988185,6.758529450378756,12.857326423931884,4.224786382940721,-2.4022102047146405,0.7570663856645958,-1.5867841864157957,-1.1685347111102065,14.144329357104848,23.0623821272187,16.237858993419465,12.275629039571823,9.202999335601247,-0.6371893673719597,1.3563008209641834,14.90069913281071,13.596529636563975,1.899899058803313,-2.2718624929135776,-8.48276873963322,-16.369131853664097,-8.518338736042654,2.8152487242889346,0.42117277324279456,0.014464769413528145,6.828083525008287,3.375805954408284,-3.1745119287701717,1.8140425758348635,5.2873546857730425,4.848902980751934,16.77029986817709,29.208977446562493,24.542041932930154,18.06096201646653,16.7346459741489,6.463080204179275,-3.5664681320249327,-1.3163731394693952,-4.950912858471431,-17.504148187009225,-16.681613033065073,-7.229839462091932,-4.634527314717215,2.3804421799805566,12.397750131844983,4.371111717434257,-10.328406588792117,-10.967059463908921,-11.24487734368174,-17.610747454826775,-13.83118911820292,-7.922712037381174,-13.566561295410937,-13.461050697749805,-3.745097961643817,-6.3141970113488135,-15.788624148093518,-15.647656832861225,-17.70328285394779,-24.118635359175382,-17.619932355475342,-8.201702664695642,-12.611367745804733,-15.697402313049388,-10.464508688500807,-12.820105045183695,-15.660563761819041,-5.247139625975138,2.334711136446226,2.04134567041001,11.137895835363647,20.04700968487115,12.480295240390735,4.878428267171396,4.7218361724194535,-2.6960539820218608,-7.839081280147111,2.0670543011376052,6.687619123996028,-0.49946594405220734,0.8953344810121078,5.329345356732422,-0.42728653500198277,0.7108479350955315,11.328755488008682,10.276326324754514,5.7378598126075335,12.948721553259825,14.434631772085172,4.686648327461354,3.1690841858842753,4.753282188481398,-2.4599584747378302,-1.3067444747521728,10.302228411575063,9.662464322321174,2.8821741864358392,5.319157834912579,2.425007617722018,-8.085484120838043,-7.433891095962506,-3.985793349767715,-10.87635221517667,-11.576260880008245,-3.3061796916893003,-4.689060823350877,-6.88888739287527,4.3048512039995535,11.882699312349523,10.791693464774728,16.87532931234486,20.57384503149879,10.165035326311806,4.779490555091857,9.577982499383857,6.109725011151564,0.25853030207087446,4.016039024073482,1.7963687600986344,-8.172030455073768,-5.825654639403395,0.8926393961808601,-4.313282054856014,-6.838129616833116,-0.9650835447469852,-2.593071836831647,-3.7979262784420285,6.748787939723841,9.116441115612899,-1.5445301685347834,-3.772061477758836,-2.132908061349907,-9.04234946876891,-8.788079069787397,-0.4235168224209529,-3.945531859403887,-9.967705048546241,-4.520839226300985,-5.066041757969743,-13.424118555416456,-8.881976013369666,-1.5328038289870385,-7.720601809548298,-9.925481224621684,-2.8562545113768913,-4.175964631861573,-4.98170406304234,5.720084460409262,6.301344835749641,-6.766732945464556,-9.524540888631364,-5.105076983570902,-5.7915119652621065,1.2407007064922113,12.68654851902635,6.307393792738033,-6.751984741801731,-5.906159107155405,-2.638262763963426,-1.0747865095554365,11.413901718668383,19.816490740583973,8.870022611792454,0.3971981823304196,3.889073874531218,1.7924543677213407,-0.5867211817438354,7.15455314209126,7.036734588291897,-2.910634978444054,-1.426947756243936,4.3163665168328125,-0.008097190479278371,0.5711331337707808,7.751645388287743,3.2906033926131313,-2.838406422606566,3.8065775623692284,7.204561948545662,3.8735511793687243,9.975662821123484,14.701543770841614,4.343204390396252,-2.6120199899831995,-0.5409662778639173,-6.67905552954783,-12.372928148086114,-4.459332871519906,-0.39500001433329623,-4.005340493376252,2.5436657688064677,9.880664352861427,3.201928699512459,-2.161921579406238,-1.8723453541421107,-10.419861289432667,-15.788817474703897,-3.912731634235005,6.303913009409577,6.693669453070722,10.08688672060105,8.541731131918281,-4.720741926979942,-9.386633926044961,-3.805974171063813,-8.502471815243062,-16.0910190029832,-12.333169762607131,-10.426143276411157,-11.872461214208348,-2.216769867856706,5.62871506518088,-1.078987395609631,-3.2652289771772285,2.5539318557700432,-2.4102259389823892,-9.577600789150761,-4.629607637833921,-2.1349019798188396,-4.321813669298895,4.766338169967419,12.85528411668757,5.486381055537494,1.0953839323628265,3.5965381902482374,-5.483568299460645,-15.278420634910844,-10.003397915211234,-6.90828672879124,-11.08594823074031,-7.426834414798361,-7.0406543518024325,-18.9883705601534,-18.235857860459042,-0.37568536988271806,9.187218587614913,12.417705002958416,19.980910914732362,16.100779867551434,3.2036066190158334,4.717049527952595,11.539442804245628,8.052025352256216,9.404645895205537,16.551836318746133,10.624995891620234,2.472679015290602,7.595823274888685,9.46947465063742,2.861754570948227,3.247468099751003,2.255537587595632,-9.395871743520802,-11.398308524988863,-0.9733200125432209,0.7474120511128386,-0.4988638421980841,6.001758468970078,3.4761130063289776,-7.2019930669487096,-4.852006994025187,0.6993613513407115,-4.649131547048522,-3.657817132230713,6.055634966617969,5.840874374006418,3.8530675819629736,10.437599802928657,7.500043754583098,-3.8440649371453426,0.6501279365409873,15.143233969200994,26.043884723730343,47.90216610917447,78.98246932508852,96.49352637405025,110.52267657447659,137.54605329645347,161.23491464366032,180.26190429505704,211.1519900926855,235.35456927599787,233.50577769070853,224.85454289180475,214.5744117549304,186.00738025818328,152.1224095260334,128.32739048394447,98.38035673486928,60.19285181420025,29.624476394709102,-4.3497943260169185,-51.38802227183005,-87.93933010801152,-105.60310046187922,-123.17059361345714,-139.7451321180674,-148.85554616564752,-165.57380488400892,-187.46151072896086,-193.75200008657146,-193.7311446809929,-202.7228898855104,-206.4765265807411,-202.54385576920674,-207.4937775190729,-212.33491776304047,-205.33490188318572,-201.57097817526267,-200.70930548694687,-186.716590618716,-173.13182494081053,-173.53294102088427,-169.73266093120577,-157.5294960391795,-152.12761418941759,-143.96991584019227,-124.41058626859552,-114.29024317511806,-115.9008337051179,-108.65331536616819,-98.94577291750579,-97.3331426731149,-87.36523276904782,-69.94076882781766,-65.8820208995473,-66.30059562066607,-57.06769748347678,-52.685988515891424,-53.35817071711187,-41.09911685439665,-27.04662400768987,-24.630325345776438,-16.60434402427753,-1.65596344095949,1.3252570530682892,1.451129496111972,10.339793443182376,12.197340854427532,10.084880770723082,25.369033607925935,44.93533583028673,49.495778149552535,52.13643808139029,54.76650982897224,42.96915100470017,31.626481642203267,35.95812060058941,38.51861753121644,36.31307681131598,46.18045984806613,56.90630343841411,55.00214584002019,57.55786047659357,66.56331746182465,63.97672862338854,59.74873739171329,66.8733021913656,69.20541567976188,66.58555335398644,76.42706968125425,84.68494170951593,77.63999516137015,76.40681612810329,84.38565429238626,81.14790078437409,74.9342089701555,77.51547764037166,71.90648243397345,60.366330586566036,64.783441564621,72.33734254403277,64.96360112868871,59.841075024076346,63.2334971267598,59.829410120478684,57.77942989115124,64.67314576426266,60.4420186704306,47.62768946621044,52.35707898257234,68.713005890244,79.68421719323185,91.31029559937663,96.88200957199561,80.20052512217197,60.66317212160905,59.38929913402338,60.69105505231274,58.3278539095225,64.69676599977727,66.68236012252433,52.91236889038249,44.99535527559528,48.267319160701334,44.013917672548885,39.38142354520812,45.931247588234044,46.13496826668525,37.56125075435421,39.43184373786891,44.2204397265826,40.279045214642466,43.69532063868013,54.050894715516584,49.98734233829623,38.32696459943657,33.33365956811107,24.629942753370983,15.394005434122917,22.23216868440712,29.93982928612956,21.782816632201552,14.377105452036691,12.467028113978579,3.4697828446729333,0.6270931543770235,13.103129873852993,18.393869733706783,13.674870343060121,17.49825298852177,20.53972978370355,13.302170562915698,14.634935901257862,23.375278318185806,18.997704623054176,12.083868400995247,15.81240870519168,13.005406371284959,2.534464924217489,2.7850738330049274,3.349021031432069,-8.318320752990857,-13.753585441344145,-9.94865792800858,-14.770005384542403,-18.895357712096494,-11.106359716794142,-9.970321441258516,-17.483288907871515,-14.799002108910347,-10.381913380728836,-14.779502669483378,-10.707990465241018,1.1266754494154942,0.9136468694735511,-3.141592462284414,-0.888648134286397,-7.865079731439451,-20.512014312990487,-18.20916678630401,-12.235677243882389,-17.41095735389088,-19.033081050259348,-16.986071951459152,-27.70587923954693,-38.40891662843553,-36.349694263746066,-38.654151297896775,-44.386728138503074,-34.84435962689602,-23.23122889966156,-24.859086386765096,-24.08300301666823,-19.61520187490411,-26.49922388638587,-31.908491187239036,-25.1188670502398,-25.578011584638094,-33.70347644124372,-29.208948922069325,-20.848516134555517,-21.708086089069422,-18.69821239086886,-15.596120496305659,-31.25507879902683,-50.05742816805752,-52.130277298972864,-49.76099538029283,-44.53267466769121,-25.442688983522796,-11.005657814917953,-15.61893481123707,-19.703160571780593,-18.28265238833679,-25.350032181820296,-29.767623582192204,-20.8312702850031,-16.511529987501916,-19.23665346304814,-13.435600236637779,-10.60081889214153,-22.057914035177983,-28.29418156222627,-25.93474090452777,-32.324694004727505,-38.227068030935826,-33.22783844216316,-35.11637144149756,-44.12173994321727,-41.239527503086435,-34.79344507908526,-35.17356379496466,-27.17518323738676,-13.675356913416405,-14.83638311677467,-20.80026870964508,-17.88982553409545,-19.776338574887717,-25.15214439852366,-17.39810006074152,-9.21117318836674,-12.78102702306612,-11.135069212278491,-4.720175140577277,-11.048943201963713,-18.779394102850432,-16.24004937194774,-19.638521401814216,-28.14507092793678,-24.63087896529352,-20.24045804997443,-25.558341874805603,-23.208858177386556,-13.168701336929283,-12.714620452074069,-12.148248773389465,-2.534969632398963,-1.5075443025773037,-7.8657912110588555,-4.0981514224275895,-1.2448995613722182,-9.080651900086867,-9.781473119107646,-4.012472977242167,-8.958974383915615,-13.337228067234014,-6.987790122004097,-7.830062882636332,-15.359999718344541,-12.096809670025417,-9.960857412382538,-19.627623772647336,-21.181834549617896,-13.58434869990379,-15.519919678843987,-16.407633600928957,-5.903163364528883,-3.256791616517066,-8.023086349011871,-0.6887521421143625,7.72378253493382,4.79271627913991,6.894617912280099,12.736930767212481,4.221903564688889,-5.330400307927075,-0.9768383403972503,0.6965363508834462,-3.1673431617462597,2.299261248048796,5.002481153587027,-5.842231121100667,-10.075568019838459,-5.396704308973293,-10.04183347268938,-14.145427854522978,-7.182011043087885,-6.593486358129565,-10.39105260995293,0.6681679060012993,14.09271299736588,15.21557094204324,18.574307507431108,24.539829295418098,19.03237382470779,15.987094203439726,25.536920852395223,26.017430843347015,14.918670455368908,12.00621142795248,10.964995774506955,3.8892422286931345,7.361291642587474,17.003507545271606,11.49355915806981,1.8876104987454643,1.613414161047503,-4.312043418520842,-13.94859044883169,-9.673743152978572,-3.5113847709401753,-6.581255524349453,-1.612056447885056,9.90269431386627,9.52853780863828,8.73631945204204,19.10444538428043,23.307823645134036,20.882852229785275,27.55767300703703,31.086836038333765,22.682857629357567,22.838845001294587,30.515573870027964,24.883459559528248,14.879444393652932,11.528251827511419,1.3709972023605035,-9.680651299944614,-3.030187205246056,7.5911861732498895,8.695645481778744,14.312589034814733,21.10926446587529,11.40734873182323,-1.3290932528407717,-2.664199891413837,-6.694369371124061,-10.867860425583807,1.3147248512516345,14.37003374528797,14.376711834244395,17.51289591764284,22.558838848911517,14.163998196431214,7.2163459325119685,13.915999394910846,16.38488517046974,13.82746651270243,22.11808444526664,29.782401531882016,26.5567295503124,28.422641010739692,32.50911703892914,22.530025417402367,14.318498909993853,20.62397501703031,21.194904781065276,12.658890799286567,10.416087960720088,5.441986746508763,-5.753331672884724,-0.5004497268525352,16.062952735174186,16.676424486271515,9.188685637714674,9.389341684109075,6.418478870565436,3.588742474049019,14.760453770294953,21.012489102185395,9.077870881715153,2.53284565532075,7.44683404203992,7.082141037398298,8.79883810336908,18.100727377131058,15.47808293766144,4.26233051710783,5.572519674228053,10.188937572509413,7.664148651673896,12.629247625696028,19.570442899314067,8.111173000602275,-8.168640222061493,-11.938694239043592,-15.542585742017884,-19.69046947700543,-11.426373012825445,-4.573556727077529,-9.805141266843963,-7.183600465701758,4.9098918075704026,6.1777370398060585,3.0235471573767656,5.672226570766642,0.06962512282935052,-9.83221715332002,-5.327335713424571,1.2376172135200276,-3.017856980463654,-2.5384851590384248,2.3020218551219127,-3.233164876854702,-6.935246652773362,-1.5880961414404378,-7.408220714787954,-22.407544639184298,-26.36479102445906,-27.357926161299297,-33.61934950120892,-30.00197819128573,-21.86327407248322,-27.511307112932254,-33.5398000191194,-27.82486049743956,-26.179364766369993,-27.26362501866695,-16.509332854658393,-8.20948844509812,-12.429360290746573,-10.15465515826089,-1.5109508293124865,-3.3423125129354845,-5.212675559983014,0.8771492985357416,-1.7305164775847888,-7.795734805159961,1.8851475761015548,13.715177710680619,14.218248297533655,18.013389515044476,22.766821086631683,13.003427901206368,3.7887153242066733,7.913994631089929,8.372000361203863,4.658172915930312,10.411458896464245,10.279832534481642,-5.1186131943138475,-11.987563541712134,-6.289340089307061,-5.032112813155524,0.11723872033895755,13.468547930024052,13.089064506051693,2.410146978252793,4.447795468144237,10.390827625274017,9.278300999662664,15.47661553438349,23.330903330530937,14.107306543640338,3.3777407597182587,6.420145710721066,7.150008172210352,4.277010243334699,11.177484039648728,14.118801651445551,3.6513610556304545,-1.835285506194412,-2.9162682815914183,-13.15959043083745,-16.34296096146291,-2.515180894770283,6.462520670568212,5.864960065945061,7.469617729831194,1.162835119713459,-14.476291175658353,-16.167232381250948,-6.524459684945848,-6.2435661979831165,-5.559073157461373,4.686543942081212,6.4731315946211945,1.7565557369909004,8.053727012578953,12.468545536256386,5.370158305253617,6.471737499751407,14.137883966353032,9.60994431587421,4.006023784632765,5.708125253713841,-2.5092710518912096,-14.13547125732184,-8.325020354949611,1.0026918061782562,-1.2594435772401353,-2.322978523709314,-4.150973739815432,-17.556525356773207,-23.12511816949104,-10.466980122283179,-2.9002626360855017,-4.296617670439572,-0.07455935306421368,-0.7899962831375767,-10.701410764282397,-8.038234149291982,4.0302854245854975,4.9207190329447705,3.8422301344097516,8.293293942725585,1.8194726541831305,-8.849020769895144,-3.9217137454381836,2.460538056818201,-1.987284414035543,-1.5062567500216124,-0.20210276014587203,-14.445660968827523,-27.764048202252763,-26.79579389239464,-27.10369769745293,-26.296855893369365,-10.954730285727495,0.9215739122146265,-2.743130625615018,-2.0586405462182493,5.199679518194846,4.707172483039276,6.905947783310138,16.208206398890407,12.615511999906772,1.2348672722846885,3.1740721725850225,8.01000338137728,4.661004855986735,6.7630379711654625,10.769316373280315,2.3081558362284853,-3.420394564449907,4.297099619566111,6.383653715507936,1.3958246777916992,3.9465499832424764,1.3681194257805884,-14.847911142686364,-23.28402194051606,-21.110039446801178,-23.55645854089699,-21.36089565030833,-10.720196821560613,-12.731728173945797,-23.10177453502167,-19.14873977501872,-9.079934340068023,-4.65816633643076,4.1093692682643574,10.26103915452343,0.2851723028757176,-6.325789934533888,3.525141309049798,10.452683171787076,11.206707903275642,17.332482562581646,17.179523847337116,7.904803453202781,10.66391259717125,19.44595100898844,12.105092417639376,-0.2928737768740537,-6.387245196241101,-19.434477675502297,-32.18238158063653,-28.273038771625362,-24.748023337628716,-30.655279642718625,-24.341108347313487,-7.654308970276159,-0.4310623911388285,5.379875191832208,14.853477380655246,10.317452381776501,-1.751277074672044,-0.7667223280600082,3.159416660034138,2.1323305742454677,11.789254955952822,24.43240564142208,19.293950066425815,9.298074777030218,7.683797745636796,1.8333648267350686,-3.3347238818592233,6.3259508322680835,12.985767720328969,5.582548637503642,4.453769772919463,9.435212418710519,4.528993907470694,2.9955900808906577,11.804668327307768,9.308640210575692,-1.1412672550473704,1.2618593700387115,5.360548987680117,1.452719249479387,4.94929372539615,9.353015337087648,-2.0588219492851847,-11.438022299581316,-5.505497737149686,-1.8207616023832414,-1.0597050338370426,8.92394112939838,13.862514369620863,6.32238308074348,5.174399251019712,8.092382422247223,-0.31554686475005944,-5.656483813958055,1.300999754624717,1.8427374746720113,-2.9571414146383472,1.6064901666023959,2.913040803753331,-5.122877217538471,-2.8312347397131408,5.5452533579668835,0.4321721871422386,-6.448333408533193,-4.282435822354861,-7.494762786638379,-11.512019430437128,-0.9063739785486709,8.470841578336504,4.897354462078372,5.2304755619216845,8.049474582965955,-0.5266815939456384,-5.343847593189288,2.244161358214822,2.4008766458379167,-3.1397239235610606,1.8443757104575216,3.6442555509195094,-6.210823136588919,-8.246025648987464,-3.9970141332688884,-8.566258363251553,-8.178485281224011,3.867415678727143,6.147294287530337,-0.3495148037347331,1.6898395158602837,2.304000215472582,-4.225195241376301,-0.06592318990777546,9.152358695309085,4.761316464529864,-0.6881245541161638,2.1375949163608325,-2.398123604773795,-9.378644723737441,-3.2585459457739767,1.6419104767775858,-3.123969468918613,0.06961470942348313,6.972568647764429,0.20021254501890295,-6.538568135411515,-2.9196607567197033,-5.255771274536503,-9.38942213830534,-0.2804749319734441,5.192038053120248,-1.840881949050142,0.031594418169544,8.615252829143438,6.1310056646158175,5.041398696198936,11.770669595348469,6.507013705883955,-5.675282119610948,-4.919458412150613,-2.304245555997503,-5.493652802113452,3.058962381078386,17.090528090755697,15.28555993339106,9.347128271178178,10.688892751810618,4.481640928455346,-4.449665690017477,0.5108977662697245,5.4364270240567905,1.874056212849124,7.6207648297058865,17.18065881908867,11.409396791061754,3.087566792312092,3.144257559055281,-2.4506901330760895,-8.457266822249615,-0.08962863116837205,6.16985703054551,-0.6921659505266113,-3.060236652457129,-1.7205239011458617,-9.682605677688345,-11.5146092500461,0.4914531978391574,3.974280785789418,-1.853917599510861,0.2639875947302994,1.4535586778920209,-2.828676372402081,4.727944221468219,14.717459392071408,6.21998154017078,-4.30503466376957,-1.6313093522587472,-0.050516184974771616,1.494205501694541,12.964928727765297,16.622231024187737,5.3844579953709895,1.645117656067663,5.8110397255595965,2.001838994817417,0.7428189310838875,7.598209892348351,4.079498927982683,-5.179818991715521,-2.589374927103724,-1.6350543198342915,-11.687785013711887,-15.126551379054678,-13.72656525169228,-20.430145886967086,-19.42770230811316,-4.561799786958203,0.12252696986640954,-5.635043878398951,-3.3718890750299555,-2.6519894825597374,-9.418838463506534,-4.321246305723702,7.803215416289998,6.942229976943635,5.15328733009905,11.462271710070308,7.4709944573425595,-2.6465970355180297,0.9089997914162118,5.545418120052648,-0.26938314820238807,0.3025313590014538,4.866795079300711,-3.0181191562745124,-8.955752559572575,-3.8023205217653384,-7.602854759578962,-16.957248443863676,-12.68070060776014,-7.99020206343865,-13.006830955133257,-10.372941005231883,-3.8369483155444333,-9.680739348803883,-13.194856466177214,-5.498943625082326,-6.2021716122394945,-12.553308490009456,-6.445881093751806,-0.9066060255243003,-5.380914943669824,-1.6031798196291946,6.903285995192145,2.317528642789134,-2.616794051860632,1.3328410386049647,-2.019440806955135,-7.443389194924308,2.3241004487460986,12.367275359032082,10.585774013314277,12.42467512929214,14.500414587436069,3.045845162462293,-4.4474613825451135,1.3594997367514106,0.6037898120843566,-4.154552218908725,2.7967389485421066,7.699275635223571,3.3575259855450987,7.6169498054266365,14.259891409585745,5.429388626827528,-2.780296617978322,1.8252521577515215,2.264913656833844,0.11801079082290555,7.999084124316665,8.725396643827313,-5.4049149567185175,-10.733483960154597,-5.556705211861832,-5.8778514296132895,-1.9073193984066743,9.735679286491822,7.759104866479321,-3.060177393086087,-1.6750319727797747,1.4050409820528318,-3.130660942594833,0.22368545592066846,6.475789107592005,-0.16017339418887921,-3.8027776988639928,4.986293854099902,5.926824666181985,0.8587209300736469,8.466249902032299,19.488467746040428,29.62945971840655,57.59810533953854,94.97621069357471,120.22206020338601,144.3086862129884,171.83059382052923,180.91873432998972,175.06973659782645,173.74966025649263,168.2993429744819,154.23742728446507,147.52162718095215,138.92161251237962,111.02586285786448,82.3927097374663,65.73265578868978,41.75200967711527,9.642522101486266,-14.645661757783671,-38.54925909843296,-64.4015842190045,-75.82781643214727,-83.19320920671514,-106.06716835094932,-127.46164559923288,-133.6279690469304,-141.8075693455264,-154.62200991501132,-161.25123008930512,-171.04911562758053,-183.0772381728308,-176.18740114429056,-159.2092217211343,-156.95397188992365,-160.48384552770872,-158.1543074459646,-161.1962713180246,-163.57384383940797,-151.1178995211817,-139.28201746599652,-137.05635724596726,-126.67343946031359,-110.74128893277972,-105.53186772143981,-100.47977801754232,-90.11726805473876,-91.35499052595043,-96.60522577147985,-86.04681174589311,-71.79642156279213,-63.21120909076331,-47.03938253539951,-32.620181499489355,-36.955427975062214,-42.040022703312616,-35.32056340063172,-33.22722994173378,-32.33798900775426,-17.490430659952114,-4.685892446029716,-4.95261109192702,-0.7992578903489678,6.152458662325093,1.804684142958591,1.6336930036078143,14.888650854009482,21.32500529568115,20.272063729966053,26.139769233046046,27.71294218986483,20.471441918754522,24.17280987340233,34.90019969358109,35.208900056035844,37.633234446784655,49.33082510483558,51.183388761355815,46.85883174756468,52.8564828293571,55.61787453632905,48.41967719326901,50.56295098382874,57.93320126268752,54.53691702717242,55.402724262944105,68.35776229542189,72.82843076764766,69.4325926339886,72.29767933610957,69.04341705114581,56.683878106193276,58.165033193265096,69.96888533607688,71.78957384189853,72.22895845509046,75.90273373414367,65.62313595348897,50.885583710539635,53.479143031458165,59.6904101217957,56.63348453998347,58.07901851269571,60.22457266659632,50.552386303627,46.79629767335447,57.51190640991872,60.19624598495835,53.89289845781895,55.27192818775798,54.69389589324848,46.853512093252746,49.94178578321654,59.12844747034562,56.42473520506123,53.222839318797114,56.32751496513661,48.349725756295236,35.62226453493679,37.69522217065944,42.2268706041511,39.1821005906966,42.91133621983553,47.14133329482437,36.809565299737464,28.63338153913736,32.09525716980389,29.96357390690068,27.003245200927537,37.868673952015925,44.843989739780035,36.664896408797816,31.9027838868698,30.93226733201468,21.688466397013897,18.344003841727513,25.227111424486207,20.48542303304309,9.962018615017143,15.599479938849512,23.849260177875653,20.904828762702742,21.625053772059918,23.55733932406499,13.498768638998541,8.170661407862628,14.850308873209105,10.179622987384374,-4.7360327300890415,-9.717905135534028,-12.48914784348811,-18.606577197895685,-11.80411145222206,0.6355497288859073,-1.4212390611748082,-8.229734088383339,-11.396573021480116,-22.025476864380778,-30.147457901182612,-21.305278463143797,-14.524557371260645,-20.515820996498096,-21.42095345990962,-18.613885371099034,-23.35859454241802,-20.657215511222333,-8.516511037756237,-11.105925416881638,-23.424225728852402,-24.275420509609983,-24.528816703393233,-30.912350644988972,-24.42040853413423,-11.435851818856275,-13.667862746351693,-19.420730593542693,-18.296053835200524,-26.451798290442344,-38.28202250037479,-34.11391427899777,-26.63645088088024,-27.29187364229033,-21.461397109239726,-14.106026171176168,-21.32343332742045,-27.974539155401047,-23.604429750280076,-24.745480280940154,-28.114830640925945,-19.852452959615903,-16.05246008562697,-24.164890099113077,-22.406564658540155,-12.160625842300071,-11.385117183057268,-10.874795040913664,-7.043972365603045,-18.394775638444884,-35.114325626099415,-33.617447961438096,-26.681245532543244,-28.008535908587177,-25.47781397630166,-23.80536466548014,-34.66989105452276,-38.827330612072764,-26.6414686920091,-19.982294499053168,-20.95745403673385,-16.02172592269605,-16.675876363118277,-26.90404746367403,-25.73214322656029,-16.572298954523745,-17.919228623111415,-18.382581283138904,-9.948274934829382,-10.470511791555978,-16.491965856953534,-10.163103807188572,-3.6686587237417845,-7.192404702356273,-4.823911302003996,-0.09703370159038038,-9.118345436217908,-17.49905234140656,-15.530783159464843,-21.66490512461928,-33.56864423362929,-33.74186907660093,-32.07588448977815,-34.022874416078345,-22.915724663400802,-7.55573073161315,-8.585066567368974,-12.232214496154253,-7.283793699872366,-8.873225069880336,-12.393365459589518,-3.9126065368865937,0.17043370060661306,-7.79466823888448,-7.516355476887837,-1.3386289749574174,-5.7241672285779766,-8.591750582125186,-3.0301400395194307,-6.837925873975549,-15.20234896794645,-11.318877003022383,-9.803456971854665,-19.485570870249298,-20.55836458010001,-14.779514495184461,-18.650602577858024,-18.42544997939761,-5.71631295351254,-1.691609911728095,-5.165671681076559,1.2583524687173049,3.8543122754338315,-5.820473047147855,-6.706428641058443,-0.5368752600364339,-4.2100175322366455,-4.05538443729193,7.62495577074584,9.33312021781653,0.6509368492924446,-1.5655426041801896,-4.94297356026377,-11.966632627813816,-3.6655588777239583,11.73034774000746,10.136557858815031,0.7170456879035587,-3.777989692671569,-12.076316497561093,-16.497859698435917,-3.3183428820746457,9.440062636004916,8.620013163548474,9.787208148505675,11.869242135029818,3.0027669035527147,-0.366528778001865,9.37283142024453,10.790198767398056,4.9242137485753075,7.980399044970069,8.659219173581636,2.439538358432994,8.695361619933887,20.406956840146456,17.166429241225565,12.220649385906892,15.767773158559143,11.212703485064297,3.140693109246165,8.528264558235756,13.044179283467553,6.812283763950607,7.388957389492654,11.52403279841415,3.85871390382594,0.4498955150750525,10.49875558821201,13.065434007708589,7.985210744205997,10.242359628938521,9.46578144404773,2.9897420638616046,10.141459979411726,23.203808454882992,21.764254978395513,17.794514076864978,20.26640494952456,14.660653243638304,6.9945941364960476,11.42291608585145,12.587548319057799,3.5187212636089984,2.1289543436992764,3.652497495458559,-5.524486883530548,-7.350847659660754,6.476207611190243,13.683630720722444,12.60367818111844,15.487976863233161,10.538465266611382,-2.7190607647263043,-1.2416663162788688,8.837133983529709,5.827896265655993,0.709581393748155,3.596340742118035,0.18216918040162744,-4.941446257549286,1.8148946590379453,4.584969747420317,-3.7150761075721883,-2.5105515366937423,5.863715525489891,4.4130887432015005,3.7388177891561467,9.350693726913086,4.580840387902489,-3.534833295363774,1.765614005326824,5.314014027233719,-0.9605607451093525,2.08467775632856,11.012530879764926,8.874191061117548,6.926092006704762,10.437369217806307,2.1118726690917935,-9.546786675938593,-4.581532984892245,2.318684625260124,-0.6009391499990735,2.2792985951271816,6.979451550480126,-1.3288697127515388,-6.836034146467927,-0.8746079016979889,-2.7371895305698084,-8.538704398368111,-1.211441866098974,4.337364922768505,-0.6253543895077525,3.0052133719537926,10.616868571919346,4.733380572592509,0.18413059411178323,5.827490328697708,3.328790729965058,-3.1572464898200696,3.149960733442157,9.109561669713024,6.829792720900858,13.259915067648347,22.06803686453224,13.865727614176226,1.6703860106923267,-2.5374090785502217,-11.301665094269767,-17.890521064874868,-7.271226907287463,2.86193501272574,1.2633197910205358,5.769881655955487,13.458476498919357,8.368276165807014,4.641908898002099,10.36257978418584,6.0780625466730385,-4.658567871949581,-3.0925159699367826,-0.6985659732976539,-5.17347809034843,1.3573037567223682,13.13014620654593,10.586364016445152,6.876999716223281,12.249455828468669,9.775164601467115,2.7540820053686272,6.9628936691128995,8.749868994497836,0.6539721038608892,1.4673143606220527,6.180473982347966,-3.59422744018125,-12.260437441935093,-6.901302975773788,-4.761067380946639,-5.651244355212584,3.329869110816795,7.074536375803403,-1.2650663634731494,-0.10783709373386463,7.814102079687925,2.2667927556986505,-6.150157934310309,-5.37767395903768,-6.699023424320205,-5.4933387628162285,8.828013085376124,16.461583774474157,7.000614511047037,1.2350606982922614,1.5566044604124216,-4.053196648438286,-3.9718229764758792,4.787799423504451,1.99223518025964,-7.783917333661305,-7.377567499726769,-9.167721601755053,-18.825944592663085,-16.913501363499297,-8.373406078687655,-11.292409572369927,-12.427747760337612,-3.196302264817207,-1.1810121686091368,-2.596869648508091,6.90483890736665,10.320613373580045,-0.9674053754805518,-4.710150048928383,-0.26824541760484744,-3.795245398394228,-4.638337625234768,2.0357314487792433,-3.484076947338906,-15.36435228728683,-12.52514779946165,-5.648717115731646,-4.311870254264272,5.169575974741531,15.315785049956338,8.543111185961127,-0.714236017419998,-0.7960766586655332,-5.185412698985458,-9.124938117636736,0.9895468188580088,8.4344007966552,3.156268645057367,3.1299645580609634,6.4070383047207775,-1.808511186205528,-8.17858247407657,-4.88380310459662,-9.375112776017744,-17.546165137922365,-13.102032722628856,-9.679688540960733,-15.233098070442407,-10.949147068151074,-0.49002970826522096,-2.3024835410511963,-4.265424811238467,4.027115562672142,7.310760456594417,8.40594577453344,20.071518495825448,25.539347613392184,16.306418322773034,14.05202442283021,19.058653403084097,14.271555991587043,9.21286431885964,9.93139200654942,0.31338940698705997,-11.975717793883565,-8.48350773345233,-4.132990167942395,-9.559389075649637,-8.206366253855574,-3.61246812442151,-9.884178501116477,-11.654458862992913,-2.5437008487603676,-3.232388068731587,-9.943575009034712,-5.037174890528307,-0.20508582925223717,-2.054658514316027,5.456866490993621,15.458208322977754,11.76449982951602,8.90283071175832,13.798501628953407,7.773671884295403,-4.633751138188668,-6.264756601491772,-8.177606222019431,-15.593549282252358,-11.537736163442815,-3.3903079676024905,-8.439169037323438,-11.277915247200358,-3.365304569888867,-3.937079266044944,-9.977497804905994,-5.203528054070155,-1.7063144774553298,-5.677533011867145,0.6722691285847793,12.028099943599308,10.001167879333353,5.812293807460871,7.03245663958986,-3.144555982027983,-19.56260720368658,-23.505140042614542,-24.44805980307107,-27.247009813986157,-15.20755121340874,2.583765054599132,5.353175250450026,5.171788458061245,11.34669916522548,9.5396538328485,5.55137315858044,12.788195269970998,13.664724801463636,0.5225554706960436,-3.857191041956427,0.5464845871491972,-2.529629174131512,-2.2241847012570584,5.5802227909451325,1.7098322195340194,-6.784939701053225,-1.602625533628013,1.6386568027559814,-6.441567720008381,-6.145400174393103,-0.06435926680243709,-4.980077979760797,-7.4523824979539715,0.3079670544478983,-0.08431854311013542,-3.008147322252106,8.654878882624935,17.431077465202584,12.293040313470517,13.495508991211896,20.17668580212697,16.34570766283155,13.875739241189114,18.232122259562715,10.537566941471647,-3.026557529480305,-3.2899480552296585,-2.7158101362854836,-9.00013851495694,-3.9536628747133613,7.305502167319629,4.830376094862174,-1.4751484022208095,-3.1386339253979996,-13.138438794412195,-22.493356402389452,-14.297694031597688,-6.824522950764665,-13.518983600753346,-15.772679189444354,-10.993243278890716,-11.035817536318211,-4.621278008037352,10.241019456933397,11.110171515113183,2.3458807072170718,5.529933865205555,11.54147178051203,10.836316528889828,16.847151665481757,23.86767817792355,17.022558091406623,11.472616892000053,15.419263374939163,10.078809415964848,-1.442556662702159,-2.635213098023275,-6.352331493093019,-19.308064767470633,-21.060611205174645,-13.356949127497533,-12.225401424007066,-7.1081851689561955,4.318856874711457,1.2815636691940004,-9.0449667921984,-4.6968916057844075,3.182397242095697,3.271577109374668,8.135493260094236,13.222617464076281,6.7455319052277165,5.195648299784078,14.616081911440785,13.009386033290479,2.228836210242257,1.2483429358957474,1.508635244723729,-3.5998838272236657,0.5376751844408267,6.1105343889005095,-4.1488689422097575,-13.867035209008176,-11.115237393083824,-12.77493286949085,-16.73391940152909,-8.86699141138207,-3.6714546875345153,-8.692623977230838,-5.3825734378824865,2.853985781782417,0.2846455568772872,-0.33298287933475207,7.5041788413961354,6.542191073700062,2.3068406586859966,10.45367889242505,16.006957611396917,9.988755051946482,8.982857801489272,10.10587600173889,0.9173834689732336,-3.477016156487434,2.491099970387485,-1.7503508518824495,-12.312977067704669,-10.735331567895283,-6.834933197720078,-6.4932308592254255,3.6748670880816263,12.48312226613505,2.371331973880516,-9.309514809513534,-10.841300289088757,-15.998877834268004,-18.57125731348175,-6.566920174798069,1.596868653615615,-1.4593478387747894,2.8785952945707356,9.021962286215912,0.9161876495645358,-5.910615467992699,-2.338979185676092,-5.243325609129676,-9.666334936598489,-0.29967379556669727,6.701324780232163,1.780455415278664,3.650814394515777,9.63085309133351,3.5719957817617547,-0.7263453346991631,4.978227541945659,2.2894122098317853,-5.454073534354405,-3.4694401550741873,-5.951649272697829,-17.23118669007873,-15.475196801350329,-4.471177606030503,-1.7088071155982556,3.5077468469781525,14.057987916387221,9.796551295727415,-2.66659014895703,-3.9651663064044347,-5.231792949696411,-11.121144406190217,-2.9910176216494095,11.372191862471455,10.997740042113684,6.574761920523461,6.272618979483867,-3.1448036560262853,-11.94500294659903,-3.171510277220393,5.582563564545179,2.3074293050787222,3.5035764525214876,7.607562311378338,2.1042087391133086,0.4161530634066474,6.0401652553977705,-2.211853484539087,-17.95078763312005,-18.250939918049763,-11.976540779407143,-8.700756515290754,4.239119296464233,18.661385552930863,16.027035801677695,9.963507446831777,11.158702119673299,4.954264520254226,-3.2498480893258166,2.524704347133843,8.136188287548599,4.089410747351903,5.4854680445580914,8.228785817390348,-0.6953210839360615,-6.83038164774377,-3.8234311896859428,-8.2809468467346,-13.768872509082744,-4.491728543169672,4.510541338271436,4.020630552008611,8.63558227755399,11.281394195691991,-1.7420296428283297,-10.67514423553823,-4.000488322186644,-0.08664466162443196,0.8994122793734759,8.781989480661258,7.479219569832628,-5.625410876422668,-5.355477955707844,5.515758219028734,6.377160479012177,6.367873259729054,11.25060375203012,3.8437613191428697,-8.689790511559584,-8.068234464953555,-7.852415904935165,-14.785447407456687,-9.321477506895167,3.635508196692502,5.677491098441376,9.623245971016768,25.025720842092305,36.98728220814632,50.85412140351869,81.40465221342934,111.99997254549062,131.467921065111,155.8917520783275,180.53705516087055,187.18205175236488,186.02816535973642,181.90773279737306,156.4854244921246,118.71151344968786,92.50455209606852,69.21524319847626,42.070892771522495,25.949165494923143,11.974605104210722,-16.420763382866138,-42.286018390402944,-56.001076558562055,-74.47735098551631,-92.46076845501338,-95.42021181879537,-100.02735717592861,-113.91345211593037,-118.28525614111183,-119.26894732473274,-132.72888603139546,-141.7519281512319,-139.22004878122152,-144.26730204332927,-150.33611993218844,-141.73709725711535,-135.94263839269277,-140.52823668933172,-133.94183910435297,-119.12307531454736,-113.87403423142874,-107.58091917013276,-96.4734064442916,-98.33901555353631,-102.30447473332957,-86.90734207979796,-68.61924062002886,-62.954913574502726,-57.972175009843085,-56.07971705438101,-64.08911966382729,-61.11069545182674,-42.326027010541594,-34.41190932251805,-37.85864584112196,-34.30094943564642,-32.020507993867604,-34.05902320648061,-23.438810588995935,-10.607712890630157,-14.484319147666067,-18.45897662938237,-12.814156027211883,-14.986223489670152,-19.193555299005943,-8.95951288936553,1.075761742618765,2.782182713387928,11.574372286127645,19.597952005026446,11.896793293025187,7.197980884321906,16.234815313166642,21.2052657398391,23.744653981704896,35.06828312396929,39.55125522389848,32.99545944884534,36.948521306732694,46.997014190786714,44.66675018885556,42.09033138870912,47.50839566623713,45.83869582399644,43.39507298064409,53.45651179681872,57.51788827256499,47.225772193661825,43.53544186396476,45.45639502457041,38.60991194786639,35.70268414753042,41.57292423004549,38.23323548380808,32.67803499618877,40.497803113941096,44.89344486813053,38.72243310289536,42.24299957980782,51.072142014156164,48.68823783247963,48.9866747602854,57.78773164849011,55.101833402570776,46.05753409369041,48.29352058568229,47.728236330679714,37.65506468122242,39.515941958005946,49.47032647980507,47.38003405723079,44.38093465065546,47.85183072424495,39.7610056116543,27.05917926489841,29.882775493950685,33.89119213342369,27.802190639798575,27.779120517346453,30.325747166598013,22.47204378178636,20.920389321202315,31.41377576311936,30.38825161293448,18.67410766895887,14.736949771165953,11.537195826364066,5.738629012114679,12.783465334189476,23.752898934873123,20.80483561198664,18.209587490342784,24.834098185266335,22.937239911569073,15.37506009831272,18.23345022480763,19.882257752015043,13.979818212102774,17.370770993426103,23.63162555418586,16.230826478020397,10.09532284066006,13.359037275660246,7.960860102532424,-1.842362022354327,0.6674392863290262,3.8742535824179787,1.3522761401356,8.370428548511947,16.362258122341277,7.311706977228463,-2.632023056904999,-0.709626879089637,-1.2749948997945504,-0.7575873457232176,11.984908350178532,18.304919448745522,11.00081840053501,11.364003824852057,15.825148112424417,7.688636040263557,1.3385558286438706,4.41320917730086,-0.7516902398764684,-7.9885464292193165,-2.147754651717529,-1.1301183700729194,-13.170308418213708,-16.869607446614616,-14.03109415520451,-19.315573974769315,-18.17307183593912,-6.0492674621710005,-6.673773045904375,-17.882402340806326,-19.674719471192816,-19.88575508582086,-23.06166412532276,-13.757057732005535,-2.3793791171942726,-8.613664604272403,-16.986472418152548,-15.266791921452711,-17.276493007567883,-18.588651510044873,-7.4459370644624325,-1.4246534718744515,-8.26339368202836,-9.285530851210801,-8.165337660087133,-17.65274435157334,-20.506348442054847,-11.245865007279715,-12.573026566112345,-21.183722710297715,-19.645957722272215,-20.967477358427143,-30.925887389600028,-29.143676546704746,-20.208606897536107,-21.3648409118046,-18.23859131541962,-5.273344775799709,-6.0141461192185295,-17.407282875920117,-17.50967484452005,-13.246986816790223,-10.065180013407218,5.015428394399143,18.076247602548044,7.521959614080533,-8.689114162259798,-13.504065867894077,-18.28253276253448,-19.736064801163977,-8.556036819926515,-3.6780765469975094,-12.446735527438248,-14.190898857408488,-10.69579352780767,-16.867771801439925,-19.953525454349187,-13.54178881769463,-15.309110279539842,-21.388083958102822,-16.768226128259492,-14.154368488550357,-19.4535533341295,-14.74861979184849,-5.367891474926794,-9.326764909779214,-14.321098684052343,-11.330518173167428,-15.634628111076267,-21.124138663231207,-11.469585108144909,-2.988744870755949,-6.615083098713065,-4.946797671005771,-0.09595151463427576,-5.558964230692848,-6.980474678898174,1.301280096237476,-1.0922894133891337,-10.814232301302486,-11.04865861720221,-13.339814569654102,-21.939028484925892,-16.944220726274338,-3.760641101952079,-1.3314703032431907,-0.0986797373617333,3.7456556322324692,-6.665853538437621,-21.120601080360483,-18.46641903550136,-12.45821301311093,-14.304481522888446,-8.847597431971808,-0.9398564086725156,-6.607792574641137,-11.0327183843055,-4.841359805505201,-6.190817346471549,-12.464053617072922,-9.045883260796062,-10.654037434431498,-23.42668850568348,-25.06633520793246,-16.066967442969254,-13.067185674391695,-7.341172369633563,3.6646615713329047,0.6417189392591927,-10.429580909100377,-10.262112419038324,-9.299665367230142,-13.43868538480873,-4.916840138431517,9.146412905581162,7.634629292131452,1.544209929821813,0.0553691392708453,-10.637349819735686,-21.293451827737954,-13.635433323548853,-4.075351967158962,-4.419943437408178,0.2484189775331731,4.391839276316789,-6.12212103450794,-13.29805669669083,-6.586352030901791,-4.034652429278299,-3.468271454945254,8.37454888268192,15.064577113675965,8.524891013454187,8.863601768915862,14.33566137133664,10.986581798559499,12.066653403036948,20.343881136157872,14.445683501035912,0.8901686971119789,0.3158828469916868,2.5873346998599462,1.0046185403185932,9.687777356248313,17.996299088152977,7.633529156492198,-3.8512210701427216,-4.340022942731223,-8.667682693153184,-10.235307295921857,4.541811866384941,15.541947544771624,12.842979481310394,16.041658708884796,22.043262664179924,16.171400368975156,12.345003879436398,16.062617034647975,10.593115867787404,4.730002193324749,14.90430017689244,22.984895201503093,17.93474084532358,17.408429740921257,19.14909268998141,10.696912210352831,7.8751714502088905,15.960040796323213,14.258251879197044,7.6195437516159785,12.631883266904671,13.76234985303891,2.5996644542674394,-0.3667718684507574,4.283849152459076,1.9771507893152096,3.9974123456314974,12.768464618165144,7.282974625305318,-5.774762929589017,-4.104571674657845,3.069629089939655,6.376158916491068,17.567056189332842,27.173058188797203,17.92942527853291,6.323458351876224,5.554470675121382,3.2395543936202342,3.3909488842812,15.075709512576942,18.31718375344193,5.233753471902144,-2.540776127540306,-4.432407133089581,-12.0726832056482,-11.003058429972516,1.8981214784880471,4.4998187435516055,0.4938845988786982,5.2522360088434255,4.704300889185481,-5.188651947815686,-2.5319206506557714,7.913172818702622,6.694873461716762,4.68343245051596,7.928161398281372,-0.4766530667029194,-12.168126540173867,-8.10314049492655,-2.26287509535319,-3.1996090337451086,5.3156973884796646,16.670896446716636,14.608069994391196,12.871071495937532,16.60004617115153,7.519873349153837,-6.321736382741507,-5.8824204588740905,-3.655951244456422,-6.820460299636348,-0.33187511171365625,7.563354778939222,0.6969368163282441,-5.23289827009673,-1.77235389796413,-5.616286751070218,-11.302230025490163,-4.199247092953021,0.37122401747803546,-4.705363349270808,-1.8368602362699291,3.958117591354296,-2.028363672428845,-5.402839479997638,0.4739560938409455,-1.548485686241784,-6.034751280125182,1.8853251974609484,7.541366571368043,4.225019842720346,9.516146159670265,17.38014383656774,11.666720986066869,6.826284006714805,10.367544772333046,5.394879161591268,-2.6831758077808554,0.17954001745776305,-1.5801339789838418,-12.941883804392301,-12.87328163642983,-5.437891695171418,-6.7668522761389385,-4.6813497642934525,2.985451664144615,-4.152636449426048,-17.13088151213308,-14.298146002818923,-5.5403582014420705,2.0039800312918388,18.130566283387395,28.501431135153986,16.943610881611068,4.376476566504701,4.0815314726709495,0.07113681423630158,-5.9155747092931605,-3.4438724377837624,-7.211144041557511,-18.865476558271762,-16.55366972526088,-6.172136177331133,-4.929282007887044,-0.20959213875603622,10.865834879452791,7.2966999657192275,-4.436500017639274,-4.488973546482601,-2.9097024054038303,-5.084244452004972,3.256276117326694,10.864123117053287,0.011090652798533718,-11.76407123820065,-12.948619858122294,-18.240123380484405,-22.069800714638042,-10.368525603084933,1.0514168755495428,1.8310943528189907,4.781446235318282,5.102731898933709,-6.364545405408601,-10.463505889663026,-0.9808167389058573,0.2615379024324094,-5.702164108373178,-4.767148544008116,-7.145860279028716,-12.93937124574691,-3.4192662216075957,10.782748287192463,9.780620568857088,6.448638274774471,7.136632865320286,-3.5272533868355835,-14.716050264378653,-8.025911571549617,-0.04077481930831661,-0.5205035618613267,5.884153304331953,11.238864782291856,0.4512266980113573,-8.322447636333697,-5.069865217758577,-5.893225540181304,-6.042448482092655,5.191685878881875,8.129351002318122,-3.7250258467496034,-7.688082597424791,-4.502991052716056,-7.696238518883463,-4.7592836876354765,5.977921852159621,3.7868425273459683,-4.260609806270693,-0.8010566319957064,-0.2680707712178759,-8.320100465734088,-5.0902541369224785,4.823520836376611,5.8290751286136455,10.102525230318943,19.35149446362587,13.193072473598217,-0.603188089067757,-2.4940551700213303,-3.904889821509267,-10.355144916939732,-4.5674874736463345,5.976145393920623,3.3657526008317653,0.5601982471933187,3.3139693100452905,-5.702338611212818,-17.845803275033028,-14.3355589324978,-9.161804420728846,-10.255769498145636,-1.395524008744479,10.282781069201938,8.40000993760511,6.3215950828785195,8.594076840354411,-2.3404559533786475,-16.83893575178387,-15.153364127002089,-9.700826053803425,-7.393994614171213,5.316684224488782,16.33400286725806,7.494079112484531,-4.008081188217458,-7.078907278423725,-15.132025220871354,-20.29881086386276,-9.10195336483654,-0.32396224917051764,-3.1236502574206724,0.5173515906347532,5.825607314021317,-1.2296905492722368,-3.425166002267092,6.1680823474230095,7.197157635631628,3.134817179082545,8.000326068565997,7.504099615033267,-2.008381340919629,-0.5032765917150521,6.594108057702803,3.522165778586094,3.391398998058212,10.556401081512266,6.564157490549864,-2.657999691280704,-1.9071594531053317,-3.777932364816559,-10.791922392467857,-4.742789714312364,5.647460085075287,2.837618567253313,0.2081626044469988,3.908156860647032,-1.5750696751255142,-7.852357610415663,-0.011363142284571914,4.9636352305672276,-0.9189055732278013,0.9770024481172614,8.06767346086879,6.96959649738395,10.435795426196004,20.765939895761598,16.62424697526508,3.520568745210305,0.7958446239631478,-0.5883974365988751,-4.546433021499979,3.4776203830891723,12.917807064801917,7.560812408800216,2.886104485393755,5.241922869302753,-1.721241381879806,-10.386160007869563,-5.968839369921376,-3.528724532300576,-9.082408168381104,-6.360018797083695,-1.5269247501736993,-5.992420694613319,-2.8148206121183694,10.381407889266658,10.041060485128538,-0.6747264746053685,-4.8193822932323735,-10.300013570781244,-15.605938351505653,-3.1950962738114486,12.906823746905683,11.505580140345511,6.803348285269482,7.044415298183893,-1.1858261647783408,-8.324119197401924,-1.137022440869388,1.212529070755023,-9.075553931831712,-12.902644458346243,-12.703715797078434,-18.739349182410997,-14.074344167914624,3.2100842133176473,7.598129510920307,0.6334895146906425,-0.6168944204012337,-4.317357722157368,-10.304044156207627,-1.109538309060071,10.42263267728708,3.9819825262432884,-4.199321046347461,-3.2139898343757913,-7.002961447382387,-9.35447084593274,0.5557352900258028,3.7063175129241097,-5.1843482087131,-4.619858961284211,1.5492103976341371,-1.0675967919201899,1.0466697769866002,9.42459587314576,4.410331923011228,-3.9816219328260924,2.1887263267422328,8.158486105296394,8.110725830166723,16.792130287416132,22.962941724987687,11.798775756048006,2.4909238255926254,3.3781250175516915,-2.3341727074433467,-7.121179112444641,2.2256848569923564,5.976302041323263,-3.2772228262243113,-4.819312472173621,-1.7396675391248035,-7.597376015519218,-8.472480048641316,-0.9725322503415357,-2.8478046004820223,-5.204878658389887,7.303215495840871,15.801633830679886,9.210160772486244,4.400567772881562,1.6361242106474987,-5.5700591784562405,-1.685589002121524,11.510013537743983,9.741231347746721,-1.4336622464873958,-3.6876262761641114,-6.053632263113059,-10.31676272446246,-0.49407117771727105,13.489364908030455,14.680461995963729,15.348793794433774,19.04724245477042,9.731355958352257,-2.3816039558551334,-0.24981306836585304,1.7771477733798562,-1.6222047885220845,5.999803525401853,15.351521642076294,9.632577722829545,3.7616240788293074,4.931324265859504,-2.555315166205085,-11.861043116619408,-9.470003019279755,-10.474768985587403,-18.2953910083764,-12.930726864334623,-1.0895494795954308,-0.9754792691320244,-1.4674857572809936,2.304254907525096,-4.221002618996462,-11.468763333340672,-5.351984351175877,-1.2075837393247069,-2.2896251003328727,8.027290514078846,19.02361886833507,13.773624713190912,6.320110748708579,2.9710772019198557,-8.300593822491528,-15.247139686066397,-4.820575561121444,2.592946416207095,-0.11240833601984779,5.17449094756507,11.029297508434336,2.6950517667410914,-3.422342110148896,-0.4102532286575986,-3.2752404218556768,-3.3817021525117337,10.119131052249784,15.055572684601369,3.5486174255741627,-2.419268789494695,-1.9695696027294325,-5.3266817003215134,-0.38130414443606364,11.742976186680737,9.302944231653107,-1.1353167783311444,-2.2772902438382547,-6.397619304184565,-16.862395573686147,-14.190376509257357,-4.922330120682085,-5.544740947812267,-3.1065166741394026,5.678927861566616,2.3474775263972756,-4.228462773182655,2.9537153719201106,8.255828137634165,4.984112790991116,10.009451584012226,15.59741666852546,7.058965843553967,0.2917420670201891,1.6037465894130607,-4.82188650362556,-10.822816878053127,-2.43955743799494,3.4243370147135246,-0.3733090128829284,2.0217977565013165,3.657566288374144,-6.860308807995872,-10.23648471094159,-0.0802317622994888,3.874663626829327,5.137464238077979,14.242563425858092,13.50803978933741,0.7621820556987426,-0.5154728554055898,4.587541750815208,-0.4353103165421044,-2.266081619037091,2.591641716858187,-4.430764436149774,-14.635742243777699,-11.710032965901522,-11.144260001694361,-17.388182105774927,-11.434012939910563,-1.197722743936232,-3.079445602573503,-3.1152963833244147,3.119530965811705,-0.3938961744914473,-4.207390014023884,5.23868150305581,9.94837381480291,4.214686124660621,6.81062912136448,12.336762382005986,7.551910189351788,5.604002846695802,6.738486638795083,-7.494921400781887,-24.630635862003697,-24.348303620055624,-19.914213595708695,-17.638372911595372,-3.8044542934531393,9.640458350391489,6.5709645248827675,3.6599324320050686,6.599110484676108,-1.1968128651966534,-9.522556719916176,-2.476009429877484,3.0626886147183496,0.5999596758332626,6.766808518384109,13.83351376397911,7.947509752587878,3.73875719826048,4.843599133382343,-4.3205492726228965,-13.663345057328895,-8.751252184533339,-5.7175441485501555,-9.957283635339614,-5.153523842472923,0.6100347107696156,-6.370462821674428,-10.471719303585147,-7.374777390581727,-13.05981508405602,-17.400009165565475,-6.576410711859696,1.071536872609415,-0.9150435476445846,4.695804191510183,11.15543540126481,5.2496205691609665,1.9980381557404656,5.664443146375631,0.29359708424793185,-5.939405290215529,-1.082780008284002,-2.791250800923363,-15.13941958340202,-18.0369902408972,-15.078120514081652,-16.449227347605213,-8.125134787964948,6.495158311810469,4.148268519149131,-6.670215241521497,-8.83083829302758,-14.175354903502619,-22.199627673442873,-13.616073959299019,0.30766398291464814,1.1597797065733655,2.3496022366097145,7.353147808278902,-0.20827134832225314,-8.710437698133939,-1.381054475183349,5.268222494023463,5.136388098810368,14.523307351902837,25.077943959645793,24.319404788997307,29.256546587907216,43.62254244268695,50.827346384567186,61.33702464177526,90.00438587134327,119.80226012632494,141.88180043979835,165.7354586421318,179.01409179422694,171.50882554609336,164.91290954126413,164.12820833703847,146.28776626954686,115.15869821951239,88.5443242877234,59.91679842590116,32.19190843977357,21.617545381387103,10.848036862660617,-19.119700083090006,-45.5170609429236,-56.21197468314569,-69.97351873430154,-85.85409344427828,-96.26163419951466,-115.33895852109583,-135.95797058365383,-132.267255576161,-117.31751503627144,-117.39458295858466,-125.26119678934127,-134.4163345230642,-150.66821032708017,-156.74140190886806,-140.28957024644492,-126.37689185458655,-127.36058565008179,-125.38097303468041,-121.37012247721546,-122.96169357392853,-113.16106650165119,-92.68501178678784,-85.77009141749497,-86.6151539100822,-80.24439824305655,-80.79153274883059,-88.50049354949029,-82.26744589416947,-71.07248614880372,-71.10345849854774,-67.0973300846059,-55.572473518582555,-54.06161083678091,-53.04940321434389,-39.51344179012295,-31.910171107170555,-33.404480157457435,-23.74504305031245,-10.87309323412046,-8.805238529537634,-2.0098934626851537,10.832089126759731,10.826322220371381,7.644533480349473,15.501727263246247,17.61698285791684,10.645195043523485,14.108051649672356,21.11908623971441,18.79522486539578,23.270579896425406,35.060499508912876,32.28696972237674,24.01992377834184,28.271821723850074,32.34374053569925,33.915104594338466,48.49512797264044,61.770645647118,56.17200264246363,49.72085889716532,50.945902267240065,46.428949797555276,45.56027643496897,58.18348815126239,62.07343561805537,49.72736236841975,41.24233780248998,36.674771443697345,29.771129232975333,35.931477986440704,51.37881824552952,50.8263722290058,40.016377910796805,37.16042217718032,34.916244186514646,33.448022625567155,45.18500273951223,54.948311298064226,48.1347800241997,43.818030201663376,47.965750746823645,43.64156500421164,39.22247852164012,47.78462736173633,52.96340169606568,50.37253059029166,54.286691626568256,53.48946701941563,36.93521502668768,26.43193004004929,30.07012888568751,30.910667644268006,33.44369062034079,46.07360864414987,50.32032140517707,42.99210371471321,43.05608870875403,43.71915514067386,33.75945160192846,30.268731590416298,35.40112315314955,31.53551146562377,28.310073439903277,37.1170383711435,38.81956646249593,30.33726152710582,31.18554185832854,34.49873538613584,28.681864565758325,29.216605160099416,35.59126111507225,27.43122295655396,14.04229616440475,12.33242362026057,10.679958316259867,8.013320964367544,20.25268506362086,34.20322848197369,31.25312012071,25.19514048681503,22.018064249947855,9.554972122030193,-0.03549477193442385,6.464637226370568,10.96885545586559,7.356859984257981,10.182490334640454,11.189931866428104,1.34216002253679,-0.12594384721645124,8.613235072300924,5.589024895774328,-4.144725610867862,-6.439736333092402,-11.989664108100413,-18.900253990354617,-10.575829901272183,-1.7304081529549764,-9.531106768387367,-15.596159472452621,-11.683183858285702,-12.826860369549173,-12.568367341971328,-2.3665679554707344,-1.2691605654362434,-11.441358188860296,-11.616635829564007,-6.083509115532873,-6.362031955167582,-0.32236705127514265,9.37174685906259,3.464937695580893,-7.797266061071113,-8.155505023025931,-10.132815504315715,-16.682170618107097,-13.796614506404797,-10.900606733131239,-17.900664341794432,-18.055425492913145,-11.455752994617411,-17.360238321248342,-27.1117434591965,-27.427860052013422,-31.510874269957718,-38.20777496659264,-29.817007892055475,-17.432518438712144,-15.839806177375053,-11.943524076473313,-7.037660533042637,-18.061188394017364,-30.088494287556195,-25.759828560825536,-21.062394149393874,-20.81211791944987,-12.18899314215159,-7.833293963777991,-18.817545902092256,-24.684919602281763,-21.508460446312256,-28.019275292909736,-36.2487009852621,-34.079438356529835,-36.93246986939076,-43.860039208988745,-35.27375216251305,-22.26647165604622,-20.86102936012737,-16.865969074291677,-9.002722105715463,-13.947471692857501,-19.492326426961323,-11.373747934587374,-7.504136252216855,-12.32406077300893,-9.943050956337894,-9.77715353197615,-21.029677057947676,-23.269189711441854,-14.745158323467095,-16.661139961587715,-23.15524390781968,-22.773525957630483,-28.999139111917575,-39.019036999889245,-32.74833364876441,-20.722884031551985,-18.68733634958994,-13.054128349479914,-3.189353418330601,-7.08299368736491,-15.001734477256049,-12.845364182798797,-14.50402915014369,-20.54292422887857,-15.235179090647488,-10.2747315014872,-17.085001270708275,-17.812879994734082,-11.253904136866304,-15.17386272157008,-20.766240975285246,-17.698142811661217,-20.949883846675995,-27.651787310797594,-19.57959094093574,-9.59172158855247,-11.937823958686309,-10.051490774827741,-1.9058038436876705,-4.39532344242559,-7.36151942599943,1.3372248143783425,4.4949712298920295,-0.7158203617520855,2.3328556326041086,4.8449344900099796,-2.726307341861212,-1.200775203872563,10.562801976984202,9.930725664232707,0.5710163665970369,-4.726979501616514,-14.03378200873006,-20.703352416362122,-7.106926484277799,9.559278578031826,8.86567189461651,4.961944243295024,3.007508914669668,-9.155156780664711,-18.38579938228402,-12.795711766762661,-11.147429118708256,-15.798371072846038,-9.67904164631955,-3.3601081461266316,-7.597473335262134,-3.420398267345489,9.794380733475407,11.149224197933325,7.646141510821601,10.477438277647673,4.753727309195189,-6.846775308422037,-3.6707479539375667,4.481529078577875,4.146170906351395,9.411030712417082,17.91624673129424,11.831471985039142,4.70034909505741,10.77496544089667,13.640429692383023,11.489861941069519,18.450355914256196,22.406318160263098,14.864741244845842,15.101886582027493,21.140549504221074,12.697093686190323,1.2445086290769223,0.9797472561551179,-2.409052572805579,-6.84185102877569,4.136603622851156,14.462591476754264,8.288774443100465,3.129394789470632,3.4935505672300406,-3.9949669296535295,-7.316359143317967,3.83096279179453,9.139263277563717,4.676817583964888,7.982512420599524,11.390230605373588,4.556022713046399,3.709426732805615,10.56773051040942,10.310677873838848,12.019096909045196,21.700129195086234,19.04731223730943,5.09480863803619,2.857478127147186,8.314177910093036,10.595975161012726,19.395046783478897,27.178742995515105,15.322414372438974,0.449107583025643,1.3416650147179352,4.041377108812036,5.996535225886799,19.57709283068153,29.89378743807532,24.731236557436198,23.205414080608826,27.603917404356014,20.23547983347111,11.23320624739949,13.252891135023642,10.81707784998683,4.5324434045397926,11.961617940643105,19.776806507142886,12.440694649999195,6.168451136607369,4.9800862614715316,-3.944190955070615,-8.29453350098859,2.110335800533475,8.2898683182922,6.950744329511572,12.282591792624677,13.829203723268812,4.300313136976889,4.1455627893712865,13.869192740001681,14.397148689513656,12.298452433775646,13.999244220174742,4.478588217411405,-8.080608651345361,-1.619202894301723,10.555204203541557,11.486618660809308,13.28288144617785,14.796486333708964,2.1985926217961347,-8.515115753603162,-4.027867435731024,-2.6147052010321508,-5.80690393454359,2.802526026233303,11.105971525613223,6.241456599827124,3.79916043157288,4.475815304322187,-5.79657778389687,-12.691435557528314,-4.279131829985744,-0.766996380022215,-6.167026318778598,-3.833493180322498,-2.051706887881349,-8.383813482842767,-4.109717060742406,8.082890937586454,6.635350473978135,1.1370818606647553,3.273065935823764,-3.4891265399136495,-17.47362518353424,-18.53377382952092,-14.942860571593853,-17.401457238178416,-11.056106399316345,1.5776565706217043,1.2058014590026271,-2.8415067936964675,0.8989513540766434,-2.7791767204756397,-12.001606826918849,-7.460297404171935,0.8096938308062094,-0.8727177205871564,-0.4092404900889226,-0.29179033520007724,-13.275584636771288,-20.720077609624063,-9.586833099169649,-1.759799602671721,-3.4606046669056854,-0.8990401328965045,-1.9067357407024474,-10.23694861895012,-6.030502491398134,6.529476197855951,5.034211812898143,-0.7015557679272302,2.9292707487872653,1.4576315484971714,-4.964291948101624,-0.26560998610391584,5.225240419408539,2.356002044989783,8.207924453090621,19.390917259008646,13.674413501685423,0.029128221063151827,-6.05777862111828,-13.547428176264118,-17.81264975327024,-4.568787937673382,8.413221364792332,4.622482657434265,-0.7003598602378031,-4.671435047726256,-18.038625321875163,-24.223899440584155,-10.81983025642152,2.0805342820305257,8.30879073731618,17.998052777330106,17.890686934954953,2.1857951128699513,-5.197240581451001,-1.5860687931971849,-4.9528070481286335,-7.028166458852235,-0.091596329983886,-2.364924490039215,-12.880553366710274,-13.950190689081966,-14.239705158939284,-19.784120802472312,-12.82342398606291,0.6556054300829626,-1.8704556966898545,-9.73746475474065,-8.45179582225678,-10.01772605058976,-11.687445168475298,0.5524171339762978,9.824932065149582,2.9727173208560465,-0.5008740637411802,1.9541826463305367,-5.405988090470653,-10.586219183277942,-3.86554441164422,-5.351160794131753,-15.885729685235795,-15.982812379544907,-12.229907708206575,-12.130996210789448,0.04884648978439543,18.106353272720938,18.46867525684277,10.180726940427121,7.974036933101617,1.3642524101705755,-5.3888407537819685,2.761366940525168,10.39111883124844,6.517525167860518,9.833644249084637,18.79156394609952,14.518861313349039,6.410471459836521,3.6529240463568127,-6.86630317163911,-17.70623079648179,-11.474481383540754,-3.77951875865501,-6.992159898125957,-3.981237156564937,4.364569987415498,1.0957300533721097,-2.6031475964025623,3.8851898391530897,5.5283428183512395,4.86252561341618,15.804546589609107,21.59682922023912,10.840460387766047,4.597629901738665,7.4044553166474465,4.950921704927912,4.562706619995509,10.193709247190709,4.817699511787423,-5.799764396125663,-2.781364034624731,0.8615739357633292,-7.02940934971988,-10.088247009719778,-7.712101155125222,-13.70303940340266,-16.192629415518642,-8.67663657854922,-11.033267952050583,-20.134888698482833,-15.764943255817165,-7.996748428633912,-6.675974237829361,3.3579888977573513,16.670400173642967,13.698209862451696,6.696985289760022,8.251149092131614,4.528502413161901,-0.5216300726719363,8.554729799153986,15.604583901310042,8.371147938727749,4.835794526481599,6.082532246329188,-0.3160273967955458,-0.28583116415068954,11.51037401744208,11.212550564057524,-1.3476563847703975,-6.523309357518548,-10.374306611294235,-17.289167773581536,-11.197163828710753,0.3761631827216769,-1.8163701110818535,-4.406688390653084,3.1820212010128066,4.132403583585637,0.619535680140642,7.95490020652172,12.957948817874813,6.860042196950893,6.797182654263274,9.852788709563214,1.7287080318324919,-1.5222607132651353,9.076643806215225,12.540246225441676,8.707559310424749,12.504198147885514,10.662651371040916,-3.7170520607951305,-9.573572278434792,-6.950244657429847,-11.100035339705189,-10.354846299609875,0.4647672854494589,-0.7253704009027062,-11.721411426656704,-10.856826714865743,-6.086054144969584,-6.494389014134193,1.3289405601022724,8.844461659267687,-2.5352217388622567,-15.240679364991617,-13.59314958323333,-12.704650815847044,-12.138034173799596,0.08313818066529333,7.001257427712197,-0.8868370766456679,-2.2159068844071035,4.054636467606868,1.907890100204631,2.3651628516724417,11.552389215577705,9.396501344652004,-0.37167384601233255,2.0604666585894824,5.09440345083183,-1.2724987455552443,-1.2982568255089995,0.9658161714273056,-8.304766493497864,-11.874165482297457,-1.008949026146091,2.954552392428568,-0.9452787586051135,0.9095157751215346,-3.0591702177694122,-15.931201752741243,-14.98150471507619,-1.9263938073780738,4.201887792866376,11.068805685886732,22.011972014602165,17.159415676030758,1.7263256151524415,-2.955470464418589,-4.930632447836473,-11.106908156857509,-6.1310077400653835,3.9353988604410555,1.1594141262396052,-2.047445027940166,3.403275559073692,0.486370209528848,-7.551469841534072,-3.0539082182229573,2.8993539403333375,1.1136663394080801,6.360624214054953,13.568594031804071,7.354123005797431,4.051191898901224,13.880366153528403,16.496210993794584,10.375728199307032,9.291369629926617,3.8186854114915136,-7.1425218869066835,-3.687841166644889,6.697559424778291,2.980562979258247,-4.511245668206781,-6.510011699354235,-15.113003715291867,-22.17885442214967,-11.907024623905347,-0.4069204124193,0.6498488500035198,5.989138457874564,12.353369839806819,5.963760894023033,1.0419376341690003,4.882553751218676,-1.4642608824008607,-13.330395743298858,-10.113549966130304,-1.6496772647688696,2.328777297321991,13.295939386372995,20.74684958725972,6.759980781402527,-10.759740661589664,-16.23957495054473,-21.266649044280637,-22.121264090298947,-8.415641372664235,1.108694777788098,-2.9534932261016023,-1.1610488954495097,5.078812617432767,1.2711617113418132,0.8757562800936867,9.980076073875354,10.220325700317563,6.742413727167413,13.53469091142012,13.481624554196479,0.41409940144794,-3.594102067386981,-1.0202946491795801,-8.133984910881354,-12.112684496654982,-6.830574387809479,-10.569374826274142,-17.488893143640986,-10.515941545471483,-4.102770262365005,-6.122885159771807,1.4631098901430994,12.11817043704134,6.6930223145858,-0.5713394648625991,1.7327067449876694,-0.20838968903656285,-1.179489143899713,9.56797399018538,11.960497824609517,-0.5028528208639003,-3.1772842366271856,4.473364752812703,5.491413870955762,6.951875991045225,8.71172544309204,-7.070879045172997,-26.525504750085606,-24.32242318130035,-12.993530199662064,-6.10462715056734,5.406813687193015,12.11505644163531,0.5586413273619284,-9.44339312397851,-6.115121975367169,-6.225474459366797,-7.174439905442064,4.225565151633381,12.612750945359236,9.78677476685038,13.45501197571408,20.90279476638782,18.122092662007244,17.56681282894141,23.173396439915063,15.560241614596656,0.8013281294146868,-2.201655534853757,-4.646654496922083,-13.147041015905868,-11.460359325016121,-4.645241536589232,-6.194647281479005,-2.170537310085807,10.02944204079049,8.173466840534573,-3.157317259645348,-3.8856830909269244,-1.5046557785937487,-0.28076361337647227,12.690819631108894,24.77928658929865,17.07488750162807,5.739772884959461,2.251785701629656,-6.431099373354739,-13.322729593548964,-5.134747783990499,1.357470072070256,-1.315852977969061,3.1870412316818797,7.721791221732874,-1.8916018626927436,-7.453680456782022,-0.6112891230204505,-0.22006172047187444,-2.466041359480523,4.736590104739802,3.8611532117074296,-9.481985447803623,-11.927535798474665,-5.355457642909479,-4.928684827858401,1.0620982488791975,13.706044168311353,9.560766251881258,-6.884985123074571,-14.17310340152267,-18.227424903113395,-22.505186430317835,-12.32723972700829,2.351984654321421,2.043848860208383,-1.0804830998740458,1.8704692910648675,-2.9251551135531457,-9.752719939241628,-5.013320062426699,-2.467540188924037,-7.407730813851552,-2.990902846232609,5.145854857535095,2.3922653483188023,0.9256530921025765,4.894933545514688,-0.9121370271358717,-7.055759421004852,1.3072064018451428,6.270244568759555,-0.5873057434863713,-0.9469112930665702,2.05771682838842,-3.5824713086764075,-2.591361598750244,8.195244549398332,7.953112380547544,2.887355235412741,10.332999059640125,16.493147857607795,14.899873395485223,24.4697913481127,41.364772518971186,50.53405398549744,66.3446159119498,96.01504675571431,121.10092843864696,143.49837882917762,172.87381275163833,189.41614343891177,184.6273187636029,179.1768176088675,173.57304900619224,155.7208305137129,136.90286043982402,120.32745729334546,90.13750424003544,54.98508988520571,32.98632925688782,11.982629751864671,-16.784038931121835,-38.51895754056271,-56.027262554628805,-80.62280642998527,-98.10153350203696,-105.87449962393546,-124.85709304254559,-147.32931179524573,-151.8813396622766,-148.2501877229352,-144.4743122764767,-132.4594770899999,-127.36343929036505,-143.51036214528315,-156.73126872409426,-152.018771863048,-146.2272066999444,-140.7303334135598,-129.44351016030527,-129.7448121057284,-141.15846260476167,-136.80818140652957,-120.5664907857563,-113.53552648620379,-108.6141214455067,-102.3530861334897,-107.70281160251554,-110.75492333395124,-93.64695198311537,-76.27142574595864,-71.57212117182604,-63.73025853073453,-55.67698650536697,-58.280189778761354,-55.270026784312016,-42.675561667778844,-40.623949264165454,-42.804348575799764,-32.46331239084907,-23.158148595660577,-20.949095900621856,-10.340456939735866,0.13455455189498045,-4.1903062298946185,-6.431647121597476,1.6688108402582125,3.8611492729150507,4.319225416616284,13.350011086507818,14.301969312480534,5.148761999156174,8.560942864010975,19.60787695011992,22.134834054916283,28.41995262089252,40.66146609661135,39.934824216167286,33.86764861180312,36.81185631375214,33.87312543940497,25.508380085224644,35.67832244411596,55.70041484694979,63.21953209990575,65.76834721252524,64.37584065270092,46.185286998090774,30.773714719511297,40.18983252119639,54.8548283408192,59.95588156523567,65.4156841494911,63.5148545518981,47.816166975815335,42.28846109034226,52.32493635879886,55.2084725380718,53.23831501175025,57.119565720801624,52.6920447347019,41.359475860259536,44.12630341024305,53.202395443654225,53.40994382315391,56.45903969354849,61.86434170052028,52.10600289187966,39.7976363489892,42.9817169481517,45.96796074230521,42.514020594659726,48.75567224150022,55.97249812999458,50.223129975855684,47.382527457659805,51.15463200796033,44.501598479005075,36.57758167154792,41.28931825698164,41.94779930734224,33.684404966451076,34.79627857881168,39.4292360408937,34.56187555043431,34.01907293582819,39.19033763098711,32.64711015101164,24.547860915052297,28.493597889168502,26.767302382864273,15.814911238035297,15.932173612038666,21.301370612676227,19.13273418131938,23.938525049120546,34.912987175086606,30.97092837319518,21.469293284742257,22.3950295464613,19.57832988758045,11.13009976819638,14.592532298821034,20.73994183663216,16.126367605956023,15.546427629328567,20.136518291222483,11.305234889709057,-1.5041965205752743,-1.68023445304862,-1.3347735522214756,-2.6359155952459097,8.374088633085229,17.217843542449874,8.330870335067612,1.602377562158185,5.630478073180887,4.607810797571108,3.970000426357654,11.28707949052251,7.767787915010951,-5.771691179371905,-5.254263920431282,2.4470605092766333,-0.07097075559705779,-1.5287527627333921,-0.23192246080472478,-11.781953768250705,-22.752373543366055,-15.586925682399428,-7.434152694756987,-6.542229835949367,0.48934854501389946,4.094263992998867,-6.8296979315425395,-12.275625316711476,-6.477028116894315,-9.427707155494769,-17.980155230291473,-19.421706465584748,-23.55711371446116,-28.653569849635346,-18.54899048927029,-5.995872268316217,-9.161266812161738,-14.60776857847222,-14.575021920168833,-20.544373865934837,-23.613210704666276,-13.235425621994514,-8.704807019292904,-15.521084297833342,-14.392826746399777,-9.7395022611636,-12.591618894658524,-9.100254376328216,-1.8738708837981242,-12.237037815693785,-29.296295971980378,-33.21701174976846,-33.49155009940182,-32.18015777546813,-17.94036938065348,-6.827346686118375,-14.950807894984687,-24.274523530102474,-26.613164909811168,-34.45946491322468,-37.30771280772122,-24.084861997921305,-15.416475129086852,-17.82987540048837,-14.332970172480202,-12.715946150015533,-24.17664183408734,-29.26658117749722,-22.793375879519832,-23.031507050094227,-24.036577698768205,-16.540790219881902,-19.348002836865415,-33.546903260526676,-35.121051456661256,-27.219583890046717,-23.717704716550003,-14.862960154945734,-4.571958665686951,-12.411341101459868,-25.40530772803754,-24.69588442444473,-24.192415958366666,-28.409373397260232,-22.925448844348598,-17.8450417596992,-23.922035253875727,-22.093523477311113,-9.828304782769282,-8.220032801395527,-12.529791816045057,-11.121529049828464,-16.849859967440732,-26.58267040770967,-19.974927827724848,-8.497785884055771,-9.793947623515393,-11.31452674329567,-10.730203127667123,-20.71964774529037,-26.190324503220392,-13.897745142589745,-5.209005088679727,-7.182031921773744,-3.6022982294134462,-1.898100995797297,-10.499490568042383,-10.676650237808424,-3.429118620585666,-9.626138698485391,-18.016119134296176,-12.19254025914446,-7.721430022689502,-9.688580472960531,-4.24529452986101,-0.3541892661442303,-5.534861050263334,0.2595397807269486,15.238497430100683,13.759434871219577,1.9760397490701531,-2.7937764238735623,-8.937748120489356,-13.931245688792709,-2.8923984305358172,7.387823911158126,0.040467471095001706,-4.931041791813168,0.5520869840482745,0.01650187839281214,-0.5974409274127654,7.047176577890705,4.49049256097754,-7.803020204389531,-7.1101529672842885,-0.38977597294549815,-2.374559241134765,0.022148713912085505,7.457361060268433,2.585447720174129,-4.601521212797501,-1.3028835146359037,-3.600488887807348,-11.555432174651216,-5.592909425476023,4.8988664564143045,6.456785018456357,13.246771820890327,23.72799475326205,19.198942908863156,10.336520229780362,10.051766105242987,3.3023788464919988,-7.8776850778462535,-3.9623610635676383,4.480664721563586,3.6907817407213384,7.915093753342964,16.256129188257486,10.816439647724836,3.3003408395893565,8.459604798594508,10.288041186393315,5.364311967357305,9.23311122015411,12.953083714080332,8.225221441054572,14.60745241016066,31.122509963179475,33.27855043093961,24.778735352836712,18.016483005661954,4.614011736626871,-6.621681940600575,4.482986360363865,21.425987037938114,23.603836064781568,23.47419342644963,22.711141672497185,7.748216067889465,-5.57187304349089,-1.7601436882234895,1.7888470528997253,2.1786468704608764,14.41563365351206,23.606830278992096,14.612845767621707,6.725457745285787,7.1443708490752265,2.894363044738842,3.4387469113867493,15.55678624510986,17.121362195630947,5.972346170939855,4.045129825630442,7.631082348824354,7.173851227478181,14.600632206034577,23.874224041069763,16.041706584478547,4.821323365101977,5.17235703759883,1.5896800114112462,-7.037963768885627,-4.571444953182445,-1.0174252465290285,-4.732107503335735,3.1981162959444114,19.651187183304405,20.985965996954025,14.465474948630035,12.146175711918108,2.314488602335106,-8.058261497526576,0.5857936157092762,14.182377566292974,16.515563662992776,20.04775215389407,23.756184636295664,12.832319266998434,-0.027944654322498153,-2.8458327356314426,-8.991645234943311,-14.123409370929446,-2.4622756661144702,8.820092169461969,3.563322864960838,-2.105241814584272,-3.687401119140521,-10.67332357493018,-8.81330681540014,8.080128340017277,15.154692234840223,8.520768520325392,7.42539571759279,5.9693496567392295,-3.572980433908213,-3.821002593121187,3.7234753870706734,-0.45725099917636136,-6.184187557492649,-0.6471827806614336,-0.7278255136437917,-9.316044663294935,-10.580875891897872,-13.283950013998252,-24.458697029630706,-22.942560861182965,-8.912329540632744,-5.124138274329457,-5.5110702864050625,0.12495089788699909,-2.584094797506863,-8.894358700293377,-0.3477438613011632,8.344071928336996,3.198614766147746,2.339228251803174,8.224711154680195,4.622738705283738,1.5744067299649813,7.72001000496372,3.4041007743115523,-10.015962815112733,-10.362563122350313,-6.191092496173365,-10.185784509951223,-7.613387585333417,0.012802713305275049,-4.646923423773031,-10.080019075475656,-5.519787762968924,-8.874687008032401,-18.959451549546834,-14.82620540320489,-4.966905841186104,-2.573576941547411,3.551059709364732,9.03024251940599,-1.324406664510791,-10.811325188203435,-4.931567369249416,-2.4349102955157633,-7.990523795941702,-6.675104554899492,-6.567316892961525,-13.9359226747623,-10.279681605303173,1.233619828382316,-0.5077889041654022,-5.835334066737785,-3.005075179600939,-7.040741774208871,-14.583647056884098,-7.054926274648663,2.878412269118262,1.5623056591741968,2.6869287707601552,4.231204545828858,-7.384971148436085,-15.17705701917974,-6.3948848297085314,-0.9661767873465441,-3.0614056155759166,1.3161541373551064,1.9124911165381064,-8.078724676052355,-8.971231823184398,-1.650751104433367,-4.944648904130249,-9.243249736129076,-3.75714644365394,-3.3727073389418245,-6.163028728765491,3.2717442751633743,10.295715901770908,1.732306320588071,-4.347789371518596,-3.9846172176858774,-10.23746117398459,-11.762599736591156,-1.0062465900304902,1.8594808991422096,-3.7268704631559384,-0.689867871421141,0.5342412311615498,-8.14247791717985,-6.546533614903554,5.399338772750426,8.056620855291493,8.14951177379527,12.724656831188073,5.939777272666878,-5.848252486071717,-1.049459010081542,8.723562894007575,9.812590293138651,15.796480426129836,23.271850416755576,15.97452111972299,8.03584241952651,10.895543184472668,8.306472954001743,2.2539725156953105,7.9109773574047715,12.023582499607931,5.124813574548188,4.955660525655127,10.362620049957599,4.545425854977269,-0.5295760964603495,6.096742004428652,7.589476067594275,5.0831679359299144,14.163663875905414,20.11459805322753,12.009306965286546,9.405527611445379,12.4384804537183,4.61232534051212,-1.8037580731851484,2.4170977130178306,-1.178369578217334,-10.187109377134256,-5.4411672782988365,1.3063440182264052,-2.116288369043311,0.3496034526643321,7.231123351941829,2.0629559814808975,-1.9035705187987222,6.330256292953391,8.282357381507564,2.8902711579726326,6.661843979709822,10.48710333340932,6.03166937497789,9.041315615181214,15.880451412909334,9.350886842665386,2.2319194384557295,4.76041361511211,0.6943009560013136,-6.528930413182552,-1.070542315605063,2.6678921961132236,-4.634166359994012,-4.176438322662682,2.10437663185942,-2.2009280087169625,-4.618352155506745,2.6525474896596597,1.173713528737634,-5.635250713899984,0.6341299701713647,7.83238032718805,4.25475238896031,5.787898796144759,11.668678852119603,6.177326479646306,1.4059244086968339,6.536097959714213,3.0783120089820875,-7.6759476063445735,-7.759649802490815,-6.560250607537093,-11.787054506636329,-6.907866298726367,3.369422876723001,-0.7028640007457279,-8.3285349314532,-8.119535896403496,-12.215672910185951,-14.786859909697291,-2.325574128924177,6.85673039303165,0.8502696011749116,-1.8844621100991361,0.14075176991633942,-5.082233220414227,-4.303804296787988,7.817868237892757,9.955939419301664,3.6954697316538363,6.361403465943787,6.743811209717101,-2.7785187290762394,-4.271515024777358,-0.1881254184712482,-6.695616278904647,-11.82584126237623,-7.3403209998617465,-10.223404465024,-17.05546001763219,-10.811888098231833,-3.5019099742431328,-4.7650512643092995,-0.17921193357555687,4.587826588097801,-5.9342454581264015,-14.100258151038512,-6.724957075697835,-1.7631673992251962,-1.1119507092902354,5.9423820841845565,4.083640922841756,-11.261945785146596,-15.231496668129159,-8.174208712554064,-9.255456061922176,-9.824879867922421,-3.1824412027854523,-5.111234718792575,-11.078830775881235,-5.415565748466828,-1.3392603463747221,-7.507749185333572,-6.2065333765035025,0.45173098584363425,-4.08379757325885,-8.721922375584045,-5.108202724811289,-8.771796369314007,-15.358758097656093,-8.94123287439334,-3.4729694737452603,-9.04271028649955,-8.386046524602396,-2.408375337893199,-5.922063588157055,-7.3837139210816645,-0.18468940112677767,-2.735856489633428,-10.815506243621096,-4.656755891643941,5.393298634451366,9.184751264038802,19.516314068415532,28.870285347556607,20.170747591463922,9.335211624500488,8.643258699965335,2.6155413326807935,-5.6005018505455615,-0.5584073957962583,4.1847892264064415,-0.9429970865435604,0.37692062535953275,4.52732402296927,-4.437910624961049,-12.204963077909788,-8.799940041732837,-11.386537696794198,-16.97986810494825,-8.989268649917893,0.8466240709539714,3.485085038536827,12.272422137055987,20.071331862344728,11.065910934261654,2.7947672085053563,8.342413427950403,9.570031741803627,4.3046583317132265,4.653761550553595,-0.7762339437753238,-13.632924563531319,-10.252582605778436,5.247379273542882,9.936139189374472,10.229917465320545,11.716806942219606,-0.12945492242025747,-14.587786370779956,-10.273734791786573,-0.7556539336222898,1.2390378966480269,7.3444780581707985,10.622845566124717,-2.365113088450066,-12.275997539747546,-7.481443451832748,-5.944628240126012,-5.8388323300779215,6.378048174629125,14.734504817106021,9.310607582279774,6.400939292866468,3.0218105555486003,-12.08855981756858,-20.220345009785344,-11.845946664189174,-6.761960687763175,-5.963880927951232,1.7610121023702634,3.2582934817312896,-4.694944691710651,-1.5815554300366732,7.408547943542807,3.051965792894123,-3.0842360601908583,-1.0941582259524893,-3.997141934667102,-5.081367303903051,8.563235357342439,15.914902340622358,5.027130066163109,-2.7046219872498782,-4.249865477514426,-11.338136620170674,-11.142536942313878,0.23881997049524006,1.4486721584000797,-4.952065499463126,-1.833528350385293,-0.3205565583653126,-6.718847733240254,-2.9459296103583434,6.502529733419883,4.082123403935317,1.315249125846084,4.931371439162808,-1.2691341404639953,-10.3717890104375,-5.20268435978995,0.5644200107146897,-1.204383014857191,5.748560008959405,15.276394718430906,10.01360904731866,3.645611554849141,4.935440515325446,-2.805684867239784,-13.35922232772028,-8.40510794046961,-1.297578803099393,-1.2690961456867567,6.559867037119461,14.869632712062643,7.464741767063188,0.9802198362155674,6.099761612314824,5.834784070035047,1.783621013475503,5.516714072064211,2.647047274792167,-9.07344167212175,-5.839724515033044,8.411092775514422,12.593267462631744,13.078675049108686,12.25258963974699,-4.85914580844775,-24.179049908487688,-21.31674853982257,-8.4722798774701,1.0838746499699172,16.27860171081393,27.012459181133664,17.244921204226397,4.85167554842165,3.439254263912842,-0.8491886321830324,-4.3116514232100345,5.99163776108295,13.160704181920199,6.707359329362303,2.706010856300866,-0.6309147854287631,-12.505816990253946,-15.059004152260226,-2.8961571251099993,0.8341489369541454,-5.38730773510331,-7.536546848189911,-12.41546429013969,-17.969551289592218,-5.393601036910955,13.88918686847028,16.595258881307068,12.138813593103231,9.054106169651693,-2.2053448739262738,-9.059052152216688,3.7949280029825108,16.013703915292165,13.935882326806423,11.42566355208405,5.485710862675756,-10.875048259027217,-14.689525970170624,0.7246211733712169,8.141197564318002,4.467763367062002,6.021881241468406,5.644929537167,3.4515856541544907,19.763636531395875,45.41082558020572,58.722238935659576,73.4269257439748,100.36715504183262,123.17106149465616,142.74559548317063,168.07968281093724,181.54903644087798,177.38215773395206,177.00687532347828,178.0493759831045,162.58393008888038,139.28106750619403,113.92839873017495,75.40261097200539,38.442662607827884,23.07909853997207,10.689917339250055,-14.517122186401856,-39.73029790188934,-66.25465175533247,-100.26766720125818,-120.8673339531389,-122.83125828906392,-130.61124978315237,-143.82533302606797,-148.42773869676702,-156.177878663504,-166.62525892094922,-157.59317317598789,-138.9545374073168,-134.71334507447293,-136.8731022848225,-140.06291742648432,-155.58901487285942,-166.9598808996743,-153.35672899056055,-133.9123977135189,-123.16570915088903,-108.69745903273629,-98.11525879565565,-103.73881913799767,-104.71928500699477,-91.4266461668034,-83.81966386216568,-81.53283266630966,-72.2374689769657,-66.68474366835044,-66.14795470961295,-53.1668313971735,-37.37140704988659,-38.23110657167837,-42.36855211608075,-38.5890852830332,-38.512703501053835,-36.93361617269824,-24.772211293486748,-20.093969543040373,-25.512264490804938,-17.321105541717717,-0.8027159772837944,4.638824455324517,9.890259399474923,18.894906391802554,14.390731262645287,6.220830956960274,12.907143148579802,20.30126792812841,21.958364405166805,35.024127007385836,50.41001885972627,48.46827946196223,42.44404209342128,41.07069446316379,31.60906632947424,23.948062229531132,32.67203828969721,40.52465193593241,39.60219516461501,45.04591247296257,48.49435797171361,36.56966593296028,29.314726855646704,37.44364422690545,44.36000945114642,51.693456136001345,65.42281729651293,65.2340269728069,49.896556285884756,47.35641001379845,57.112741982270606,61.02715887525452,64.9693181142272,67.6071575702927,53.215543513637144,37.63650939324398,42.701665974790274,51.48589632544915,50.76734932663507,53.001242020308,53.22983048944137,42.08216843940889,38.02270411087963,45.42103719604856,43.10173699440612,36.53191094331697,42.2412318225054,45.37748384917851,37.426063191700166,35.09478031942904,36.87652937280161,33.676822114037726,39.37826263307858,52.406873098671,48.014790252707094,32.013547941166514,26.859382888034713,26.954970182536925,28.392049656419616,41.74719060387744,52.65418991580487,44.21340972610924,33.92042353340271,31.183580069098202,21.80247157562006,13.512009864585435,19.85039050900112,24.438228806400552,21.118180350883335,27.130004100754014,34.96569137372471,28.332753602466795,21.19329021583703,19.61564138188165,9.627343111708985,3.1804370898586605,15.504012959556619,26.331433108144616,24.568057372638183,24.372813522330926,20.929456494680707,7.484534654629916,4.722534510113706,15.477665574606366,15.62436685990031,7.804596712080449,8.178395784641799,6.898233457672016,1.5299477256132687,7.3424064499038595,12.688063436870321,0.7816080358873867,-9.102309921853122,-4.878022574837328,-3.138117718119705,-3.2831186805020005,2.2476145948850235,-3.936376218490362,-22.920984742998684,-28.97060351684821,-22.404178115359827,-17.648759591631208,-6.939496786023749,5.950346277844868,0.9259298138627243,-10.840972371281575,-9.118191383690855,-6.2623110801260635,-10.191249246374323,-9.121449746416207,-10.71449562826702,-22.801201305556187,-23.97441260525698,-10.795979083225873,-8.616383285519149,-16.409608339995224,-19.288433083905637,-25.70041562826161,-32.124268328534214,-19.28453848373566,-1.804226937689232,-3.4698229949383563,-11.97491687935705,-16.935796739376432,-27.482421139325496,-31.927223772711667,-18.742858338438623,-11.329690952381272,-20.416861447093524,-26.541578721441848,-29.200577927412816,-36.09157152418902,-31.75786528911607,-16.562676312081685,-14.62027568853422,-22.716797927178234,-24.29157604596825,-28.012623262334287,-34.75698366507549,-28.429737855967986,-20.0860510733619,-26.668935223278226,-31.969150409533736,-27.056749733303327,-26.099356269167973,-23.728464097728253,-11.59371072026691,-8.445160492371313,-17.68424328147106,-18.138188666352026,-13.016541300697584,-14.631149042283724,-10.399337704242896,-1.093883310999125,-7.827406108130486,-22.040792078751675,-24.15222783878368,-24.089457038536064,-25.239675420218173,-13.957025001555738,-4.315535253016855,-14.554510408810465,-26.559389320511812,-28.305601878818806,-31.08542693892698,-27.487686292550016,-10.405660247421805,-3.4962438740378614,-13.321293882352753,-16.763713194907872,-13.335626860950685,-13.190298098270368,-4.3949124849247765,8.855524035191117,2.9748247729083683,-12.857938379810477,-18.21883458411284,-22.81688012115357,-28.58168936514775,-18.881486926724204,-4.810764129369652,-5.193208385328017,-7.201360009269626,-4.750961971013076,-11.764598202467784,-18.161384541692307,-9.793905326677958,-4.3424525545001105,-8.54336903283686,-5.165613200632738,-0.4044769497629406,-7.464561993919109,-11.832917382950447,-9.971206221339365,-17.978111709901857,-25.891923745076657,-18.4581509970501,-11.07466502531691,-9.92232510719988,-0.5712577464092399,8.473385566751386,4.210438351742597,2.405218304859522,8.064821915821259,4.825763526753697,-1.0725369972962968,2.1582728751974445,1.041289636345701,-4.36096919438835,4.213832733823195,15.919020332800354,13.32890314284391,9.821620111413399,10.51362578107621,2.553186538183157,-3.148609836209184,4.462604954395269,5.158587114434247,-5.574897002311619,-6.540688341138484,-1.8091505218072181,-3.647743594924333,2.3302956130332357,16.260982485377053,17.003207884939126,11.720139258269493,14.553479612075021,11.359825365767957,2.1215396746575577,6.541118145049635,15.594999263724285,14.587202252612549,16.980255287845754,23.360401743730673,16.43460122983171,6.001460901243618,5.737620982555478,1.0613950324121695,-9.32627620906402,-7.128385202303809,-0.244939360369683,-1.505590627755649,3.0394736461636627,12.0725414772977,5.706567785780109,-4.373937222343806,-0.6391411765123709,1.7598144086674745,-0.8814101761861608,7.15184037276129,13.773406169450626,6.438502143229556,5.8541032868123875,15.879023302328465,16.259447461806698,14.144305566844553,21.494757253328714,20.77541424771585,9.369909292266058,7.80932674164709,10.830421894558267,5.8557567413970215,6.451235781250623,12.12376580311249,3.5385587076663167,-8.553767646081042,-7.081045769471943,-5.9020773849624835,-8.786209067610699,-1.3319896836106557,5.459078073669836,-0.7986601563581504,-1.8316979476777422,6.82788438399696,6.967481545059975,4.3535399999919635,9.542868739511752,6.943516575487582,-2.8420132701978824,1.429443477642213,11.368241197893072,10.874419757319487,12.349230059496902,16.521983001378228,7.458351514695663,-1.9386010943241316,3.30844729770738,6.180427730368166,2.2291049452322365,7.2041928630350025,11.67940775192921,4.304949650454829,3.2613176715250316,10.611062770834312,5.850570880393985,-3.2882188754510664,-1.3808121651986578,-0.8180177266595362,-3.1951623726436114,5.46296895376509,11.588394378370708,1.8384578604314705,-3.099429538076159,3.941221749756443,5.175232047262382,5.008879846514976,11.760852898467764,8.973549222404484,-1.5861630972433352,1.7907726606543348,10.197686828950724,7.423846234826357,6.393415016886942,8.876669955286948,-1.4624737518449686,-13.537099833966018,-11.995430890853651,-11.84567525150735,-16.2189527352879,-7.481535927930116,5.83259415044954,9.068631789333311,15.79072374360032,26.493603738985488,21.44284563340101,9.339584095472109,6.816997743276659,2.6645213840336113,-3.8708186539872225,2.6891837694417,10.323648543562953,4.392784037999775,0.7821870131077391,3.785800457836904,-1.1580626907258313,-4.877185659506048,2.5315317311001615,3.427597165530581,-3.6695055650359505,-0.9549664670351969,2.6637325795939804,-3.1030960312220532,0.0823382340282035,13.011824012681,14.811433318800427,11.508726104537594,13.552230666734363,5.706922458890494,-9.04679202393677,-7.75217482106766,1.0897459086417962,0.8155700050913142,3.0571301245982174,7.887486142662984,-0.8821712387171523,-11.181177645944492,-8.835060245174512,-10.131291262470688,-17.57986427377701,-13.142268025989509,-5.161981065277897,-7.066896930140794,-4.541554537456372,3.5496863527725093,0.4629147331861043,-2.9682453581257433,5.510783075623985,7.040896274293272,-1.8715750910975615,-1.9935272840209397,1.446782118897514,-0.37906317945567536,8.024810962979139,22.643880896286888,19.87210966118547,7.7137289246661815,2.295184930259918,-6.703556008836492,-16.308575374919393,-8.543863832496054,3.1300814518939615,1.5484041283792813,0.8565325402017081,3.277600450361243,-6.482579611286274,-16.166915220330193,-11.905408190587393,-10.800570212889255,-16.75720665367221,-13.166599676514945,-7.3338787984024965,-9.258338504919056,-3.909330147881253,6.4728199534251125,2.004965392033144,-6.6652072824085336,-3.7930619529199374,-2.4230589782737244,-4.240278576196901,3.8864335154855936,9.351185958287251,2.0138526167411714,0.5399571321764267,6.122469556157596,1.0228798908344046,-5.871096442522154,-3.937803889955261,-8.691322308843972,-18.578785181314714,-14.740648510944233,-6.954156390584617,-7.8518506963586,-3.0180964628668057,6.773146261689555,4.185502384540959,0.4589388858239274,8.113703153779559,9.871427381525237,3.4453881366109727,5.246953668723963,6.187864807085132,-2.604121152624994,-2.456741012617157,7.568778213353475,7.9545161031974,4.631910116055002,6.320480681489052,-2.022486067101402,-16.36188382397347,-15.73945850320047,-9.829050897317124,-11.434700468946016,-6.005695193057473,4.625385266784317,2.2070343695370975,-1.9018249447945057,4.4411797404740225,4.141132973044353,-3.317004985453224,-0.9887099062156599,0.008759285883946005,-10.510447144897357,-13.001362120560426,-5.6136369277676925,-6.503579280093852,-7.152457901784191,1.5115379692463984,0.6884283317297235,-10.09374133591449,-11.255814472646293,-10.177364754539006,-15.813260480137552,-11.057839011874602,1.507682984778743,0.21327736323922686,-6.5164657514528175,-5.404484494422794,-8.591240718016335,-12.468790014490375,-0.21676301050090085,12.660082309343736,10.139653660181084,7.972070064475263,9.307808718451763,2.6453606146596487,0.8219022253260096,10.773956214040524,12.048548587653503,4.7616860254269975,7.265776462605334,10.772743278576321,4.827230681174165,3.1519199349473666,4.50699639367914,-4.286521890898392,-9.949400012526677,-3.2130800029892175,-2.702437152848343,-8.805250259304415,-3.9418859502865646,2.4931414937731646,-0.036820332352418994,3.443048585409903,10.31674458297989,3.5674074331680665,-2.675592091819219,4.639181634769319,6.818716054781223,1.8563223961490012,6.365814760350264,8.478725008068977,-3.1312535328673317,-8.267972187602423,-2.644620233270582,-3.1881981441415657,-2.266406327806749,8.331809197102398,9.337828146856905,0.13635781398467994,1.4750526513738773,6.121094481150384,2.562738806958066,6.125390264356595,15.5606579852485,12.208170247805732,6.0628630558256695,7.871269310154501,1.0212292224139543,-12.404797795707236,-11.766280621019998,-5.985170044378831,-8.20390684157188,-4.270664791661067,5.513449606659174,3.4306914810933624,-1.2356742801030578,2.4441271364113955,-1.9045418380215005,-13.625971191752765,-12.895215647147069,-7.095289326977987,-7.693720091536069,-1.7904347770891578,8.031378145258051,4.340994166984995,-2.0153761980758405,0.8477816355205907,-1.7157834090967452,-7.488758350334555,1.0656829861536963,11.451102444005581,9.194582134692723,7.787128214424893,7.449496780010782,-4.995890935977943,-14.963761141177454,-9.60695790250061,-5.358103168984201,-3.9558314790830296,7.98512285074214,16.705644335751867,9.270880732433039,2.641200449088604,1.4437068765539776,-6.077594973195654,-8.21473605904781,2.9013948694501233,5.432474881518064,-3.835836267549005,-6.0903526693883965,-7.285555094643591,-14.705070668253098,-10.85027392501552,2.277615543275016,4.04554198194257,1.584718142881726,5.024516813773886,0.5796778575410961,-7.784920429254306,-1.6588775825090964,6.629767629786423,3.3833008490038847,3.2211473215298425,7.107516959225946,2.0558852463170894,-0.03876475432018342,7.782345719978422,5.754516070444422,-4.357290814696118,-2.4189728376803465,3.2301446688374287,2.0397830561402452,6.122342407518048,10.529105359524662,0.6356914842152319,-7.460853653258468,-1.1896980084833437,1.6730439148461325,-1.221897890743843,3.987377186358689,6.697234881184501,-0.1140841903122376,2.378010560721176,12.378084935716654,10.809948575300274,7.432706442638379,12.130967655706778,7.739013326960552,-3.9332653016823973,-3.7329085164085205,-1.647565139889754,-8.13334604564624,-7.270685327782694,-1.8123446960439185,-9.168890712708798,-16.18758430754254,-10.333316951490358,-8.264093344830892,-11.682151367928071,-6.522519124838993,-2.9452974113320343,-7.530784973662542,-2.191250947973995,9.610974536591469,7.401260439406431,-0.07674686642163175,-0.9284994412882622,-5.807715683639987,-9.372020500365025,2.9998005852737926,14.184350655667313,9.737737494788636,6.8375678220952825,7.707924515574002,-1.3901180025535225,-7.263399295610556,-0.5266863190438342,-0.9494545867867301,-8.413820695485835,-5.373691617591052,-2.728029778660371,-9.487011970994658,-7.113579683858921,3.7315693512308172,4.015615904832686,0.923413407367291,2.6662521093216993,-4.9933188248216345,-15.318652607475045,-6.7621140005845515,8.601382742815478,14.420742760293113,20.432653122227702,21.637107982711512,4.338718449508594,-11.749064109907485,-10.921523930518696,-10.354815374056102,-12.747143300082282,-6.742779777157478,-5.996891468123634,-16.4389800177013,-15.330583300774952,-2.4126928102107144,1.1751867796314732,0.019514548911473084,1.9686165091563934,-4.724164089595162,-12.024127532208654,-1.5139266180724853,10.468779661694303,6.858977729820289,2.3644515468459057,1.3503389719025198,-4.6248968265573005,-1.9971345275759456,12.923530161327824,16.154425725880078,7.75583814056332,7.527757475739399,8.268125930476097,2.273883776359393,4.005504681219359,9.075925979831728,2.2854646738851776,-1.1823632045215862,9.604718942195168,15.641032177815722,16.59403245157433,31.166788786744295,52.30307189651441,72.41718816879101,106.6270404181594,147.60482526908987,171.1289802840211,185.0586597768265,199.52234128547573,197.6632441748036,181.40518362255568,170.75780918696637,158.679622746351,138.6362397416462,128.75500820775108,124.95670139335581,105.38940640608868,78.7503890828522,55.39035567407886,21.239850149554144,-16.381754831857293,-36.026556221296445,-50.352627632231076,-73.16768924784986,-90.78154361578748,-105.66756931398061,-130.5052049094763,-148.05491178230835,-148.59735185513938,-153.78812775025514,-166.04823441858667,-170.2634522073731,-175.51479437953788,-186.63087621250523,-185.90131005880755,-178.1719201123864,-181.7646069996204,-184.70895600916825,-176.70027114014283,-174.21174659362555,-176.85526126433786,-170.5871443841487,-167.17238532956907,-172.10626824732375,-163.49729862830773,-143.02115632066136,-131.80960988266443,-122.34177772276769,-107.59647270121667,-104.36560491208783,-107.24565309296057,-96.6577029921494,-84.10143146718622,-80.3966364701499,-70.0551291475538,-55.16973463113607,-52.785799139053765,-51.89224786383717,-40.887539880700416,-34.35271334895969,-31.095875259646398,-16.252174248497187,-4.00825252581909,-6.5257615579117525,-5.721604365672363,1.5944117040474524,2.864837762537188,8.823197994715152,23.56919544984787,25.53711453922318,17.192971403741055,20.000443628599044,27.693207694756158,32.70504428586326,46.83491576353831,59.56801992383251,52.237110785654664,43.32591431591774,49.43913794580217,55.483752673643295,59.86716677009053,71.38428878268547,73.3932243208099,61.533550739698065,61.46484007168911,72.8511505251177,74.25149144851915,72.98805331536519,77.00221997010405,71.72671038498737,64.5071697916838,74.08206906721117,85.33714303363219,84.46601406355421,85.29809248687187,85.49240786893411,73.41195939337061,66.97093652263355,76.73962678784669,83.51032345826268,84.6847995244912,89.37091500865532,83.61373784426351,65.57328440550808,60.23090595286947,67.68266378218419,69.45204640520625,71.76878762843714,76.82168968964598,66.98194515699032,51.59876318178296,52.364825962813654,56.29119518507733,51.98487280840041,54.5324018010082,59.73097884123906,52.1488296931998,46.11651932018369,50.24233962906186,47.18128462452398,41.30424710419945,48.548795257129875,53.893674205180446,47.8436853035699,48.73976610627293,55.020776903904945,51.61568416836556,49.61095212272464,53.20654469577897,43.50710096367092,26.412849250129078,22.55474478658277,23.41997047043168,20.52990495441696,25.384705840521125,28.950571269468355,14.493740156728332,-0.2607171247719573,-0.18757691447081637,0.3913214368610394,2.0889201292881823,16.20114316111615,26.60062230283508,24.021625915829976,26.330254182313205,30.53316248898264,20.137264327953055,9.45857472741166,10.457765348003928,6.481393278234055,-2.798779872245771,-2.981110887868471,-3.958402587629052,-11.340104757116052,-8.353742347150629,0.11700285367776919,-3.8517094038048225,-9.174830866806323,-6.082912251531125,-8.570613074281203,-13.306218977496677,-6.231315593126,-0.3339403106430028,-3.5062582376158034,0.4059113719772256,6.024514084296379,-3.5459364268165703,-12.858983281567735,-10.304916587149268,-13.573190408968888,-21.512159057584313,-18.982623031450355,-18.941216962826516,-28.28064498662185,-27.01861457473736,-18.291800292280502,-20.94702859905495,-24.304315001972974,-20.874024794515677,-27.672654653030097,-39.05959001467614,-36.02862427315379,-29.805869587731493,-29.113171354478105,-20.4513281497423,-12.050995283673135,-20.895226363539024,-31.29874341332995,-31.64452839446369,-36.748359690275834,-42.336170005677324,-32.99084560191689,-23.838454217483694,-26.911214911485143,-27.75119899199505,-28.645140152632614,-40.02258770728727,-42.3240690913303,-26.026675491680052,-15.20265497387393,-16.48174429640714,-18.90446423580737,-29.869117482680778,-45.129217772809085,-39.6438392129449,-20.44028366579159,-13.242546017698004,-12.566385018125343,-11.5303663381452,-22.728966875792462,-36.570972432783414,-34.70638370704076,-30.755119937255095,-34.02367235163965,-28.509812537701805,-19.54384145021577,-25.778461493339133,-34.27424569287334,-31.602293970195717,-31.027168813473107,-31.70846444569282,-22.388658334501628,-17.663459191785076,-24.155703505546477,-21.65715982240524,-12.42290405091207,-15.005865551726696,-19.86467854591727,-17.960299816290547,-21.370027085345846,-23.569639601772522,-11.872286163224135,-4.211219133558143,-10.561729251718768,-13.086467402960627,-12.66905474311795,-21.495452384608527,-26.237999656182915,-21.048814981230265,-22.600195371576252,-26.128580884577794,-17.650350216898712,-11.951966613714557,-17.810900505482135,-18.242013033564763,-13.282092376140593,-14.146461618908306,-9.61224674560983,1.5006849553655135,-2.629856470445596,-16.381256634404913,-16.516650266143238,-10.54107708721402,-8.349992669880965,0.5071084125125904,7.022885681084008,-3.870585320067489,-13.474224718709124,-9.611296434367596,-10.306751359300026,-15.130090675314046,-9.892783434590903,-6.422435875803094,-10.452885445362867,-4.352559022029812,5.987139394707187,1.8285639357589079,-5.0612607602528,-5.412240600316867,-13.161832234386809,-20.642277004462215,-10.168927111726997,2.5796597242156505,5.299665340328604,12.389401220619693,18.061684159751792,6.584683619812363,-4.2314894935403755,-0.8634241034589905,1.3423650346469083,4.160716687161026,17.56270813894102,21.46895729742303,6.843288072759,-2.6090750601035815,-2.3336800861179086,-4.041299971744579,1.9703736726491008,14.654098916388152,10.372445547959675,-5.444060804983025,-10.225947008198888,-10.017462835290896,-9.228722758920256,5.5522701086803785,22.23267041287299,20.23217952697422,13.254723428263153,11.35806600690675,0.7465530852926827,-10.31066509055836,-4.782526899964119,2.6042134579937075,2.8722141087152164,10.75381819567369,19.017832822363527,12.105633021281438,5.7947926707782855,9.50225655376386,6.533745475631774,0.1484302562835227,5.20324790718349,9.19337633722597,5.128287855220212,9.37272998761132,16.20728493648748,9.052206011534485,2.5639190816451056,6.859834944838394,6.019416713303313,3.8670794660451135,13.7786149822837,19.367112619171774,11.989101295421218,9.84507363661507,11.53877231886026,5.265637534372623,5.3637452219969735,16.744924149112038,18.463652332959448,12.07052895359514,13.86780352793644,13.869917916086887,6.697119244382137,8.62029280482716,13.472608920918667,6.0037476551421864,1.7784063680803315,8.619516614632701,7.552772066149579,1.5923018922901575,5.7242122788067675,7.415128571264864,2.458771264438635,9.313195299565802,20.227049625143675,16.64434388583662,12.058834134891478,14.257397170331757,7.41734948462163,-1.4713476496739912,3.365247265629097,7.8488374619424945,5.901921678711866,14.620901848577322,26.349737966364994,22.459923049003123,15.411634601122067,13.9197990371511,4.8928845005468915,-2.548493102012018,8.183646315118944,19.93801120238719,20.339846088543343,23.678215037169213,25.506955867961643,13.154907568687099,4.129042522886897,7.990770915619533,7.24729856110036,4.22836954336281,11.572415216000769,14.540855983275506,6.670970502468852,6.336226484568921,10.361279553504673,4.80659759842828,2.919063613850084,10.156712536626632,8.52873651892256,1.7736432728221523,3.34119411212054,-0.29823975702514804,-12.437197305642444,-10.826252469607809,2.0242031734739134,7.583063242870539,12.71716305288695,19.068088805202027,9.82208734334912,-4.478071635373272,-2.992040898675508,1.8287566890110996,0.5346824418409148,7.093627629637198,15.338893892704865,9.934037170066699,4.354396495705471,5.709801822247905,-1.7893240197921063,-11.101927447894862,-6.338254745270008,-2.283145177549464,-5.780488003720413,0.2265802067438938,9.034683386305238,4.66538225637632,0.43584218336571456,2.048144772924084,-5.694873562950741,-13.28252548911054,-4.400549614243721,4.259405873193558,2.210473141051992,3.041280426089595,2.306728058285116,-7.570484419950425,-7.0313069761486835,7.091163145215024,9.790179036141739,1.2592953259332895,-1.842701314871408,-5.467104252484892,-9.093021842295311,2.0753474838361834,13.880178473016175,6.649559131103085,-2.7242182569190168,-1.3957514779205968,-2.6823991062687673,-3.737220012516019,4.6330970169627985,4.639824330778628,-9.524644252947422,-16.341856351357762,-17.151390653627644,-24.751826098853282,-23.97189177889924,-10.24362175172872,-5.032205277722669,-6.727185310784805,-3.3650770785818374,-7.939584418187463,-19.42761648257461,-14.08388175109772,1.6854187557109803,6.40724229760108,6.75598458450014,6.154895289055187,-6.424548262811083,-15.133186925465107,-2.5852503525181865,10.32276074655824,10.676107959098012,13.253704837158304,13.473527961045907,0.6572818522294206,-7.351981876898545,-5.375193293885224,-12.870835996056497,-22.358052405410955,-16.179650643825266,-9.083723668789174,-9.071811864090204,-0.8748981366015478,7.310886079846686,-0.0015348117178159981,-6.8553692762071385,-4.94851859023558,-9.222906330713016,-13.13619249701434,-4.189512536187149,0.9449195178040767,-3.671356360853864,-0.12323332785317875,5.889328155581364,-0.06242763769827242,-4.341913161439027,-2.224622449982079,-9.080327839236416,-15.794620417528701,-9.043575367011739,-6.994342886228793,-15.12642611208437,-13.216719925453805,-5.877136895349058,-8.057424773446872,-8.375266574326695,-4.90967775520638,-13.195014430884427,-21.281128250635895,-11.926397425780525,-2.307657354617886,-3.2118999088526596,-0.2760637137397388,1.4462706612894327,-9.468235997964058,-15.206075256725871,-8.764037493968273,-7.6382358472217415,-6.597341786467998,5.261149412578842,9.767949069155117,1.3614735288374278,-1.5318515617999005,-3.250517273155421,-14.058543050610123,-16.342597222525526,-5.70327619941064,-2.3566854164549143,-3.015753921436372,3.618445104276888,3.007726433876767,-5.298811930967439,-0.6076514903051078,8.43275111470593,4.779980729921584,3.979467371632641,13.35698580530512,16.315791543264144,16.82972381144474,23.25378427231718,17.82080689814387,1.1990028808049695,-0.15081192909972763,10.062434038532498,13.087520187973457,16.150078155134235,18.912951806742548,5.9236761016647455,-8.92793471355089,-7.198385345463857,-5.576667859118258,-12.472624099997656,-11.125990209728794,-5.979548941540047,-8.681306116003084,-4.7792056076605505,6.156302327792197,2.979523348406633,-5.655259629907227,-1.4054909486344034,1.9320538666548306,-2.431303372949315,0.45451543402287164,3.103079639455538,-6.292197637727792,-9.963708743181805,-2.953621671717897,-4.381033230022368,-9.209855483214714,-4.619216827172826,-4.680780978837598,-11.412962558945937,-5.757869363552665,5.625806529533914,7.044575834013473,8.09263392061269,8.65366274757897,-6.699147572643717,-23.60850565364697,-21.138488431463344,-12.10073419178519,-4.809296675456462,10.423948559430332,20.15837387070106,10.052845204854917,-0.4661675339382283,-2.0593684085100277,-8.666241697068282,-12.02290326477122,-0.658776550295423,6.728202950179346,4.4328010664946955,10.064079606224125,16.830379642365536,11.323136194806239,8.369171983252173,12.408877921551735,7.048597941844452,0.24569821169662953,6.613368193041399,10.504832171698387,4.918165996734298,6.352047588023784,9.928443556825835,3.27563312913587,1.0200632579418223,7.961498860588804,6.131711490159523,-0.9545657226123878,-1.2882814046127418,-7.13067442319191,-18.211166845257335,-13.672800126029445,-0.6537936354429146,3.3510531827530134,8.107379296537264,13.692216748217607,3.397603758061215,-9.36918600228287,-5.575116553396672,-0.3884301255832151,-0.5807044595534416,7.592181341380541,12.297886314538895,-0.5855099950285831,-9.707860908393304,-4.786893860179509,-2.8224307835886333,0.3968853241300815,13.749318008384824,17.3329113810718,7.689380849327067,6.70811487314164,8.905506994832916,0.4158935741900365,-3.886261726906845,-0.8204094489325218,-6.137011021126202,-8.806672526081435,3.5174251333115105,10.80031023330448,7.508596513328457,11.501858756097045,15.252021105517882,6.489759328309686,2.137188912236361,6.312973265869809,2.8318933218975495,1.4362063378946175,13.678320792424442,18.200330568338863,8.622734693575115,6.093333587048753,7.916308109613423,2.858028277037301,4.995351956955566,13.801189798898129,9.140258358829056,0.7237553972748745,4.33853790442368,3.667980973658535,-5.876328497915109,-5.6552272406413575,-2.174408266458326,-8.340036370656382,-9.025692815729382,-2.233956876126282,-6.511825144231861,-13.153025417465392,-8.236639093917741,-7.844580346243119,-14.395784157756271,-9.063878189441976,-0.45001022070187213,-2.542409730511235,-1.0751631560637427,5.744097668761367,1.9925436799611422,-2.187959710517823,5.396198998664492,7.606799127767813,1.2363092888135268,3.9597025471238303,7.737038318614396,-0.672305670161133,-6.084223623524069,-4.898427539951161,-13.128577668348777,-20.97296591015773,-13.959107899357532,-8.172826619002905,-8.965135934211805,-0.47909834022473907,8.453203140916044,4.246083887569753,3.4756613911978973,11.026163587475521,9.620788265508441,5.906989980124079,11.457950706795222,11.363320874752771,5.082415170285767,10.96051301667204,18.71910831198191,11.793260508012233,4.008314629381829,1.196763749565608,-8.008504595428311,-12.015773392327691,-1.463495833663469,1.129306332257942,-9.319026539014555,-10.929925912660082,-6.46343320587829,-7.606040601004525,-2.1634986528151434,7.697804339741994,2.2841609992796417,-7.222902693810817,-3.3300394962280384,-0.35880253135315693,-2.2672534052823163,6.546768150546485,14.742884028156757,7.243117538887785,0.4093608433048972,-0.0686002258069982,-7.241396290954621,-10.05086526491009,1.2169847662830975,4.747126141413535,-5.032229758919909,-9.86574087840997,-14.714462604498209,-26.03329040440636,-23.85512832536493,-8.157681322338146,-2.3159952358980362,-2.6491792422991183,1.630046541321648,-2.5777498699726875,-12.262986139027113,-6.707504160803204,3.7971617588224413,1.8804796301110451,0.7082163259845748,3.9502006610804345,-3.6815368936098682,-12.57396937197742,-9.73423783569039,-10.59323542759942,-16.95133234113695,-10.904685320556732,-1.169639948132746,-1.7892078918829581,0.22613891661570373,5.797833753418657,-0.8069780446158301,-8.52030723807807,-2.9354123025815966,1.1693556377082204,-0.22940420052681376,6.8136167474842,11.984960108896308,3.980088342563034,1.2217663138988155,7.34151429500799,3.969694385056472,-2.468622045843441,-1.3985255308440263,-7.913262758515985,-19.877191685880632,-15.708528455135305,-4.382283074531225,-1.8328154993403545,3.858693630870505,11.797623101117471,4.698955065673818,-4.912659425055779,-0.744414353373656,2.2969521290611654,0.8419513098652855,10.353214857442747,20.087860472724145,16.00293183461072,13.030710421351149,14.582302049124156,6.7816933998687725,0.3277546858526865,6.082743546642604,5.552080354079495,-4.817214096103481,-6.908411498184124,-6.197589123175673,-11.654476233295604,-8.156400175276644,2.2629689129162913,0.3489103278504291,-3.7601951281281796,2.913881795374067,3.0820062380747952,-6.8774190765150784,-9.052204975398755,-9.142251326845004,-15.784353311620064,-11.110260176652844,4.869222948435908,9.723978046680244,9.521643631957087,16.97335733818755,16.51956772160157,7.335514827127357,9.036658770889261,13.199158932013683,6.654658352619934,4.300878136666241,6.836165200181072,-2.2937625543235423,-10.677799803019775,-3.7941781924411626,0.4283380206982232,-3.8979746902235073,-1.0662928102125484,1.7344864958937893,-4.828662905634603,-4.043917394697718,3.5427294616407945,-1.634908101335192,-9.466021614263944,-4.28845258873192,0.39581205984468903,2.192882892941524,15.743688322763568,29.975804523775093,34.28636859550592,48.9845435067351,77.78635833822591,102.11930516416552,128.5964715354286,163.6920681659205,184.9121687273713,188.42301710153154,191.60607628270645,186.86587596109885,167.48403027334493,154.77226166500776,151.17100842691468,136.36411256546756,115.02221422912079,96.87534163754559,68.5582139936428,33.709565777810134,12.254537592883878,-6.601836418174295,-36.85492047228351,-60.907536455849055,-73.84712584408105,-92.24296117083418,-110.11742892958085,-119.69976410363014,-137.50829951175405,-159.6993352137746,-163.01510073441997,-157.52441141834174,-161.21682078492478,-163.11666856997718,-164.10214466990266,-179.3560776760296,-192.90270560338425,-188.04708871701897,-180.9986083052475,-175.15141689946807,-158.7316552418655,-148.9103877909128,-157.69987263772506,-160.27933742502395,-148.8021489807482,-140.80486363783717,-131.26094238910304,-115.434646595499,-113.32488709439968,-120.76962134027693,-112.29707009914881,-95.5449059150453,-85.58264678319924,-70.39053395065815,-53.079144371728916,-53.172477126748426,-59.484106887950745,-56.501393053329934,-55.84013319153297,-54.477101438420796,-35.08166351727357,-12.442276271287362,-4.891049452387064,0.1695118434940801,4.460585430357375,-4.583296848915918,-11.106023252517774,-1.3614678920828478,5.589180944083417,6.331175815838744,16.627806187524836,24.731010349855055,19.480293930164855,19.973885290929182,28.448778145481434,28.53498565210726,31.38695835198471,46.90619646073223,54.695528476257124,52.127729717204154,57.047490435080235,60.951666389064854,54.44336070744232,55.49747892926915,64.63650004884492,63.40809423674659,60.788577081646196,67.79056941973694,67.75779749515944,59.970728833759,61.99456383867741,64.80226305866529,58.083453705194565,58.755250655009156,67.17436340084454,65.10668523414134,61.04741796950161,66.10629102720696,66.14346934042995,62.868719401524615,72.4236073098491,81.15719009531294,75.99019791306061,75.36833514031596,81.27190290949473,76.46852462965262,71.26343199570877,74.4172249668623,67.18437468350601,53.27454195012423,54.61416107352666,60.13384335723073,56.268952441167386,58.639003888575346,66.21616441270332,61.09326532876601,54.8875254640713,60.36028516791005,60.89509976250328,54.69308373840586,58.062138745466335,61.131104915468576,52.90482270119507,50.228886968095146,53.8943539922941,46.48639280865248,38.68081756735298,42.524533617874425,40.290804792088146,30.18389818451606,29.835250511967363,30.549101251744737,23.722032256601906,27.197651340079915,37.98315407786357,34.476996975922646,26.102664999564624,25.777591972482497,19.4603643812719,9.231659556085674,12.780374349914888,19.088494987050485,15.80499613518036,16.61836013811217,18.840687753494223,5.8569283705687925,-7.970509337961772,-7.55453263566041,-8.020125425116087,-10.019321666718263,1.5101931174498366,12.92999059662378,10.287470851242674,8.536286475411165,8.371183584154027,-3.4612536321519247,-10.75290275068247,0.3910096490880157,9.453241690020084,8.647762817332065,10.24738666426712,5.3170331748922095,-10.40258315039602,-13.368104884285362,-2.277542137699626,0.5690130452942963,-1.313053260941445,0.007343023974877072,-8.980987887123256,-22.087290301411667,-18.1490868160008,-8.579198586504091,-9.004913316063941,-7.616640267162502,-5.9310933336006695,-17.923806578636036,-28.38049239661706,-24.223987959182598,-22.74333680364773,-25.88629115052924,-18.998347719613967,-13.315429699607293,-18.003985262121386,-15.478629433077366,