-19.071483253682942,-6.676437238503883,2.3118641987478483,-0.6390176718704907,0.12411489404259202,3.028356427051836,-5.070809906623824,-12.739933741326746,-10.609655906790884,-10.355930085913718,-10.113936796629975,-0.7382631547657752,4.438860750383003,-0.6831584867613274,0.0759515867148477,4.490417339960871,-1.7461082952075184,-9.481300617333902,-10.992600389590203,-16.252360709036143,-20.41184439844661,-13.944978121896778,-11.222835990797115,-17.934807264029136,-16.229005143742775,-7.30653294810769,-6.812671399402283,-8.50969716192626,-7.508586580926659,-14.931501270524787,-22.03107234115719,-13.15789980427712,-3.565361023501742,-7.416128391006435,-14.03924771443832,-23.002015594143394,-38.977843860394614,-43.19097922152389,-27.20664653865653,-11.755326555134857,-3.8992713415757247,3.1573438264341407,-0.9695370943309709,-16.961723693205823,-23.415857208755455,-20.181485671384536,-21.014440628375176,-17.444628700884437,-6.777909707936754,-5.944035428825757,-10.933769842836217,-6.745385504518108,-3.2689217327529017,-7.150719590355742,-6.0694661714348275,-5.264661064019353,-15.951296970957436,-22.179372491520198,-15.283323967626046,-12.539483683560682,-15.114318678496414,-11.789121272335205,-12.112752960783077,-20.301365740426807,-21.084601024161735,-18.60867384109298,-27.75421771649779,-36.20085441422454,-32.135511740897556,-27.102222323482458,-20.8444121888055,-5.624162683651539,2.2064278473103887,-6.997062941256358,-15.613778109286734,-18.309168557610118,-22.623607970239206,-19.29116412055809,-7.182443225381046,-5.955676344587816,-14.100257476899136,-14.344801144570923,-13.087992068060792,-18.015829950179704,-18.2886260003366,-17.082827008476137,-24.451817911104715,-26.3611432821777,-15.405264457920634,-8.098701600663992,-4.424452552959671,6.379599840777752,12.183586346209895,6.684235387516587,5.512730067222597,8.252695338148246,5.455069797994305,8.131699693056396,17.581010176330402,14.994375752235829,4.929116692699781,4.696900182448697,5.654668515393199,0.8811025108374877,2.1802856346127837,4.320332487152608,-3.68296851455656,-7.6482895630528915,-1.8958517443740954,-3.2389820782524334,-8.654397761312238,-4.037275400989957,-0.36961133508970223,-5.815492134758847,-8.443817576897084,-11.90398401657247,-25.12143375353822,-30.843284915374653,-21.045305915804203,-14.679466805033202,-13.90000239166992,-8.7637455149319,-10.568354606346942,-23.42002182541542,-30.843992331464477,-35.60152241927783,-50.06247923442739,-61.325379467348505,-61.88928296176962,-66.7258735810482,-69.54363864081684,-51.38956630709612,-24.218595990433876,-1.8649165244669272,22.203222772408775,38.14763665827805,33.717967803323404,29.753725306287514,39.60105989237026,46.177169739579135,48.355784600699764,59.72951123042203,70.54331095974497,71.44688496853786,72.99661449382165,71.56299747843751,57.32131320917915,48.323321908202004,57.00144670704272,64.69583591448375,64.20221903531365,64.74794078438127,58.77349475343585,44.56519292302541,40.638306521478285,44.27630824594162,38.164910109406996,30.68015253249347,30.349591997855924,24.718845084483124,17.852445984758035,24.44878466032737,31.691391989871995,27.812096733882235,26.323334137408523,26.971263767024414,17.77669332298624,11.404830059228445,16.840429715012977,18.128426969314177,15.878283652339544,23.45849747999146,27.923684278248274,17.882856420912873,7.750245067707801,0.06415774342063996,-13.301882737803998,-18.083168024702175,-6.815996405042262,-0.14241057372471733,-3.3904515498521075,-3.6056279886811105,-6.359563252819887,-15.490841628002038,-16.318942960382792,-13.165989532808153,-22.28605491835706,-32.12693437206217,-29.324621620000634,-24.54968099977087,-19.851861583372404,-9.340081996701132,-7.885377656730335,-22.015168414175328,-31.63809146720848,-32.9659506560807,-37.67064074154318,-36.894418603252404,-26.659424929678618,-25.16491320988707,-31.54669810438981,-30.392177784323422,-29.965046822476804,-36.16721074265143,-33.973043010880936,-28.13661477025478,-34.82342658008957,-41.321585254760116,-36.453890079331664,-33.336652130908355,-30.572940047948947,-17.335728013538144,-7.936367523301918,-12.013942333582841,-13.952340124230423,-12.61366536754359,-18.067039464852332,-18.00089577018761,-6.220043060277983,0.41365424247589055,1.8367420903699418,9.000455212280256,10.509490598800582,1.1551878954510908,-1.5562003171351495,2.8126932528341824,3.36678465517787,10.026701115867661,24.08026085719773,26.157908298442983,19.330507623333585,19.49459144472305,17.56671162864483,7.827219929817627,6.001816545090942,9.673506564612053,5.5186226371564615,4.834801393589967,12.338308405853992,10.022736473857483,1.621350214464774,4.178837068150449,8.34647103908465,6.039220245546016,8.884136380857722,11.690780888612244,2.4713073449820566,-3.68772827812884,2.324293608256141,3.905816983103887,0.008034238253690873,1.7021420952802735,-0.9487286615453505,-11.554125912847304,-13.286283198806832,-9.1594543562022,-13.983062651220555,-18.325936029068252,-15.237530113749273,-17.487881897629638,-21.70203482736647,-16.304547720279366,-13.122769521574385,-17.997489997674084,-15.82830625335441,-9.622533952036786,-12.719815909737534,-15.19543366352601,-10.926245556174182,-12.53391751596529,-15.16749558054443,-6.294310355141395,0.37593444696471345,-4.786052389874427,-7.499998575828235,-7.854243570745827,-15.618620771790187,-17.091316913908088,-4.439568946233017,5.307485757677619,9.906780112342833,18.850177887176656,21.401559711054492,15.765476318540367,23.112381906634585,41.68644573608054,54.34236434752579,70.47295152035889,99.5642918069339,130.9268010558755,167.51273712061837,214.11390754747933,243.77946575333542,238.24820094282882,217.9389318474293,195.63148552379562,166.96225959259962,144.1562160771801,131.76794858704676,108.94830546331195,75.39104158224919,50.37599995571375,28.26580003533525,-0.43609127378101675,-24.610271181700227,-47.030675622714696,-79.56612267929991,-108.13949066353388,-123.1589841616603,-140.40102021679152,-159.8859138846019,-169.4482401167622,-179.04732146799682,-193.49187847365707,-197.54459784321992,-195.6019506528445,-202.34293903980537,-206.3113427391702,-199.6602557148391,-196.80741840864778,-194.23152728012573,-177.34474501802123,-158.62796377849335,-149.08240187931682,-136.52608036290593,-123.43547695227534,-121.33456186247076,-116.59352191334462,-101.37033947095472,-92.51066153205332,-89.04463938293208,-76.0538161347855,-62.324159031629016,-56.5636284824592,-48.21393005768926,-41.17739037837516,-46.75215057460552,-49.5417280862915,-37.63427203578116,-26.224701517906812,-18.521302834012943,-5.441652391106934,1.9838284568081468,-0.6026237084765076,4.961149177894707,17.248815442975264,21.038104890255937,25.64041425201069,37.53820519218734,41.049999397972,39.02591624620453,47.084895582524844,55.327074618146256,56.146068733880526,62.885374491064994,70.30176139607221,64.0786503699485,57.886953295039575,61.75167445218495,61.38614408043837,57.98174168694331,63.56075318793698,65.95963463707903,57.13698455491957,52.53106856896589,52.433770283833866,47.18353453172082,49.58697008146591,64.06082569508413,70.013600063209,65.84029147474807,66.53549656685458,66.70615411379045,62.43583935790248,66.5813925538719,72.92837750464757,66.46164913186888,59.49053123243149,61.573198100293375,59.62562897167465,55.29319657817223,58.10416524721893,54.81560041832671,41.54691235201726,37.89830456853552,43.41136050859406,43.307452750119076,43.23657406697984,44.91438482019001,35.229598996623935,24.143373981261888,29.787705815315228,39.290614993140906,40.88771871293,46.338637100878984,52.82311955686406,48.812434267943935,46.95826432524336,53.59917921824125,52.3036245902972245.44202217603443,47.45437358302573,47.99850360890601,40.39232787280283,39.79540464587536,42.62512668495067,33.96128891647311,24.903951534340635,24.602814884852876,21.487641156546143,18.077461951349452,23.227155862323713,23.26392359593809,13.210532455123662,11.34241464662833,17.34751348738905,17.175654789370395,17.498479907294996,21.61684855741324,16.846071138552666,11.10086870845604,19.811055705516797,29.246526432787718,28.368876839723626,29.22599993067935,28.482107192356114,15.058733898307462,4.225360594929947,6.008419096469404,5.923683682515633,4.859933643021231,13.26287842902707,16.60544984929416,6.6664572999381875,1.0467644830846612,0.5712682930988765,-6.941136405216899,-11.01046718519644,-6.425332199974816,-9.262321033999093,-15.871158220088299,-11.67922567192496,-8.373350496766609,-13.8732868399395,-12.74233776075129,-6.2784142550241295,-8.007436299320837,-8.309981113963095,-1.5069605049108648,-2.1927258122276805,-5.3155989103191565,3.699436061509676,10.968066635215685,5.449058945228378,0.10048168499162025,-5.850881743500035,-20.29868244382023,-27.860193028816298,-22.524357318472305,-21.449845360408524,-22.86558859929319,-15.5553065383953,-13.06515760734808,-22.552741814233308,-28.145268787320454,-30.399732890532945,-38.68809937097356,-38.85025509301869,-25.70249311617647,-18.4297578006345,-16.90887255359257,-9.68389045136818,-8.771074562864232,-18.09353261164885,-18.77104097674285,-12.239399858563338,-13.623181994287796,-15.556678686712198,-13.19473442493818,-19.527389663677656,-28.56068216325998,-25.166086166738175,-21.58261197967075,-27.738852101505888,-29.52638635121924,-26.57344039071249,-30.493090027098837,-32.69298655576375,-28.41995352174342,-32.2453324055383,-41.005908587306976,-39.744219320634,-37.56899755563644,-42.622168972341974,-41.65654062147115,-35.67981695299955,-36.89675558433008,-36.30043932439226,-29.042688796935018,-29.870303235783567,-35.18982268007649,-30.374175011962706,-25.26724219571675,-28.021392750128236,-27.03802132624738,-26.116104955939672,-35.85362587276355,-40.8367758429441,-32.352284407496995,-27.70901911226045,-27.93041784107865,-22.12784960390884,-21.991515150711074,-32.15942248185622,-35.02687623158618,-32.8278580429315,-38.425955100953715,-38.82907185285576,-27.034545441680088,-20.852795663161906,-21.353194198732034,-17.53623011189214,-19.172319395892515,-28.594979784689652,-27.526048667989688,-18.68080409828518,-18.023604814440116,-17.784963266698803,-12.017534344296518,-13.591340981180956,-17.665280520746535,-10.503777223345654,-4.65759738688253,-8.812671084270868,-8.907140493170898,-7.345068506108614,-16.790275521941794,-25.859708050120393,-25.983371378564996,-28.460928765400244,-28.339755482030988,-13.1421440139436,0.770153849536193,-0.8268664822976346,-5.125219403129338,-9.639906389663041,-19.989995238923036,-20.263153495496486,-5.219707414080453,3.68462648027484,3.532813416786998,7.442854744728595,8.172680606252891,2.943512032670146,7.904890280056251,17.75057775227168,15.450863992231877,10.627235619359812,11.248987399309547,5.192185806766867,-1.3864587769773158,6.914985975191334,16.853457516524266,16.597047391338783,17.52436138308535,16.40558208949998,3.180452021334085,-4.76883091456976,2.3715993902397425,6.456505656400836,6.178306221069984,13.382263272380333,16.562995042467016,9.776273211962398,10.23967080356437,16.37357028558719,13.994940558645988,13.695521078262084,21.518694083508393,20.459519755494576,13.47330240911905,16.61490998695599,19.457534903619706,14.14985619467055,15.326898844854753,20.38354350303106,15.975399411608414,13.10406042966315,17.668919331980483,13.211248785998285,3.592463478524589,6.565544257495831,12.783935526612865,12.413663776577916,16.55733431515435,19.90049255195428,9.679972965669592,1.9462666834814497,7.256741220713717,9.280220885113753,7.409528461684296,12.644553298915739,13.866252499882439,6.833520146164752,8.622470015167973,16.05259809792751,14.106384945014302,12.596813232954323,17.402053562045626,13.562965555087613,5.752497063449382,9.76984434486997,14.448208823945773,10.41842802825549,9.872701262518403,9.569795817334391,-0.4185833680243576,-4.039247381647167,6.43075023531255,11.462467321579497,8.170435021152754,8.231491374264365,3.646382090855223,-7.364814147867346,-6.990254799674359,1.1194330624914137,0.48940655691126933,-0.7938555806194312,3.4263361232481095,-0.03226446979867603,-6.5707243660552335,-0.8838325025824818,7.022748126464328,8.075722319065955,13.311751121533986,17.545006798484717,7.766162624019651,-1.298334700658644,1.5576551555468305,3.129049402743503,4.363015653316907,15.157161408904711,21.816559374973146,16.39920306270662,14.425598622072597,16.158245593800256,11.06118645887487,10.346347640964904,19.0334586173879,19.052502826230064,10.748273377889099,9.814370033296193,10.30893429202235,7.522321570051215,13.272906171252465,19.434818988358945,10.936523973449905,2.548186690177197,5.42163011240352,6.371979623961656,6.005308967225345,12.742724304977552,12.837385532725923,1.7147386729096907,-1.1614993239166824,4.140006452774901,3.531714403913834,5.938818357591444,15.905684942056583,17.0135908506157,11.65769108524608,13.324983683484424,11.74893195669896,1.922643162190564,1.2024445632896499,8.310248592142925,8.224727708613262,8.97428881196087,15.827131583258081,14.294683521382606,9.007924359389577,14.680627517102828,19.4917233958338,14.474586352564028,12.651813238754624,12.328307256266406,3.4160674354237743,-0.35085764581996304,8.756183223096839,13.702369461935472,12.520589988296907,15.5393556204648,13.519971280301515,3.3509679966048536,1.4311333911085844,4.880699001876628,-1.0496105760792913,-6.714993045788642,-3.8066909608010593,-4.946421849598311,-8.446611645879837,-3.834808321518988,-3.1227663010059628,-11.210173183885743,-10.475738391830685,-2.5002184740130224,-2.3426170986425574,-2.8018396342216785,0.7002105361399529,-4.7430974458373205,-12.319888215278551,-5.908585633623725,2.2582788731166517,0.9947451139925121,1.3944331112519741,0.7670506344185881,-8.96587070521442,-9.071378709308709,12.512823077475293,40.689328253793114,71.714803122446,110.8954563187031,144.41657316431798,167.83412407386655,196.808471337299,224.5183685247018,230.9589618569894,221.80347566504,205.57325714179268,177.43023886808737,149.4294362900363,135.3367687794196,117.7893035035379,85.13475926622183,53.78413773207707,27.231955911243983,-2.8823805074096986,-26.1026892573316,-39.76492470414433,-61.44626264081748,-87.51709004412103,-102.36451476402043,-116.26184876007501,-136.57739897866503,-149.39574459517743,-157.94781593929372,-175.76062322888282,-192.81892578927727,-202.72021098608002,-217.86484264112738,-231.84169780226227,-230.02037087887413,-225.6347497608254,-228.48561076975085,-224.95846265167137,-217.49603067409603,-217.99797444681957,-213.3828642798957,-197.16532016588562,-187.1464743175737,-182.0273840288644,-168.6986744732118,-159.71768692452278,-161.30641953944513,-155.44298512574758,-143.3432233064738,-138.10006958258128,-128.6959986987302,-109.60023641896393,-97.423105341736,-91.01608703364987,-77.206851901014,-65.62301876676963,-62.99149792283718,-55.21589390512827,-44.15901353129449,-42.553788503800796,-39.67231757695067,-27.413234479987267,-18.541958847028837,-10.285003192500039,8.614873630463507,23.772078529414422,24.688807505173216,25.57200709593202,27.969693398295583,23.513502599513274,25.56571725246633,41.154803310881945,52.56702483555141,57.79029516893465,67.95672358739911,72.11174336394984,64.40629730425879,63.37134807518959,70.36059258485844,71.3032176982186,73.60124197042404,81.86840309371055,80.5634991947486373.75644427173842,77.59187096759675,81.37592084154994,76.2918783820613,76.4685472162349,80.78678416698152,77.98675942138344,79.28843002545236,89.89156074800381,92.7159086007093,88.6026745786107,91.68991030665707,93.81728610143597,89.22737972225025,90.93667442693024,94.05968555310247,85.60521006022721,79.01610484888643,82.166161798881,79.64043865462126,74.19933458249605,78.88341756067905,81.86711680178425,76.81405441054461,77.76486235018673,79.67718683946532,70.25180755058139,63.4089379638449,65.95983720801469,61.945450129254084,54.20356791932995,56.952134065157985,60.60882251872343,58.616006883826365,63.209501084680916,68.09247635764805,58.76392846234663,48.53605201775443,47.88157379731843,44.54664458148214,40.96030761859691,47.866321320576894,51.74178473333599,44.29054015030172,41.255360391097454,43.02868766847986,37.30042420065271,33.527606160365146,37.848712388878965,35.5258995801667,29.361015058360362,33.569590169509965,36.28095095872369,27.607441827929648,22.735580580050474,23.094158752839675,17.35100019330239,15.71292847075624,22.919246180864356,20.561432210446185,10.879523898233954,12.355751143369977,17.492663032418434,17.104105616815257,21.480634531841474,24.20436478433307,10.852125597212291,-3.342471638630464,-4.04524711780652,-3.126262912867449,-2.1262326105988105,6.631255406845069,8.872130778104403,-2.624691882638019,-9.226955121862806,-8.610921146324522,-14.332352148719373,-19.141589161696512,-16.59632748235186,-18.994822353563947,-22.35155139606389,-13.445346485878051,-5.2863696457752365,-8.915376799700086,-11.304661917450806,-12.410707104311944,-22.058161858743507,-26.92646491467477,-19.73697578505669,-17.591528076676475,-20.606528375256026,-16.50753030962553,-16.0435471756946,-25.07245985863154,-27.349784495832345,-24.276652321323436,-28.23698369817801,-27.96443465367308,-17.653783883906566,-14.314224455605498,-17.632545845896182,-14.781125943335383,-14.704812698694477,-22.363952868285185,-22.990770290435613,-20.002249354633033,-26.77150182394125,-31.13590483919657,-25.397815052573776,-24.950309640404132,-28.192914884024006,-22.949130189386786,-21.01056521236414,-29.65919657529862,-33.61186159398743,-33.34978796866334,-40.336342420042236,-42.157512484247455,-30.943354968091064,-24.2381764761123,-23.796468167338094,-17.5733923816863,-16.331209249562338,-26.283908910390924,-29.538934850394497,-26.21081750733194,-31.233532961040375,-36.16916397645608,-34.85571200859958,-41.41112687255775,-50.316405005529305,-44.86108291590095,-36.49637863165066,-36.53406138483385,-33.66799663253092,-29.913087956353138,-36.20377783425797,-39.45194311016976,-31.955687331903224,-30.794647259360023,-34.84698485717099,-28.339812255350402,-21.350308092827802,-22.92620967074829,-20.145550518175853,-17.111576331527118,-26.401279267234802,-33.173390529256544,-27.84986786309346,-26.258694532760952,-28.613750962825716,-22.96194273514024,-19.843625800479835,-25.986134558825757,-26.47216296451738,-23.010314049840385,-27.993874647527935,-29.280492804939957,-18.829018836304442,-13.164893662800072,-14.130037030686989,-10.641014502652803,-12.125677362609613,-22.151021032168245,-21.886742441055105,-12.71533416447378,-11.929664046024964,-12.968076319380764,-9.751356007851651,-15.17205172954125,-23.450044800397798,-18.816214864557985,-12.684659874643106,-14.884298586154905,-13.116168499639974,-9.61150038475734,-15.133658468046159,-16.04513802559747,-4.180633234519986,3.5250491564563315,4.677746108366143,9.934474427723988,9.557810602996694,-1.5804005287347387,-6.675516667016588,-5.86208250406413,-12.014314126175522,-14.88746129147132,-7.083932968759699,-3.6832546072657215,-3.9573349770843635,4.567314189216579,10.4720798991209,5.7842905292827265,5.46837822049792,8.162106197249217,1.6357475451532641,-1.9694794923609393,4.4038581041347395,4.102203535582252,-1.7747767465687203,1.0470443280777944,2.609472222571722,-4.994916650793902,-7.343244757345676,-5.385138622403836,-11.124225195116681,-11.84895595765836,1.6308600845741683,12.359289424297927,17.15599844200684,26.212280175449113,28.442513981093686,17.620780660492457,11.105251389008702,10.701222465819457,5.659806544752343,6.577815519904854,19.15886348850839,25.42477855196679,22.678009614088687,22.405715623713316,17.088291623548898,4.497837036098402,3.1914619917051903,11.597536486729531,12.649898413019484,12.470598308521112,16.486930319330963,11.516232388679466,3.215565256202934,7.534354609386881,13.532225105035991,11.777688841091322,14.980225949756937,20.230693682454135,14.241358469384913,8.649288235121693,11.616274916394365,8.947887893968993,3.7942213192008962,10.123943112806321,16.601972069108875,14.865195237157934,17.77063729148,21.78387227375284,15.214156745914998,12.12728681637672,20.44958886668932,23.319636618417253,20.69122533338144,23.730232807207376,21.07929630657898,9.497948330374129,8.161419207803915,14.339180939696863,11.731900273274118,9.58395998514242,14.141583102232701,11.010685376923197,5.344252903071018,12.314282139633457,19.29693461022908,16.294440009335805,17.051258000628355,20.176568564938535,13.230948515849825,8.239518161100266,14.669601105604295,17.77013672183636,16.367370318679164,21.874819913213717,24.20007245276086,16.357594583133576,13.792151597279927,16.03869105393744,8.926363281217853,1.5736873939892626,2.8677389113767733,0.6862923946674446,-2.6574592950913543,4.1431012315169795,8.101532782633171,1.5746736504858587,0.6053253439286286,4.116746129334742,-1.725788238940423,-6.687207428289456,-2.4933983214177187,-2.6926844907260032,-5.4082205506428584,0.9497682636764044,3.658512225598547,-3.740606453960395,-2.796869594702167,5.935881605492827,5.837203085877248,3.2591449382597535,4.713201052020049,-0.09157394487786386,-2.1017236380142004,16.729393777004756,44.406531575204944,67.94039216968021,98.01876084647748,132.0428546189898,156.7416621434379,181.7823954773339,210.6422722804919,222.01822297491094,213.4720104910257,201.8583809131603,186.73308545348323,167.31235533212896,155.62227150754646,144.05173298824639,115.01976652939243,78.86423622727698,50.54325686466184,23.210164364472902,-2.8798266737242963,-19.50088189892248,-39.24026802116348,-69.8819999695717,-94.9477154121231,-113.84751736706104,-140.1353925133186,-162.99454894265583,-173.22157269605887,-185.85263852557452,-201.46901097408067,-208.96912473680456,-219.4023188619525,-236.44015348032354,-238.845886292569,-226.22960147619085,-217.9552589058629,-211.93746949808147,-204.09862596259813,-206.0672621405525,-209.4058252767446,-196.0383560009114,-178.30771288695826,-169.27440637230194,-158.04598809168772,-146.2118644521588,-144.97718899046447,-142.13731677425292,-128.61772056586395,-117.85912677625066,-108.71995139283395,-89.43500820224513,-72.44224858556807,-67.35662747516002,-59.69211253556985,-48.573730811453935,-44.94399093584959,-38.49342914671696,-23.508228425872687,-15.591715105944555,-12.267565947590343,1.5649766656524307,15.524169115713493,18.483566098766715,21.431030408450212,23.809524352126488,16.675446904780074,14.513473018287339,26.287532388017492,34.644030110370814,37.50087114533794,48.39766133726281,58.08529469228505,57.08594696108069,57.98694733649948,59.80237513587095,51.49792535377661,46.53873945879906,54.459643601134744,59.90164991279104,62.19366346306193,72.9372450442987,80.12689657331572,74.53847734895108,72.09978474731562,74.74640651154934,69.97274380310463,67.60226643792168,75.11935795141248,75.91641910332001,70.44176435134948,74.65019542516816,78.99764403355844,73.54939887963127,72.98091993527981,77.87239193225966,74.51679373424805,71.66474889979472,77.18780754240802,77.5790777292290374.66813439197136,81.65554813344305,87.00562132186698,80.98155208641955,77.39410444795087,76.02250497348672,65.74060885196555,58.92834511628021,63.63241205060754,64.86341610848191,64.47462133313073,75.16543718349638,83.40628265447128,78.36510759933462,73.80581601056936,69.47993385928709,54.893598163431164,44.03573135483482,46.203658787632406,45.18590295401865,39.64230678438399,41.68611746682744,42.081651599893696,34.98838190821472,35.683634021927816,41.79337098137973,37.475620894168955,30.997100606231626,31.169923522205547,26.573865869733883,20.88380201475723,27.010571543389435,30.79464209082516,21.27836569278341,14.736015694076556,13.847452290842918,7.881805822488902,8.274662338909165,20.833466704911327,25.0439762537155,18.30177695399196,16.72135348580845,14.869403293481131,7.05045719064681,8.144765439618848,15.433380470492146,11.514290693955886,4.735340182032359,6.303036182206731,4.714557296755375,-0.12244038013095393,3.109306371279832,3.385812720698102,-7.1071189067242955,-11.676830250443118,-8.832286869405126,-12.001019689538754,-13.323970112584774,-7.582125160034134,-11.113879983120158,-21.89452889763824,-22.66351370986211,-20.17848608755822,-21.955109227382174,-15.363750474089695,-4.683386444054316,-6.582635611121018,-11.866988753687773,-10.243874916183909,-12.856948619129302,-16.978008559895486,-9.926542911159164,-4.365193258815511,-11.026069211061753,-15.68448092920795,-16.71152190471979,-24.66132997651525,-28.524914350494115,-21.821014292485554,-21.595755832663933,-27.46233144326455,-24.51829514513351,-21.813781645470723,-27.175831965200857,-25.954980923224138,-20.102978891580406,-25.097495742083677,-31.494481475178233,-29.568264771983912,-30.940528397363252,-32.30736346277512,-21.065471330804925,-12.236352237946281,-18.84936196619126,-25.8709270042228,-28.762349040820467,-35.967895508711564,-36.81632327832867,-27.17293637134295,-25.61494693161376,-31.081141055870376,-27.706621885605998,-25.115218563649893,-32.75544125680169,-35.98770547176383,-33.256276010319255,-34.949691063336346,-30.278771191006733,-15.658597998397852,-12.140343158253327,-20.336249027908988,-23.093818254060963,-26.46225803546487,-35.69724160953338,-34.70872214995823,-26.102227438920735,-27.16353959562091,-29.83379489504979,-26.256757287009556,-30.361337648346574,-37.80914987475273,-31.19176936504877,-22.055770837346916,-23.855177304052795,-24.633147322124998,-24.375692901862905,-34.37168201821476,-40.703484983589576,-32.22840669074895,-24.893302425645096,-21.697234152179043,-12.344361678815922,-8.705865828115751,-18.640065056922822,-24.858983373555635,-24.789694884086607,-30.141969126403254,-31.060293011141606,-20.778770671653277,-16.155505063966423,-18.640870556153175,-15.296355708177504,-15.037268282601582,-24.462924239534132,-27.105055519429783,-22.46706322048853,-25.139366671645607,-26.466318005883657,-17.788033129138288,-14.216569102042474,-16.54149993158737,-10.163897269696363,-3.9199383650151267,-7.941613191671599,-9.008295445212324,-7.227398360122664,-15.84574548075038,-23.34910174168222,-17.943547779639466,-13.433065104950952,-12.601895735440092,-4.2712242576621025,1.6530942348034239,-3.6466887911076467,-5.129716234552295,-0.943336262746769,-3.936782055990714,-5.321271258034664,3.11386835721477,6.580492501534319,4.439114511104092,10.02083131058492,13.590274094953939,5.5957327883150105,0.1836285709894978,-1.092860770869506,-9.277674306776712,-11.93082978596098,0.5261405515423263,9.698672000191443,10.480172892882962,14.593927759543895,13.710203624852092,2.6574041740593457,-0.6352246821686844,3.899159525311685,-0.2210418123746618,-5.051870152011247,-0.17043563065291645,2.407189633663907,3.115409242527523,13.47678031021546,20.351508056948994,13.138149231585444,8.288881060758854,9.4159666236059,5.005372438278295,4.881992129977833,16.604694226081566,22.754374817463287,20.455663011841853,22.810710863458365,20.8702618294309,7.729606297339053,1.7236409528442245,5.1047969435474085,2.131153100916137,-0.7302939747913423,5.523626007118466,8.533937981931937,8.780848279063308,19.114723406741437,27.75735985545554,22.516330796511234,17.30091026406905,16.241451577308286,10.073117817864675,8.773853747698722,18.86927325421352,23.046751304932243,18.253426272868282,17.371946610127903,13.773304362205113,3.00751020614895,1.5494111035736777,7.697090163683633,5.32082067973759,2.756685474970995,8.538337895536042,9.494904251241785,6.026556208064449,9.901670862259095,11.52322222990768,4.579243975521893,5.003863416470378,12.336025430067226,10.580458637368029,7.6182280887938845,14.359013468121516,18.720650423132525,19.27653988712694,25.97628875184337,26.064675158462656,12.020212599663399,4.1213202343653705,5.7837710739178805,1.7413827378945217,-0.45943352036940505,7.215557072666828,9.455362462538027,6.165359293078559,11.266336475071814,14.074397225657329,6.05484220585065,3.856209488238169,7.152428868143524,0.5490905706123494,-5.130389955145838,1.6423056404631389,6.948876909630084,8.87166797151144,18.268585462892055,22.883007292024622,13.631786839012708,8.601588283106532,10.961611742985538,6.113566510169274,2.380235191822804,8.80476584986433,9.827473538590565,3.9628299239729317,5.676185000028257,7.1579710405905415,0.7793839329764887,1.446847235234166,7.452212645317994,2.2627187144648095,-4.531338913979289,-1.6419233030945273,-1.4117726177494607,-2.9886430042042362,5.5632606140804075,11.228522494660416,4.695953192625933,2.9657360255990737,6.487740350187768,0.20421448956503907,-5.073974844507398,1.201142361033841,2.893262004815333,-2.153447627758503,0.20381354616301062,1.4343015702089814,-5.894257656563331,-4.641036211984926,4.883127493628397,4.059992834182139,-0.22298760859611755,4.166764894247011,7.361690161929008,10.97509905740739,28.361005705529394,48.81805182918779,62.87280890733286,87.12194100715078,123.4533420263314,155.45977473653224,186.95873989680038,220.41655738305917,236.27866804020528,233.64393532987518,229.29165227835142,217.1984822012114,191.90755939776128,172.1923146553375,159.71066966445883,136.94476469811568,109.45552572621855,86.27834105694838,56.19956910240968,23.715583558614995,4.757062021001832,-13.662113589291993,-46.31128172217883,-80.15785154336778,-109.46780228601064,-140.09038300455606,-159.1974316490677,-161.2279561162551,-167.73628997689983,-184.53628695594995,-197.93053091597665,-212.6862171876938,-232.1025185151637,-237.90856779516267,-231.33862036645908,-231.8688996991599,-233.24692690581998,-226.14932736732612,-224.00985554630577,-224.73186694980956,-212.39349274703522,-197.38521218500966,-190.67673382621376,-178.29825856101456,-161.23058585575444,-156.4660152808851,-155.68751669702442,-146.18537867091638,-138.3408441433666,-132.27152576276097,-115.85471713977346,-100.60677041402994,-97.95333571822397,-92.23967962637559,-79.14529518538582,-71.93905555025017,-64.29048390544308,-49.01399086403676,-40.242677228623386,-37.48946257751051,-25.652348989934097,-13.146220431021954,-9.788273891103643,-1.796504789673508,10.356871566195371,11.22082608863506,11.1293636625565,21.376982982314857,27.140987049309917,26.946264404852457,33.852118795312364,38.227426169530375,33.66310839304595,38.8089588224493,54.826012517729396,63.15983801344099,66.39997105176832,71.86251211345763,69.53966030776004,64.39122617813716,73.11481779783593,85.17183163709768,86.54166383565808,88.21759489116513,91.61475921554515,85.61085523347995,80.98152740601088,86.21315839186559,85.58200943379983,79.28701394732255,83.04645935450756,88.08504198913761,84.19941710305875,83.94816952605697,85.69986350878489,75.31261824814746,65.28490739112345,69.56044364016103,75.259006259713678.30683925213751,87.06834294304304,88.50464477064162,73.43728674671297,62.01695873572555,62.3118360013959,61.189583253072904,62.55558580190425,71.67124907248864,73.09343894648568,67.35780884995127,70.29563896734858,72.5673689272771,63.66413487258748,58.3652138932282,58.72483186934423,52.27737741655376,48.61210355282719,55.81400101238498,58.49083504385076,56.09983176273725,62.14280889111143,66.02654972137452,57.14591186957328,50.06598792994483,47.394840949286234,37.64718593166077,30.82663739070145,35.294764091982785,35.73556483528195,31.586968252934952,36.51779168886013,40.0245231940014,31.924977904224114,26.972478976615825,26.85246027135782,19.683791177078078,15.956203897082457,22.845824660250262,22.629014945468953,14.879284579488775,16.56896636427921,19.72697663914706,13.458161703714637,10.673263469895877,11.467981268169927,2.1511348196192897,-5.216036749312392,2.4987956674485914,8.86320481510594,7.050485054567149,9.02046585757689,7.050691324176185,-6.421692024509275,-13.022947629542395,-9.920460168760533,-14.376851180824488,-19.651670637074453,-14.452019947582217,-12.073184031964118,-15.11366521183281,-11.115400172565739,-9.072223291184002,-17.602702864534336,-20.449780545759808,-15.997915671129716,-20.21424306912379,-25.519834505223628,-20.7300800681872,-17.09863743570566,-14.619516745776055,-2.5032502730644435,5.443151519212216,-2.5695086371775244,-10.514744399054617,-13.56603159524492,-22.661580659312317,-28.993452505020585,-24.837809992062756,-24.70688086249341,-28.0927246936968,-19.972917354547164,-10.461549460809268,-13.226838177499863,-16.843860780348038,-17.807831073518592,-25.877080081569204,-30.59252026496469,-23.399836952653807,-21.932738638804537,-30.104310096069533,-32.388728281184726,-33.32814382486869,-39.43641077461524,-35.599666883063655,-22.49485418377872,-19.09456059305954,-21.84590959666975,-21.988694521402024,-29.99546927422097,-41.177537404284834,-37.772966393845095,-30.335875111155048,-33.068625598233524,-33.22889723744658,-27.396409764490706,-27.885912566996772,-27.050159284431594,-17.015533522924102,-13.563799377457809,-18.470690730231645,-15.938480983837728,-13.709238952419206,-23.41095143472079,-30.087175343831763,-27.719951110222418,-28.4742154010462,-26.388229084974057,-14.861161382812465,-11.050511778150245,-17.719126149139438,-17.901828495345235,-16.31372353223357,-22.478239971876526,-23.055285701168135,-16.72176986058895,-19.224933466786673,-23.842678335851836,-20.050011561269546,-20.847473937809042,-26.964491910618698,-23.55197338487566,-19.664954954866626,-26.51011005561418,-29.936593937681447,-27.454555747854045,-32.139779847261885,-35.23136729832133,-27.202816833491795,-22.029942122200016,-21.254584200280455,-12.623509737809474,-6.883508955863832,-14.447627252862842,-19.936662598989006,-19.791893155619263,-25.66041144170888,-27.997984205434918,-18.77685051299906,-15.006650292586206,-18.830948350859057,-14.582229356188257,-9.664898178811173,-14.371648292849365,-14.74762576265801,-9.131435275659374,-11.629478493438992,-13.27088963635344,-3.6025018642429165,1.694348891760254,-2.0895929700136344,-0.9407704241910408,0.11165957417430705,-7.302853345722537,-8.858458402359652,-2.1550946744142063,-2.9486596923385844,-6.090743192241651,-1.9897189032292784,-2.8746273976403023,-9.159330954561419,-6.1562315230008835,-1.9056581680914504,-7.739985105420674,-11.432254936742003,-10.852875446980304,-17.816534118082842,-22.33265826463171,-14.113122478109387,-8.280814019155672,-8.960231856170902,-4.305460960904647,-2.038799403177474,-9.176395121808598,-9.22097631429765,-0.6194410553293714,-0.08027952685203954,-1.8197629305137732,3.545457295778096,2.2167150370330644,-5.914311662170323,-4.35243618866831,-1.027330145046501,-6.310649125140168,-5.334581800426591,3.0230241328448257,2.3751471878945716,0.27059228037588945,7.925251236656707,11.714509386852011,9.474963687515523,15.029659925349714,18.969874790873618,10.31049077998433,4.8737322192269,7.672834966940545,6.002206056450692,6.502529675783644,16.461243983547988,20.089109501755487,15.835974593892047,19.002269567843477,21.532103791157645,12.633644504152121,6.2269505376872045,4.932765272811922,-3.634935650215028,-9.171405250756637,-0.44743054897346557,7.464393762914472,10.24854780380643,19.995470674457717,26.29957802902996,17.539720834602704,10.390115412750086,11.05897806283967,7.155678743822236,6.627682023962809,17.613224007211937,21.877711328022553,14.726598690347954,12.349781988254776,11.892370707030729,6.294905804991182,8.40791346092768,17.43408169139312,15.888486927745248,9.811068888732288,12.089768912303011,13.117677688325395,11.507966002488052,18.852558348686358,24.924045418204138,18.41271333796,12.994358469632825,12.088431304684006,3.993824297684923,-1.871807629370959,4.932271227519536,10.545142703360826,11.941168387227066,19.84064810720875,22.557774408329188,9.793336071719535,0.10212510162646837,1.3329347837411216,1.4410591909536385,5.3698445369848375,17.708639830615553,20.19967467233267,11.2583939325281,9.578841667509502,10.49407011518148,4.215173055356456,4.533722932200588,12.305895525455865,11.790435288101381,10.592015366542832,18.11385903172722,19.603492181405052,14.065217757324199,16.47234655759935,18.390132957978764,9.770695605748633,5.391995019586395,7.4543287087375845,1.8565903371563317,-3.3078844412764163,1.4490288329544407,2.0482251059805128,-2.441963755407282,2.1518359157871583,6.3241624551034885,-1.0379947059168955,-4.2535691254553,1.5002502264862674,2.0618526483028057,2.6526486532539213,10.041802691633928,7.8223080978093495,-4.100198194279918,-5.524414272187798,-0.7729567275387492,-2.167043861621943,0.43806016044413165,7.464369649280654,5.060382962695394,2.4047162647420217,10.023433054890436,11.690514256712456,3.4578537437583163,1.9136799570022545,4.377888864505055,3.6639109101300638,11.27688462024651,23.11175869040386,20.083852867968247,10.965874550102075,12.508576467243245,16.65503720077008,22.33330374697485,42.17009775350504,65.5229714415851,79.04954770708957,98.00611188966222,129.7724369213389,161.60396383250816,197.25713251553833,238.74923722410006,259.396578484628,248.98927253324138,228.20911388105927,203.1448666624593,173.5974955448421,155.94626491625309,145.49182234287744,117.72930004285408,78.7460127071007,47.21685387246752,18.24950607070429,-8.90815365778449,-25.15765320395751,-43.837812306876415,-77.15451595270515,-106.69918695000382,-122.31966952486262,-136.39395279276866,-147.14381229686433,-149.86291615184945,-159.53207788673112,-176.97592163637484,-185.34864646145513,-190.30336716858397,-202.66583060226782,-209.08089004499448,-206.4014091201765,-209.73204081828464,-212.9347798032389,-205.8093556612797,-203.14200923434697,-207.6200122567256,-202.6168856003216,-193.80548162336652,-191.84258016193667,-183.4863123269584,-167.18435738259018,-159.40163342743182,-153.91925364457398,-138.6446358027556,-126.16337839629709,-121.00224026353713,-110.55218292192463,-100.44757038766448,-97.93082619778932,-87.06700483017178,-65.99340597344685,-54.265403123831916,-50.46513150225566,-43.835718462334505,-43.2349453167978,-47.75106208872805,-41.37813561162628,-31.58640292520844,-31.06462978838879,-26.448687414566784,-13.634164615820403,-7.385744720729328,-1.8049361139098563,13.389157042143736,24.37917104601735,27.871788180366543,37.69294859464091,46.63952581960023,44.78148194677659,46.32147581802217,53.03487708251762,50.341537645848476,47.993773086175864,58.02873763110078,64.8874415375051,62.87223728971074,63.47150698979202,58.84580133778468,43.08129834862443,36.88533187726714,44.63856387306141,47.49504435077472,48.46675617283121,57.2825001508062,61.5201783680834960.74067041218591,70.67325130383524,82.38190306568427,81.99117273386032,82.52993806227327,88.74277495270155,87.61677982067383,86.32006338905589,95.04460366698316,99.40379080445388,95.7585182919796,97.23179086740637,95.26185380014334,79.55135885371175,66.47417394196151,62.23840586006993,54.77148013470975,51.27909742790642,60.47659092831589,65.71400409408744,62.43654584486187,66.17844638552009,71.15797696749617,66.7337585974383,67.60250105723773,77.27945821972816,79.13720304659564,78.60232820858324,86.48817381135456,87.66057652629628,78.545707980855,76.48879315407655,76.46619419393528,66.3381519196509,58.68845738726888,56.818579006083226,46.29901756869698,35.54295768951563,37.33921251805919,36.084293629226636,25.823470465021416,22.754388302737933,23.036465366441636,16.181160753324125,14.617476688125906,19.752662761041908,16.89022854204273,15.206413662978013,26.508858795961636,34.612658512103884,32.96627735710512,35.06926745098703,36.47407920952678,29.377123166682193,27.4311721931624,30.860426180351357,22.80842546192499,10.842047788686443,8.801400412181197,5.879301846324781,-0.4435313947333457,2.174464299814896,3.957141320870322,-7.020536233448248,-15.847093023901747,-16.81077419843045,-22.691186946911998,-26.929276075109485,-19.533237519594135,-14.330380965984814,-13.70856183809356,-3.348174509636043,6.578359620316162,1.2680912471459669,-6.456949616423701,-10.263972806953088,-19.831350392267897,-25.634688970160184,-17.77973874883697,-13.43664654122427,-18.429362056222296,-18.218831198089518,-19.356428649025034,-32.69227410864019,-43.33305864476392,-46.664093301816195,-55.80883588845781,-61.70791355037978,-53.04116651378861,-46.236101665085364,-46.61364485297718,-39.397989092874774,-30.922282295504143,-32.317880519854576,-30.49471874221483,-22.716114687913056,-23.825366844258472,-26.315247487645067,-17.22213579583629,-9.952922242247105,-10.282364290957698,-5.397734657264845,-2.9512990430474293,-14.69150315570371,-24.73416101764018,-25.412947008847148,-28.22025600840035,-26.44987830989557,-14.803037721840488,-14.583905093468353,-30.573478812861712,-43.31339297333593,-51.8834423608605,-59.660701707065535,-52.31719107295919,-34.31226927248581,-27.50504920017532,-27.697349641872332,-23.63140906207493,-25.20605987571355,-30.724868526083814,-24.383706603057803,-15.317549047689422,-16.696229865767215,-14.979695924334123,-6.939272923297421,-8.399881413507483,-12.628577593673647,-7.9179888588418965,-8.428325060287895,-17.37961370332928,-18.870851349667287,-19.768024069667234,-32.558953919122125,-42.00172009446524,-40.78012126909621,-42.79703823941679,-42.355343809095565,-28.483582851730816,-17.593922539698326,-17.579528338972917,-14.430822598713632,-12.450989239294586,-20.554202514404064,-22.46552057660876,-13.230096101275066,-9.397861356077474,-7.348953914683605,2.518829507857828,6.386877118689871,0.6374152240912525,0.3247935130301338,0.4038448794396796,-9.469971335367305,-15.95101935933732,-15.455537118488015,-22.536758774455613,-30.199030109286355,-25.56360335121648,-20.81784115273527,-20.55198298263082,-12.510515574075749,-5.117735132008573,-10.000040522865998,-12.233334404655006,-6.737435298563745,-8.020524715986467,-10.174644013600092,-2.816476748966865,-0.14089893727814373,-5.036305801595991,-1.507356608083445,3.42150802355088,-3.1295918391322872,-8.196255610784585,-7.5264992987412676,-14.014630251545322,-20.245300085647333,-16.24036438411257,-15.822594762125739,-21.865296296746944,-19.796644619279817,-14.809013959459728,-16.86208214049944,-14.868300641175647,-7.728198424934311,-9.196739504935776,-11.392045171047966,-2.664541503208439,3.7600397413721875,3.81439130894121,10.60424128658761,16.287653320775583,9.87455175863775,5.685188860851135,7.39171566889651,1.3267468156489444,-4.0606716736329265,2.792093829155511,6.84743093098359,1.8642182580105577,0.6523877955491633,-0.8874758971928796,-9.31475337634047,-8.882538566667517,3.0207867500001426,8.143268466628209,8.533510382497088,13.986442181431453,13.162364199481086,5.126747407416154,6.476660457655058,11.420707188048128,7.1610669891288135,5.12551398883647,8.046864445505856,1.842744885376729,-4.343817258042389,3.603691260620778,11.682829473935797,13.079080376762878,19.687189582831557,23.294688323618466,13.15042715655343,6.039296144983066,7.8680057155811145,3.8789766582713012,-0.17673754119036955,6.143226681340839,9.176477763504248,6.096174648338671,12.17557746911192,20.539780448474946,18.242890280864685,16.222326249890205,17.16089398166561,9.233139467391041,3.0225814494996666,11.268729826254294,19.03963031805977,19.76790456410827,25.2705751186699,28.343512667794787,19.131047749277872,12.14972704831565,10.488503589331236,-0.08912587100695823,-10.186350557124975,-5.834409985362443,-1.0717567376621946,-2.4694673428756864,2.7706252466974037,8.408583356580383,4.131973947849011,4.47232536438864,12.714832937414974,11.47424969023914,5.322040469067426,7.743464357878771,9.166068788949405,7.563515958218666,16.63928501472504,27.339981125577474,25.146281996278894,22.336325999451073,25.028835283962803,21.926367548505887,20.142964436722238,29.20113795384534,32.664401680084175,24.696933482293154,21.333085631286043,19.03750237898744,8.387091146975887,4.275053692507083,10.830632105823124,14.053834133758567,22.311903471648208,47.50219946735211,75.49233384661423,102.02877393607953,140.7182075340085,182.84756161933615,211.52717538576493,233.3464088031578,248.49914962307122,242.08504819939506,224.32335868649687,213.91927655266934,201.61233631047673,182.12757478712413,166.12136340433915,143.5077601787799,102.78120910916404,62.20694373920432,31.763689362533555,-0.567471035227678,-30.339286690916836,-49.221468398017535,-71.386216441651,-98.86713316225726,-115.94024529835615,-130.61364158204702,-155.76906226274912,-177.08826021656841,-189.51351093181543,-206.91709121964723,-221.38567674754458,-220.0160863568644,-215.34330836244374,-212.56373714713527,-203.77000331715695,-202.11890346262075,-217.63148712205935,-228.93177229544042,-224.1620364434006,-215.00059352318527,-200.3814171914121,-178.59079225811152,-168.19225040707042,-170.30934663895556,-164.54826800207246,-154.4248387436749,-151.75558988645992,-143.98577965514,-128.1894530448618,-119.64024964907574,-112.13415664803625,-95.01478493301514,-82.53775542185622,-78.42166947125675,-65.87677648877798,-48.29756711869459,-38.273819548137055,-27.401059925070733,-15.429465266429812,-17.182402648177064,-23.176012046611326,-17.029956991914105,-8.69724287394202,-2.319736365755456,13.043621558571884,27.173649607953813,27.10513788225932,26.87823028824748,33.08700739621969,34.14894498650497,37.0596880713789,52.573268426367854,65.1033043007402,65.9847835224779,67.24887017435037,64.78455303571427,51.14122419442677,44.520799778687,52.54721136068049,59.374608939669564,66.29415374359309,79.85248892722807,84.53315791367358,77.80759532325506,77.30748052340613,79.74190549243579,75.08841740274514,75.5649978550766,82.85347067012819,80.5845200429519,74.8387133857239,78.362015000963,79.32465423955905,74.96531138027414,79.8977728835075,86.57678440463953,82.53182364079231,80.60052292348158,84.00547008093318,77.79123910408467,68.85559431745045,70.16344567354692,70.36021971734957,66.93153199212458,73.69903297977653,81.69381308600465,76.78704813122775,70.76583882203164,68.07156995948478,57.07781313658679,47.98545409285726,54.70068405683419,63.598083023477685,67.5763211140302,75.81740123425097,78.28658426826814,64.44649603322819,51.98298713847267,50.18020265364288,46.761065448284086,45.124088064415716,52.0722055798464,51.51083293737444540.57574719616781,38.27387675169284,40.842121613359836,34.67240367537826,30.910550075154504,34.20372617727587,31.190567661234866,28.112268512117335,35.23599286616298,37.04894668802437,28.308883979826554,25.722416380858792,26.220474987533546,18.04048891984133,11.930447502930232,11.452702043358753,3.7652561234910635,-3.8849762586877894,0.5853961367930482,4.054757986054713,0.7861165628827402,4.229328699354448,9.161839987619986,4.283947907831399,1.4870118187098536,3.6239901100573384,-3.188832193968381,-10.096134715918964,-3.239473866829373,3.7960585001684057,3.9235059634413005,7.4695673543278875,6.013655857605193,-9.953217817071613,-22.904071920337003,-24.983043499525262,-28.964178316260657,-30.08996074336537,-20.279222893245876,-16.255491937123452,-24.20609242415469,-28.00399951850629,-28.603851815602226,-33.754205656303846,-30.53267518084502,-17.54881918097889,-13.858162256841378,-17.11366616775088,-14.471980211755548,-15.060450652938476,-20.686767262858073,-16.824886388944932,-11.989641380890697,-20.431951526478308,-28.549367469380304,-30.23441558401094,-38.68203759168855,-46.57823013966246,-41.87382028252877,-38.427289600111685,-40.38502960535934,-33.305030205533996,-26.228742155002685,-33.774400198874915,-41.23033193157985,-40.67268567867639,-44.3890186981563,-45.20390370354214,-32.43034943457557,-23.641435689141815,-26.73716480115329,-26.00209859726679,-24.619375480718393,-32.25955967349603,-33.448008431729576,-24.299384183899022,-23.443918212978936,-27.463786175897003,-24.533069849522654,-25.763847366460567,-31.760721092555787,-26.80995574280692,-20.551733630488698,-28.69956703237827,-37.69683575131065,-38.7261156649643,-40.93954177004973,-36.97868007047706,-20.247833984246782,-10.255875574410666,-13.271572277529334,-12.222280115190857,-9.916811235528531,-17.090445252373776,-20.678423486797065,-16.032084249128133,-17.016930821212664,-18.640870848898818,-11.988698619960962,-10.37576262820949,-15.468149690328387,-10.767141028075605,-2.169347730580401,-4.421956573407909,-9.247312838547968,-13.10469981930484,-25.871857022563944,-36.60295275727317,-30.905309055257987,-22.458215298990428,-20.053737085802403,-13.760526713943996,-11.692711720716966,-24.34827752514813,-33.33030015162251,-30.03088959691705,-29.32061159897977,-27.665656471801437,-16.162489509797336,-10.101446474435873,-14.214331667862034,-12.603322207261396,-8.506137791576744,-11.036889622612296,-7.608074372350851,2.2720625822960425,0.8851294143465707,-6.267735300635924,-4.962129066120918,-4.322451236559923,-8.466970254384217,-6.320458568876549,-5.213410145191591,-15.928026896726191,-23.548300524970337,-21.287812930292674,-23.743921971571186,-26.12922036070921,-15.67943402844234,-5.842522354520907,-3.8694180993378513,3.30009696368059,10.111327143554357,5.880684523725489,5.172575918531692,11.96664111417599,8.828264328560326,0.4264627241563419,1.079991029017508,1.1497290148087933,-2.37315727480149,3.3148666887284253,8.4074470862004,-1.5168070104323021,-12.028629073081056,-14.537804541095458,-20.098966228294312,-21.62910977858413,-8.376089551567977,3.4473169950327316,5.9258682327009335,11.325152109195924,13.04686187341689,2.1197093699280565,-3.210414465468305,4.181229567789196,9.105775809338981,14.032316409098923,25.47485871137664,27.985901882399393,19.857524075849355,19.362783460511807,21.59907325021342,13.950415866592273,8.841948642422803,10.693596395988864,5.958536750162155,1.3762972129418456,7.305870745645497,9.37592309680651,5.311256701969232,11.983634102121863,22.665519423496743,23.26003687433931,24.120608042686996,27.452495174687662,19.70084692841386,10.472814286467933,14.331582229183878,18.012061951881996,15.466137735855906,20.362171379729823,25.234734935804944,16.121109200481865,6.7685313269387155,4.079065455315044,-5.181389593445112,-14.173927686961502,-9.457632181283486,-3.7806122901400347,-3.940030566013809,2.177033508785942,7.882970199684532,1.8668975393776042,-0.6826690760229657,6.761178769083346,9.257132018342519,10.20660960249166,18.933624785334096,21.393672803659747,13.658124664098063,11.79321114818666,11.654594313256958,2.5211600819962943,-1.985421020873384,2.6675166377850603,1.5444018267883832,-0.3689893663369236,7.160423852978113,10.428852066402493,5.889481624475958,8.67701112677392,13.677653771698283,9.984581798545516,9.259568338099175,14.235709585623818,11.485214810261686,8.821706908806139,17.70232246573534,22.21494308207969,14.981256605609975,10.089500406140674,5.019075278980739,-7.011981478498955,-11.332477060291126,-5.308802444515154,-5.337446401017344,-6.627321109923869,1.8132638214886767,5.969744614886745,1.3540633814350351,3.660454813728059,8.723733670403256,6.689224221666621,9.907277219613833,19.09937449442745,17.751545663190537,12.600304418468673,16.090287781042015,14.679770656626207,3.783014622174218,0.0031050395135239772,0.473407500129839,-5.819644752644941,-6.858329681828286,-0.010161618474806566,-1.8430232133717086,-6.738232875907181,-2.302117883890028,-2.3943402669651355,-11.584637833360237,-12.53368392821628,-7.905571257319703,-8.782187398356264,-3.7442274309563035,8.338545506498233,9.596550098688615,5.409936236511091,9.704141554084785,11.295081236033464,6.394754268219694,9.44896466772071,13.337358897820003,4.712952533978852,-1.9372510466061277,1.8300274379149037,2.3063819582970213,2.2304816112613213,10.87160454962798,13.849621997464851,6.64425878893011,6.627268457864558,10.45293851716843,5.710708861253854,4.61983933379057,11.880562772023097,12.117896125411272,8.894742091660369,12.959708833464122,12.58257367550879,4.520493906688956,3.6686039759538405,5.325040592899237,-0.7004653243675962,-1.9108935590131657,3.431839390694037,-0.02656250492262968,-3.9560316222137897,7.066881603672148,22.868079724845614,38.9604731073379,66.62637427568437,96.87795646395783,119.70555243873719,154.01678738901765,203.17266789472947,240.1190374547793,258.7690394087191,266.853245601623,252.4214821432704,218.2846103442626,189.23540440792493,163.1765702324533,126.58608849526456,91.97944752822565,63.92283435145531,27.462324172975055,-10.290330416589129,-33.53131289204945,-51.34246383480317,-69.04484650638688,-78.02457405217291,-90.10705845304454,-117.0625640402334,-139.41628972853064,-147.24309984603437,-154.85185540970627,-161.47836735160865,-163.67217331652932,-176.4993817555755,-195.9947679935454,-199.28828268438582,-193.25733894295402,-197.40527166170975,-204.35672089159644,-208.33600850635662,-217.21017986630147,-218.99484822745833,-202.18589347927107,-186.2946101310756,-181.79789122729335,-173.76077997538826,-162.7963888100775,-157.65545312929783,-147.5204389316993,-131.65081894836248,-125.29176093216243,-121.00411336367729,-105.93773671485982,-92.677505159931,-86.24022838088706,-74.55743555137693,-65.0339798211614,-67.31643313098913,-64.97394092892688,-52.847763267584924,-46.28230402879966,-39.53708124404207,-22.334016140197434,-10.65482000952659,-10.027448044502616,-5.068194994248643,-0.10543852928713915,-4.151062380945273,-1.150521132780346,13.651446957230652,22.993998427321625,29.438448015573424,43.169631824319644,51.35319342206338,49.93465025371495,53.88994674271333,58.23585212164045,51.20040312303311,45.8495862671068,48.06652220158513,44.250800419169195,40.35058640333849,49.19839597306804,58.09942552449533,59.41418628677009,63.717551679796415,65.62270631618082,56.97951499326892,54.205350255028605,63.716795704001825,69.04623431892071,71.10284596118635,79.33774604428831,82.61983409005536,78.92723003627889,81.9777142623635,82.92647111550718,70.25161041079939,61.64783031974771,65.47451573460222,67.24661839601501,68.7746873425699,75.79401657661752,73.4239675408326961.274540415045784,57.975155001652254,58.895059176414804,51.72587605119806,48.10816676156304,52.36607990014517,51.99907873190911,53.654639659275,66.77282557002455,75.37647135508615,73.49948259974703,75.01018081166829,75.07127626498814,65.42626678987745,60.29557730062323,60.607382630883855,50.18922446772365,37.650369466593844,38.51860677510215,42.81733647061871,45.001004285682086,53.05302996230454,55.968846854240645,43.43843505550514,33.467738767863715,33.626397253505594,29.237775492207575,24.44721011138998,30.689090711393682,36.49005581334161,36.57593048394379,41.35010476851912,43.01557550713214,31.247952621144208,21.144025566444775,19.6555324365501,13.709366383579038,7.578588672848862,11.569523168363874,13.21389333647216,7.841261017534905,8.774655709019738,11.10646468085209,6.139371412786096,7.870437326693234,17.66042908295203,17.623794992055444,12.272681907763827,13.48729610418988,10.683935832119131,2.8833511150538564,5.330242682278871,11.057403557553574,7.784092638202949,6.516603571350853,8.170951548140513,-2.173334421322092,-15.197166539413502,-15.113384629639857,-12.680459458894072,-12.645939214990689,-3.6127209934070175,4.531897363614101,-1.1744731174907428,-5.937064680132719,-3.6256876645580536,-7.26896577805366,-9.844617222423675,-0.8918458276023213,3.360643817630025,-4.174426272467882,-9.256484126972628,-14.56263052297423,-27.225755055011387,-31.548180077258145,-23.839537080988656,-21.60690468932615,-22.132160521500296,-16.24925624707552,-17.54212575897296,-27.91937327966204,-31.064005525083772,-32.99554669193024,-43.207132924503604,-45.17062085565563,-35.16646274401285,-30.356785890500646,-26.548703007466294,-15.34636943071419,-11.6251842383859,-16.17966680625166,-12.161801906808986,-8.647390806861033,-19.835884680930945,-30.60499034073434,-33.53490330062186,-40.28495195689306,-42.260230532125306,-29.285773864153015,-19.188176929725596,-19.418169256991558,-17.33198013940061,-19.114039324730303,-33.19226756424615,-41.665670138701145,-36.654931777532795,-33.03625071065814,-29.26002739294473,-17.767792050710256,-12.708878399518685,-17.095399345623477,-14.871729449769315,-11.337494454228707,-18.38499259939256,-24.92313780558957,-27.85931614800507,-38.70237829363609,-48.54365773967303,-45.095728689069176,-40.55020628791996,-41.18292148389973,-37.75138820805341,-37.33788240522052,-46.88682297666138,-48.72314219221426,-38.32961478799903,-33.35411572183485,-31.933401208637097,-25.071067548185002,-23.980199262966295,-28.08802369789419,-21.65776326713152,-14.018919651182548,-19.1390591709427,-23.12952312194271,-20.118815687600886,-23.85624726517084,-28.589119284311646,-22.936381631010278,-19.84062963568644,-23.18367956913889,-18.211796902669136,-11.837902160334972,-16.956907226008095,-19.738609996749442,-14.362477639995902,-14.937971670484433,-16.30542258129733,-8.31907756028821,-4.433171521847153,-8.042718503561119,-4.116349723390072,1.9596209351049436,-1.2956295521841925,-2.07502518499496,2.7031740627110175,-0.6897847348054968,-4.522065662222273,2.941100711414996,7.161293607652817,3.1828428555059727,5.407349605986348,8.037966123518792,0.8240329389868877,-2.9000499794700465,-1.3344841766123432,-9.769389397359966,-19.170909081836363,-14.655450088219062,-8.663610079135493,-8.012992879638656,-3.2029305022062866,-3.0575119202641416,-16.09828899935954,-23.33366091015917,-16.56903824524158,-10.039588820717709,-2.6244223486418505,9.966642795039187,12.314788149452822,4.168660352668491,4.199555380342044,7.876392205597837,3.1432650171192336,1.015368134829478,4.1681635496480585,-0.4296065171005852,-4.240987078478852,4.300437781642666,9.737095158912531,6.590382648535362,9.882822531348628,14.099277036834849,7.709885749947589,3.682225714760195,6.262187692511871,2.5552412091070913,0.5280409950849405,11.242753186119142,19.048270540512267,16.892758430819278,18.015794937360194,18.613908919319222,10.716753303611483,8.83378191947703,14.916181506329426,10.844519814547697,2.1126061759991384,3.0660238647074394,3.1993926729816797,-0.6613775649852025,4.938185900014097,11.58881869448542,6.731338254298866,3.9967630358165804,7.715072724100225,3.729732624664126,-0.8139688794502855,6.870117240513087,13.870620117046682,13.792165017726639,17.258699130244803,16.66137017567666,4.123479789368231,-1.0217730689050806,7.826620972845896,13.207837829489684,16.61835071272028,26.48049503965058,29.025919341364123,22.159454897704855,22.533245614674335,24.05943706354335,15.011968297273562,10.240887001348213,15.320881991293486,14.77373336963197,12.47408873474745,18.729688650129646,21.000843887051595,16.185476924499177,18.481252504993872,21.39428995874222,14.124820458772508,10.500824939876594,14.28846621628714,10.358815165847947,4.571188577680143,8.946128398604408,11.944716514674393,10.161258378293162,15.444233172069382,18.181902518656802,6.564644547077977,-2.534445396133015,-0.971330630998428,-2.4782404849211805,-2.5292875747675314,7.581869063822875,11.4726235356083,4.562109628514759,3.465088039276759,4.5593208156996745,-0.7178400439541024,1.7132147784131817,12.702249975166326,14.185718505530637,10.212299006637128,11.465498611793599,7.713483470452928,0.12953826523833722,5.091843452261417,14.55026740069908,13.938888829979465,12.431875523164958,12.114965868578441,2.933275907318744,-2.7936557230493815,5.94062790131767,10.841105557267642,5.725319696095466,5.966119895189502,7.267505285957335,1.74007259462411,3.5266851084076367,12.29626613217597,10.713662850395362,6.055488571864737,9.776059660206391,7.860318093558108,-1.2090225827011625,0.7238997588314358,7.93659864711639,6.954566964905933,7.980668519260783,12.176372661386555,6.815659093835812,4.112025743808358,19.395833882108914,40.1025321665824,60.98241299275571,93.78438890435643,132.26359950374206,165.48739919717588,201.22021004846226,234.7293235442547,243.53579796299067,229.46279087794983,209.463820341937,183.1219116950562,154.927737200558,138.43862755945432,121.0844490088636,85.75581572927626,45.99418429061946,13.119929451760813,-19.559379037171645,-45.39652140542822,-58.58289656435595,-77.04033451393265,-105.87164308736378,-128.9925007882939,-149.09192783186128,-174.47872997937972,-191.0009602935715,-194.78210090289363,-200.26287729424018,-202.7821038087999,-195.2353939825673,-194.37822655758487,-202.80262660447767,-201.536521762537,-193.95458839849752,-192.1041972723024,-185.71082846372252,-173.78491491471647,-171.49097072093576,-170.2076284938063,-155.38103733553544,-141.1269524901108,-135.52566027046325,-125.80271874562787,-117.71991299789437,-121.42116206375938,-119.4988518244016,-104.66116294748414,-93.03946407231476,-81.83746233870136,-62.33805253520569,-49.40158119128685,-45.98961674034299,-36.31749548887227,-28.597329724915546,-35.568014325049084,-39.998144131471605,-32.51186024193913,-25.443249862065933,-14.135090155870287,7.3035070980770085,19.257781971568093,17.032024418075245,19.635930591294724,24.451211871986168,20.775941440848776,21.637568847540525,30.214934203365686,30.23829497447612,26.78900461437251,32.294467112281055,35.57554089978437,34.71570062970785,45.020656788858325,57.93790744783986,58.81025908466792,60.02667972149021,65.71076597822139,62.083115765956194,57.12685645847034,63.02273462030307,66.79438110482913,65.687374593962,73.65772651674574,81.19888615916851,75.38572571517973,72.07504407238785,77.11365355679649,75.02642688787789,71.31529641845606,76.89998761576094,78.76053851985365,74.99378760069428,79.86286124757628,84.300243966143,76.48234247719216,72.03789317419661,76.7056758240746,74.53941779127275,67.49864562850003,65.21578962528031,58.3990836116189348.0011729383323,48.617784503004174,50.98210711088608,42.53342218658665,38.23121206185593,44.13946900680881,45.94104104902184,47.299729766932806,56.03903175725668,57.904987733188214,51.88077543878714,55.02493183782792,60.10962906808639,54.71039859352064,52.44277061763492,55.977784079635136,49.47664570214203,40.16643946520111,40.351475351117614,36.62095159551272,25.678549221810464,23.43666751057337,25.09705015381175,20.560896828658272,22.917725247103384,33.154169217465245,33.06650021958562,27.341302428905987,28.188162279869324,24.890790158741975,16.66612645591492,19.540225058616656,26.664546386895555,24.355899688213157,22.435246879671254,23.33007020927663,14.867890168808067,6.02469416999055,8.602221180523737,8.425961297204847,0.42134420674106643,-1.6328573508463549,-3.140501960167869,-13.650265043412503,-19.791388738515042,-19.026343109080642,-25.141294126970855,-30.184508968159808,-23.516592739455994,-19.622748200544578,-22.17268020470829,-16.812067003302147,-9.574103804712921,-10.667730530437122,-7.9162234799664795,-0.6203203463198879,-4.76276944729285,-12.693324117118745,-10.063477841286307,-7.585695922566033,-9.378333937507204,-4.204290139110229,-1.7883755972039421,-14.111283553828105,-24.997868073102303,-27.271327725153476,-34.684963286896036,-41.25937152477572,-35.3440932760755,-29.761953868838916,-28.350018125255,-18.710624893301777,-10.95032367941252,-18.07278027410471,-24.97889162307825,-24.41970232196318,-27.87426263415233,-28.61492439652905,-17.520330970309686,-10.43179888483655,-12.696186841194397,-10.404264969841572,-9.637762297253298,-20.574136605327944,-28.482505703756544,-28.274013765443005,-33.738755625472365,-39.030835179921596,-33.35689945070542,-29.85868369116078,-32.669110543561814,-28.196209005983203,-23.055723942265864,-28.46659247948959,-31.504199741332748,-28.334541753233047,-31.929363877228607,-34.860472466927554,-26.757811026213368,-21.50444249951114,-22.660882011534007,-17.165855136372794,-12.08757869752384,-16.076365267958376,-14.739738084270996,-8.002549859168651,-13.1790289805729,-22.86023675242915,-23.34177513701725,-23.76475490555238,-24.146746283971734,-13.046079973547904,-4.342049963230696,-12.607815774554076,-21.834552217802536,-23.893994392884125,-29.915291589814395,-32.58718296088393,-22.58663812764317,-15.440831397278478,-15.532234710045538,-9.017886866244968,-3.6613179264032714,-11.684859226510142,-19.326205725206673,-20.71220186113895,-26.87552848228344,-29.194744714644397,-18.18459162945449,-11.518450370568441,-16.09165680108824,-17.206287206755697,-17.33766542716238,-23.43844610738509,-22.032238461275686,-13.79237092323002,-17.628004775239138,-26.56798306091776,-24.912419777499622,-23.06402085415257,-25.06221306739798,-18.44548514457902,-10.920282601971417,-12.665468734796475,-9.382120973775464,0.5875172478237345,0.27248585894311894,-4.113112620734368,-0.03586561490930329,1.8230167171913578,-0.0016345327289788436,7.197853689187256,13.20111326888791,5.514040638557078,-1.142578127894903,-0.8854988249511591,-5.092183140801996,-5.202700177505918,7.605466764110449,15.274345222083866,11.704957959849132,10.595091047402398,6.330847268475164,-8.04593677796229,-14.484965244590619,-7.148326928807817,-0.8111375412571917,6.299603861284315,18.18237253544853,18.830368771390738,8.519876762592189,7.351037807818449,11.044073154688329,6.225494366801508,2.832510409199636,3.571787192322905,-2.5486319264626425,-5.324241813782528,4.261209933346336,8.072390833009425,1.1766957970784935,-0.16245572440273381,1.2553914408828968,-3.1942125393236482,-2.2617241380236948,3.8961958690072467,0.35241496640398484,-3.9918978805757344,4.123218270889766,11.699707847910688,13.773657926504871,21.666158867561048,26.584399030549495,19.312987518030084,16.17003222219141,20.709897406342872,18.327909340563853,15.457167145764853,20.729683350284656,19.406336149557717,9.982398283190676,8.556217266444053,9.025847076889036,1.6207772433712027,0.294340262156793,6.417882419155685,4.166552584755404,1.5915139693778857,10.681073626169837,17.117254461472974,16.087963130578267,20.310215635008078,22.4460262931221,12.855641449984098,7.353399638679625,10.82456992206912,8.449229381225045,5.388943074953524,10.837590164394237,10.393161286363059,1.617535903288597,0.24490398910217004,0.9386375927179985,-5.907737964305185,-7.752696797908177,-3.9543469729440344,-9.914136165426466,-17.168198176740297,-11.63654714559086,-3.765797938752031,3.9151065197986052,21.42950841636703,34.570891648023775,29.009634323273087,20.969203405735115,18.358311306371903,10.82256304873705,6.237476204863996,12.120310031240235,12.13720136261099,4.477272889977387,6.008351118042819,10.082662092281268,4.066957053728501,0.9551154258863835,4.83087843722595,2.2184760465883686,1.2550837617521813,12.144662742197717,17.628335404978234,11.975256426251832,10.70936299365158,9.821638125712017,0.48708532283718453,-2.9906929031273926,2.122431454732236,-0.22879590854342036,-4.320090003707862,1.601472131502082,4.612451913641897,-0.548559015365524,-1.9636467456850637,-5.26689022258393,-17.045093014552453,-20.046942116956213,-10.005743520158958,-4.515819088938784,-3.028804234520458,2.486015943860785,1.5278042341600737,-5.104913330677484,-1.3101739911189922,5.097607075435546,0.3451900383313262,-3.4804287975755472,-1.9498007134641826,-7.263289062196522,-10.438530983618964,-0.39123901547711704,6.706998824094127,5.715772470000351,11.869407042102928,20.605154545216077,24.38442254783498,39.449774421199926,68.0391184074917,93.51634326346242,123.16822214588376,167.73227079569608,208.4188455289535,234.74249437150883,255.35636971621858,260.12562580701916,240.93428614303,219.03891488765547,202.68948989527468,178.2327841708707,152.03978062531257,133.43478164434742,105.97829794930749,65.29534037744351,29.66378111927449,-1.1719291943255712,-34.480514578342294,-57.59052867972481,-71.03218551533196,-92.61366646457557,-115.37437794034483,-125.9659479830653,-135.75742469462128,-147.49398232867733,-149.72234412636624,-153.24549544326624,-170.28839661447668,-187.96487361729447,-202.06157526558871,-220.1055828988034,-228.4884986595683,-217.479200346122,-206.73752286619612,-205.33230241646828,-202.31117411718526,-203.04167199879004,-212.75930325524547,-213.710577566405,-203.07439023151315,-196.83992200943737,-188.3788922998248,-167.70517953749038,-150.09350013051227,-139.78115629488303,-124.12211960138134,-111.9162270693417,-113.0593406125627,-111.21230842189493,-101.41760857606621,-97.06861397152184,-91.53041110716552,-75.89993298524568,-65.04002323567997,-61.8329043892892,-51.533063794728506,-40.23818348956256,-37.991671456681,-32.34520645909329,-21.715523139637824,-20.899199927281153,-22.65409249510917,-13.723273513175364,-4.585554194298398,1.1843492438426702,14.506382407220531,26.260864782077448,26.552813502477093,30.598921242331386,41.49403316365047,44.2735760734328,45.593039899784614,56.00229004231223,62.09982565252685,60.57041456845948,64.12693286743934,66.00344826915305,59.96752089913629,63.696192350217515,77.9653295883732,82.14174320824159,79.76118544206187,83.77433083370035,85.89060190315497,85.4256551450329,93.0594356678688,97.66786436350702,89.66028156872419,86.81791711481682,93.94907818788559,94.93137866637696,93.47414852530002,98.2078773171041,97.01195057425726,89.60175186894644,89.4414666811169,87.26923791010728,74.21002427774826,68.08254377952652,72.72077528694538,70.94042672194134,67.06211173086639,71.03951588327816,70.45512632671141,64.71641982107357,69.21118062438642,75.51363076348224,70.68002494304923,67.78131581561401,71.5316110759198,68.46889405199812,64.0300823849722,67.72720802565037,67.0216105954452760.82501512508348,64.33661376682187,70.23120297019769,66.15679212658027,63.132290744726774,62.72971080620165,51.75341865934308,40.0096988421018,39.69147631798385,37.27982022946691,31.58201867115035,37.39480693986274,43.865156449999674,37.68219240223725,34.10914053901486,38.5440230313086,38.168141556551305,40.190050945662676,52.42193235882805,56.652909128758346,48.02186174771135,42.45320395579913,36.131450374685585,22.590326649362176,17.71130410610025,22.352508635918213,18.91360131501537,12.162248101488641,12.190409251186189,8.107398501622317,0.24911860467865088,2.32397532157953,4.811407494866755,-3.337220745617825,-7.585304635268613,-4.061732601799931,-6.252686155771439,-8.10998159114358,-1.1248324631695499,0.7277527363630839,-4.449611744601003,-1.9420013570990724,1.2210633178265593,-5.619482385362996,-9.82113394814024,-9.722594297958457,-18.632902437743315,-27.16436052802368,-24.221155184509684,-23.388753507281116,-26.221772704269117,-19.337713014543098,-12.697084057565194,-17.168843939124464,-18.99562561131284,-17.250163599194646,-25.31926407586094,-32.29366978190615,-26.59823639712362,-23.021023551968433,-24.539654149904365,-18.347144622275508,-14.69758229009187,-24.035705531903286,-29.56271015588535,-27.284281540722695,-31.51669813611657,-34.764402160840056,-28.29515848601546,-28.49809912022136,-37.658635484247334,-37.99693957521641,-33.5088526647248,-34.644481714425844,-31.195075071756033,-25.00039986625599,-31.89518863574306,-41.427967992892604,-37.85446086227017,-32.073842373366816,-29.215152367940867,-20.57016660060791,-15.915897798232265,-23.88411220188813,-28.656643413118143,-26.70816951238239,-31.94274429138823,-37.35349944919447,-32.35549685352194,-28.664849208322263,-27.73375607699403,-19.052750903356554,-14.69724899641283,-25.03037035367949,-33.33730661624299,-33.427376982807246,-36.49923643900886,-36.46255939482526,-27.006199210575517,-23.218077958246734,-25.807280013111544,-19.09311409732961,-11.414157448495933,-15.447748068562221,-19.077512768684485,-19.707569939912062,-28.760461732144414,-34.80886292585707,-26.688930846109063,-20.31555877887051,-20.40359152884988,-16.195074408151225,-17.447269226853074,-31.056515430550938,-37.711170784750266,-33.22365604953019,-33.13037671403365,-32.14378817941994,-23.184636930526423,-21.533052937849106,-26.48239446699899,-20.921369836728328,-13.558213252292846,-16.271657540273686,-15.534072095754917,-10.025195870556276,-14.345109594325459,-19.441320470295928,-14.065946166745007,-12.577381587379477,-17.91032433211364,-15.66272510012023,-13.248495468825293,-21.479431368543747,-26.307616838563163,-24.421291949312632,-29.49924649414389,-33.118430050020706,-24.79659504503065,-19.989702459610534,-21.874031548549805,-15.599575576005364,-8.668465709164327,-12.251569760159517,-13.69973781690386,-10.974393095506901,-16.33317581634716,-18.81902525344425,-7.044523449292619,1.9825100094551307,1.9942195201343298,5.652911808349604,5.79817409571527,-5.284603135613967,-10.938326551450306,-8.873194929777151,-13.567826019192466,-16.731624134639354,-9.356335895299448,-6.156899385729192,-8.293520825731548,-1.795788780275283,4.7517223706547504,0.8340891001999298,-0.33791334067778545,4.135236611773629,2.38736631483823,2.964827478230185,14.099724855015893,18.019694285939753,9.528390097767982,4.525222101455597,1.4235910636167826,-5.54627690321363,-3.087067541518435,7.801162617763978,8.410504283259879,3.285808434941699,4.43405217816332,1.4824620276629625,-6.279175817800443,-3.7061269177119884,2.557949091699764,1.6484011532330183,4.775494145040486,11.906579974994663,8.538450335758288,3.1832253771106247,8.142911702986432,11.878476825907155,11.621693741075347,18.408156373536134,22.571506237488016,14.509676543541644,9.312741800637308,10.516409947279989,6.219223329579986,5.105119103475822,15.25526132501853,20.691844965952498,19.450820192471845,25.689314673311088,31.181396493518406,27.276118394296205,28.341888619185653,33.602462661490364,27.844652063240886,21.153704002576674,25.12452297104347,26.132530945398624,22.11929385430572,25.984484979065392,28.08235990696437,17.711209359779396,9.929530070588985,8.458267476447821,0.9685275054477147,-2.04994947159406,10.506822734125892,21.597705341763728,24.153760085099847,28.653162682763995,27.318062758210758,14.076468256118506,7.334892545776016,10.37034121033868,7.278261444760243,4.0579312011272375,9.97424598736142,10.948788662506253,5.542745893543402,8.177310493557975,10.506868834999002,2.646537784413479,-0.38517464005997365,3.695967640095125,0.2266189365325193,-2.59963751790531,5.8707712155446625,11.568101846739943,11.883770929306525,19.262350128618287,24.061893809899626,16.66994976592608,13.144703812870997,16.703868454187866,12.83241664024493,8.704700556412854,13.406362566527688,12.261288014704707,4.58578184747591,5.771825289627777,7.2910176239947875,0.09433718589358087,0.3578367461288665,8.321693186266398,5.6630232610198,-1.5299693212344105,-1.8826302002455255,-4.98380322793951,-7.66656091607285,4.263047530574339,16.677526733086182,13.401881270962143,7.798423870108172,6.35362539234066,1.40300207856091,3.7036800494034883,18.9664273957181,26.863084933161314,23.96680360283892,28.02746545831056,35.54898614553659,39.62227246380918,55.82246354567669,85.47200211104278,114.6457771569084,152.3023890338892,202.31937772094025,237.45062705536077,246.12182139099514,242.5363825434959,227.3446274510199,201.98909757150201,185.70688738521,176.16380919646468,151.6692460257872,117.03685163855965,86.33626651894264,53.20587838653882,20.16058807221351,-1.0060075773379347,-24.16361510795339,-62.483865391875284,-99.33140775370167,-126.25546183270026,-152.03912443635983,-169.49680818501824,-174.8300753368135,-186.57738728899594,-205.15976430039393,-212.54769990018048,-215.11474513099017,-224.35313220329945,-228.15441445195654,-223.92776756339472,-223.49707516083447,-218.16377208351295,-200.90957629682,-190.68452493288737,-190.73529554174567,-183.50720141676572,-173.0221861740433,-168.36595134656244,-158.82759994995254,-146.41008932124228,-144.7956970530394,-142.88056251158702,-129.61051242433257,-119.45859595380833,-114.74803056193602,-103.27952581368604,-93.27400064560547,-90.6193216865456,-79.44347201073143,-61.17226872410332,-53.19257461817129,-48.74435934428658,-37.85301553265646,-31.768747133301304,-28.100044469746027,-12.573397603964986,2.5996890049232046,4.141487136181787,5.646086149832694,11.30067663482089,10.757718977183545,13.08089567341144,25.390159553905416,30.92483204758205,28.206081222672157,33.07647936049229,38.161931106665314,33.90958374757828,34.10348187360187,38.98713768423276,35.95079366080118,36.603017930439115,49.590127143048356,57.45721802897148,57.35908249698117,62.80635673435312,66.77554466231074,62.56931441150712,64.74866190718542,72.74267470617478,70.99499912005894,66.32183427605577,68.30734632919564,66.16293519419416,61.196903493713734,66.8850170445414,73.3923805207115,69.4467921027409,67.11257427016827,67.16528849794368,58.06139753708469,51.74783436639656,59.46950978571519,67.1208534701231,72.23222657758956,84.54770627711056,90.07344896086931,77.89085685411465,66.52231088976293,63.909529815030616,60.86405298166123,64.95400012159212,78.92790023591141,82.43532920283661,73.56344677589409,68.94657593336652,64.0591544508921,53.368163209746356,51.37417641126995,56.868428194235435,55.27525017670313,53.87399475503656,57.56873635515751,51.03407824564865,37.998669060285415,36.134193545594286,37.92347843185978,35.027110223593326,39.654880461353216,47.78616415746739,44.196932734690094,40.02777257514513,45.230098118363735,45.8104246556150242.153536643990364,46.41977594856823,47.11963574571006,35.94551506900384,29.07900325940959,27.842922216991475,19.442552236908394,14.010051453072451,20.092298723342488,21.620940495293063,16.54371221577062,17.510189766266954,15.815545477995283,6.110522771603783,7.165686402531399,19.18826748420683,22.957264213584065,22.466140116637447,25.474834421756025,19.515012265213578,8.431930020096933,10.01100237075301,14.398153616227074,9.19932436059415,7.476319702284963,9.394107998722255,0.7989498724735262,-7.793585391634208,-4.926557292196891,-3.8250674538394676,-5.904884550724466,0.07848684500951109,2.26075955052385,-9.13953002611371,-17.843556932976544,-20.241217685555075,-27.526983719356704,-30.45597583267832,-22.126898071713846,-17.753056645589687,-17.459769185199924,-9.588262660459202,-6.070020217419291,-15.647385222554101,-22.325687702268525,-24.010319953393218,-32.025862122632844,-36.29787885092726,-29.52934372550998,-26.88522103650008,-28.137320796804982,-20.989016435467256,-17.67655312483473,-27.768874435877137,-34.733807788442796,-35.27574626708112,-40.6329213011065,-41.73235143373408,-32.19115130408517,-28.09484634351726,-30.374968809748342,-25.60544857445176,-22.49129645701541,-28.757373827379094,-29.37653872663394,-24.581836147521287,-28.69290736954163,-32.77092091736994,-28.384040689999438,-28.78087842877169,-32.46294594857679,-26.816015726408672,-22.423708831960216,-26.462795471104563,-24.12912523722405,-17.665337258442058,-21.806632661428566,-26.58344180203267,-22.96390530674359,-24.162830726860125,-28.77730643379182,-24.231091667222486,-21.952196309818653,-30.412562183306726,-33.88894668182857,-31.52134124803093,-35.75126026757732,-36.395896910156964,-26.06138539341555,-21.606597293848626,-24.68673269817007,-21.195193474963837,-18.947734778283145,-25.4957964838278,-25.840245557059028,-20.53826637157549,-24.698335119690544,-29.013076860879774,-24.02658267267509,-23.72235928402995,-27.000019281341807,-19.163490990052754,-10.716269114901642,-12.955734055845396,-13.625866890689117,-12.85240728843108,-22.151047228554607,-29.10677456634541,-22.740344703385936,-17.05308730565961,-14.42487656505628,-5.608444280971606,-2.9935783150254642,-13.694469590107989,-19.605040457330116,-17.387199990054537,-18.092907328957576,-14.823870444615068,-5.6849992626389065,-7.215034231601257,-16.04493259091538,-15.279415547271359,-12.064757175316277,-13.923698283245773,-8.996940674108192,-1.3885235972879229,-5.345767061656719,-9.994772940154938,-6.471558126963062,-7.956836523703411,-12.244894604040253,-6.642964499534834,-3.3170298760783274,-11.735379831255235,-16.71733033016691,-15.964367550259642,-19.74572433035986,-18.38184102622438,-7.762414672333541,-6.213274770514733,-12.163297125063282,-8.509835117398465,-3.6604695307707233,-6.863364889012271,-6.21336949993192,-4.094308719447199,-11.385067137556598,-13.9283449536595,-2.8633714830955213,3.8406827465032576,2.54845573765901,5.17542572888554,4.352698094859449,-3.863901694427052,-3.069945723863526,4.65316101005721,3.83915899743409,3.500090440412186,11.0733830264233,12.42185983110486,10.445660246524726,18.652293709408795,24.73512991367608,19.52283037962572,16.893168083907618,15.109161255213037,2.83479543964768,-4.945148916534493,2.0263479195734346,6.126349009142884,4.516658979982181,9.752143504782305,12.291990095353107,5.034247227523096,3.483309901997788,6.465671524565668,-0.4419787385409384,-6.677083901558127,-1.8190816155270748,0.9011878271284826,1.3671036463222102,11.48485413269627,19.834627713105146,17.1002004854066,17.081439168901937,18.92611620467158,9.906016799880256,1.6645276663393063,4.655505069734304,5.517208279244634,4.553174867787135,13.939754202630406,21.028272961916908,15.341447179001044,11.792728820737002,11.533354998876705,3.945522356083636,1.6851771038938685,12.35099316721733,18.470784223262214,17.96105077871376,22.457082514200646,23.493908167301104,17.586937841514867,21.866402226244272,32.83059800376216,31.31381786617075,23.876913417523703,20.953766360454107,14.262818970169473,9.753539728016483,20.7181061928798,30.995096123345572,25.56717899542752,18.32624903217855,13.375668532963552,2.2451465397194483,-2.022840484037734,8.239408817237518,14.442052996150341,14.334643173254426,20.43376554316184,21.727177911787393,10.876443914118077,5.7656258525456785,8.144353805097042,4.8311686838927725,4.647620086507337,13.069485733220858,13.660165478276294,9.220159634053477,15.612247461358917,21.077939491641196,14.091990711762062,7.915652711093301,3.825827190583359,-6.323929515242268,-8.234673199353242,4.284374337334305,10.816473818615915,8.420328035022333,10.329089250383161,9.112578884625254,1.0022706944540989,2.4260679005947456,10.185051667961671,8.164459750200733,5.442393209544999,9.869458616790808,7.948914122379148,1.864323000257651,4.577218808549434,5.345987791160686,-2.9660800471688162,-4.674869223243837,-1.1613383210247588,-7.036960018658365,-12.39164026395929,-8.487121878901824,-8.636483290964122,-11.029257142791836,-3.4817628387130126,1.1075927304940478,-6.388296092234867,-9.030197287238718,-4.685615756026107,-6.488551572430426,-6.520661440428801,1.483001303850871,3.419861698465836,1.6656267735191466,9.706807910523317,15.633468654114715,10.198602687347215,9.436063753242848,17.495820753495664,28.951159515336343,56.6891367626968,101.25846684259932,139.53790362963633,169.57422484192813,203.51469770757708,229.98460100710992,239.65554131019195,241.31436968454744,226.36230895065586,181.35964086658947,125.46484999069062,79.4774503706845,39.03402862096164,6.8934425814277045,-9.463501603024014,-28.060053372932998,-60.84639890173979,-89.83790878048197,-108.58828044922707,-125.36992089071191,-131.05895104119563,-124.85053969806228,-127.94311640372185,-140.32166981854184,-147.35528177453727,-156.09520294175348,-168.0213601645748,-166.11803631535875,-156.15274008264785,-155.9203140040961,-156.8107889353146,-151.2501547043786,-150.90672521412694,-150.361858723618,-136.60295842144714,-124.37363474228681,-124.21145843307893,-120.75726151896957,-113.71778849846831,-115.42288117947548,-114.4413733664668,-101.95206361276148,-92.09770776039525,-83.71042923696231,-65.74507447396255,-52.85562013077486,-54.60736121443015,-53.96504194357836,-48.362356524904605,-48.239504608011416,-42.89216654974102,-26.89599877373898,-17.99900163337261,-16.525163375319824,-9.321629160984566,-6.518366440304137,-13.703489547141647,-12.868506174935193,-4.4686058621068065,-2.733616828507016,1.7147238021175528,14.412561909004028,18.805354909788292,16.47758021544878,21.86607121331878,25.7602926797274,21.720554521627054,24.901778239732778,33.15802913281429,31.529057942861662,29.064910911997657,33.72522069218663,32.94391822179629,30.182981629888573,38.70575280407904,46.486518983143405,44.17911948912524,44.711793030996226,46.40179505109882,38.792633258631945,34.82613953635568,41.77292231281674,44.74718505976327,45.211657220126845,54.04749936090783,58.31294007568803,51.185364392330655,49.51497200028707,52.4909481372527,46.9561560181287,43.30322341463799,47.83620721994851,46.375857451879575,43.94279817494102,55.31326827577286,66.63357761306037,65.9385584473383,65.96487787046642,65.22688262244338,53.34403618395664,45.95397343320714,52.4618972588417,55.434573252699884,53.34989506190718,57.779384356599934,57.41885958476643,45.91420138618514,40.37241092166092,40.04854090918656,31.694793533120944,26.6842758655874,32.48542015966344,32.77746135722197,27.72426986737161,30.835573037605144,33.435288050151364,29.704392472046074,33.435915784380654,39.75791401127125,33.68279087440781,27.243609054824258,30.232727816743957,29.81782710080707628.135739507914295,36.29658186003095,41.15104329189552,34.567424434552166,31.211055572343582,29.43483273319889,17.823411089189868,10.028746589703406,14.899588530334318,17.01254685393103,16.351696967698413,23.49388091153069,25.605162159302996,15.818841609335658,11.263072883160682,12.235436423590727,7.014618631905108,6.01523663105289,13.295399474511447,11.145288756402238,1.8357462423473025,0.9221616807368704,0.5484606537063268,-4.130728561780681,0.4431965753854339,6.998290375382144,-1.5323991269064297,-12.937711286559802,-15.316149740308246,-19.2249969841465,-21.22609619137934,-9.63578059065412,0.6528644944720865,-1.7840368261552015,-2.6646726631518347,-2.2566855540772015,-12.385456537700046,-19.83622169627603,-14.931072237051001,-12.7007453909467,-13.29080563323803,-5.656513412707973,-1.6929520657756714,-8.819725612215422,-12.819710386754508,-15.535168565047208,-27.449916466180195,-34.76816867770087,-29.599696634741065,-26.807850080599422,-25.41148617294506,-16.018745875337352,-12.256176207119074,-20.54902640846894,-24.7392234212054,-24.672322450597665,-29.563011871668873,-27.262151729368814,-14.478174885911034,-11.425633653604478,-18.780593172033395,-21.985259803872687,-26.450949329973707,-33.05505281643291,-26.194630798991355,-13.371069409678777,-13.722484970621007,-19.130960055270204,-20.684640072417668,-27.58973906305838,-33.0714852936882,-24.823488533796166,-18.13180154010858,-22.93201087032597,-24.898115875644713,-24.28312226086226,-30.01557328594057,-28.9731731651587,-16.07451351981907,-10.013830075442053,-12.24865181169691,-11.09353307524036,-14.834476634548572,-24.82177311324791,-22.443113649599773,-11.548664794795993,-10.362509000205698,-12.59434028014223,-12.276360271454141,-19.9979064683971,-27.391775587812234,-19.15314515263514,-8.647570629280107,-7.761507279166017,-6.656153426091317,-7.866667651310606,-19.57116341055097,-26.25111092470786,-20.060849908377403,-17.362959504251894,-17.918644394258315,-10.804881270191036,-7.6212822205796495,-13.506218090262633,-12.753979560381339,-8.11822692711458,-11.549569776501704,-11.377427294602766,-2.864294654626839,-2.6085685386941138,-7.447124309267749,-3.294593626358396,-0.9431539860048157,-6.749702374771059,-6.1232622048635434,-2.755176223145943,-9.462365474978949,-13.810634649389797,-8.966643587140416,-9.604937098300722,-12.040367248072139,-4.016811497687158,1.2297187531383371,-3.5097627210004614,-3.2552295624084433,-0.9023470898000983,-8.693842350389312,-13.988427817246722,-8.828458700775256,-6.869715465146204,-6.508435525563006,1.2294761793568485,2.7526165078773777,-6.529814707323951,-8.256307820847406,-3.610615624895187,-6.812580238197441,-9.576162719004202,-6.377201678775347,-9.071222697356975,-11.791674745360298,-2.8740835135699356,3.0851383690983525,-2.02708867691893,-3.267519610731145,-1.8801519188662936,-9.36366013219307,-15.2653199363206,-12.630871854946513,-12.425289180367148,-9.316973963370629,6.920516734844299,18.7035613772422,13.40840580026602,5.028076421664421,-2.2355604178333004,-12.426864384985906,-13.095242434669293,-4.499366752954868,-7.497812125944004,-18.609840662875662,-18.349774804562607,-11.002387939414715,-2.7800738503483258,13.776146466964173,27.305856198048204,21.99749348111927,12.794498429353167,11.998956289592552,8.595943433913547,6.084272760670313,15.413786503294556,22.879272665608223,20.521027689219547,21.822883952941336,22.65053733861853,10.89838880571814,1.4639670880027449,5.076978840921068,8.442509914575364,11.079730195153363,19.950840413085235,21.415204918549836,12.285766419639398,11.323495203230118,15.532742600332885,9.368604889394234,2.8556184435767467,3.8259055929198977,0.927110695858502,-0.5788450446083547,9.190055638486585,14.119564550569574,7.8317483852883125,7.619059422383999,10.229497883327356,1.6930642131846896,-5.44436638029698,-2.5897052431382384,-2.981898663802366,-3.582312237503393,5.454116047375851,9.25788715261383,2.560112915514984,4.138424246222326,11.7033226704375,9.824288880378546,7.798215019626504,12.159383752093834,10.711425426303816,9.320741366422777,19.777079269968628,26.337718115212517,20.41619464003066,18.698830949123394,20.46629414752254,13.790396253495025,10.05085142034257,13.333312626567869,6.118980566554102,-6.887696006680775,-8.666178927056027,-7.654178757571787,-8.151977433773876,2.5647944084974648,14.247831877880996,9.829232811630254,2.4492339636742146,2.399656540816362,-0.8724493948921808,-2.8859541074162998,5.691308840576902,9.957010079946883,4.4994853515675794,6.14933976891596,10.876962655482048,4.4738452247308365,-1.4617768762545553,-0.4661520642098467,-6.165751921679626,-12.87476227920483,-7.178886688390417,-1.9980078670801706,-4.84998195842901,-2.3101390140056774,1.174542428461576,-6.107711322474067,-9.68419082026565,-1.8498152085999418,1.2727227714970666,0.9669969345781463,8.306539055798087,11.430078011237484,5.878845089292203,7.035289373596493,10.676705907613346,4.798636352088471,2.515569174198038,10.046075832359241,11.27832554073493,7.918298267225653,11.611686976486054,11.683124559306986,4.470580884376914,4.944075391580763,7.132881024530014,-2.7598553836838167,-11.253374720067793,-8.490486722288276,-5.713290550568956,-0.6351521575649486,12.579819155381108,16.156564013569344,4.447780592837771,-2.480722406191061,-2.928504153657621,-7.405514250224508,-5.534006937120257,7.171633318538515,18.03662023088599,33.5550784265167,65.18049009645569,99.0190037219806,128.69077406450052,168.24089144502113,211.94015304298478,239.44086040750585,250.60086531993235,247.1281624186134,221.23404326278325,188.27886322037665,170.2773455418283,156.8164183438319,136.12468316705147,117.08158959950077,93.92653190687278,55.258815836365656,16.944170926130745,-9.560236907759208,-36.05595352521888,-60.66952648483789,-75.2462607861781,-95.04378021389437,-125.4550666797755,-148.01024220273675,-163.9631906927719,-185.48437708426377,-200.49872059335743,-202.98987501479763,-207.84117413525604,-212.83276105609556,-209.1197989669798,-210.0338006632291,-218.15226798682588,-215.43443841686624,-205.83562486961256,-204.48845371125856,-202.83915992263562,-195.7439657428297,-194.21632486466586,-190.8231925715492,-174.01920744477746,-159.34660218438768,-154.84191447436902,-144.9812302464387,-131.6027124006163,-126.33759150663568,-118.25361594045131,-103.54627428413522,-97.11697075857262,-92.64219783698869,-76.74104602604629,-63.67466471616719,-60.98278392494199,-52.772203269488756,-40.288971032087495,-34.71362919490946,-26.94993409994795,-15.52557175060055,-14.612349412245186,-15.796520869588578,-3.675172700648325,9.459927411300319,14.709767757870832,23.401833179333657,31.542000602586008,29.11817489205956,29.2581638882094,36.91727250428163,37.62311181037418,37.64184555073013,50.78717007668314,62.95380635562279,63.54415853408422,64.03317972221949,63.08035942059604,54.6842785952595,54.76731161571851,67.24179542515431,72.02872406289583,69.9904236386141,75.71549604576694,80.80120271270454,80.05381414227107,85.49601954021075,90.05786702115212,82.12842078073452,77.7104072893209,82.67440961870112,78.39380667000574,68.20122768054733,67.65963225907122,67.99274669452959,66.31725920951641,76.49487458354857,88.39664139490137,85.34562428135031,80.24481330403873,80.64149968110982,74.31734291384649,68.55998816256191,75.13967808170872,78.1673392598433,70.38985745687947,67.94539487669292,69.94847007614153,66.96943064401631,68.88795195783257,74.57797936353165,66.42951891557091,52.665104943625295,52.088281751403315,56.98978903044441,60.19240625713506,69.51146185563088,75.21483425649348,64.04148709933078,51.45548259889789,48.58804105870956,43.9919922832119540.75425848653179,47.64535965881805,49.60116505901787,41.22832834283409,40.29242420054951,44.66224959177833,40.04800113625687,35.17694826704472,34.75394146485381,26.8825662868486,19.738832655335333,26.064555170688656,30.295877490184388,24.114522761772704,22.156468900588553,21.911023437094023,13.424292225065393,9.736784196648784,14.990424939638544,13.13062921573314,7.535915612732939,9.159457352395494,5.5536173625414715,-6.9571715753535965,-10.502580404362048,-6.987880479797287,-9.622110456881128,-9.286690170442036,-3.0392194746105368,-5.922939005969589,-11.455665398875917,-5.934495020426286,-2.7125931055868593,-7.724540812607434,-5.253425723372525,0.26165455651250635,-4.18269029839085,-7.050416662108441,-4.7627449871213345,-12.394673702353435,-21.62102343812257,-16.046228244154197,-8.647908702052192,-8.902246272705234,-5.811832943389847,-5.9565067514077885,-20.656717678710013,-32.29218748611968,-29.71236237251128,-27.195503898824228,-24.408970281412472,-13.441969856887646,-9.44081320710828,-17.76515453004761,-20.560458989043386,-19.020458818342114,-24.5323875432346,-26.36660727079053,-20.284736584871318,-19.779548351869344,-20.290762265557,-12.650672068768245,-11.922910462850117,-23.416632513000444,-30.2386169552439,-33.1553174987056,-40.346196846269486,-38.93466514592543,-28.060863940025442,-26.895848399393497,-30.958229399732872,-26.72648774063183,-26.609638618697304,-34.53320850170635,-34.317937865643174,-32.53075493267007,-42.280530086156325,-47.852797983820494,-41.75137308099271,-39.99925915996489,-39.96901817542505,-31.58141881291869,-29.217391125171048,-36.4563434015659,-33.39817190583452,-22.76920608855803,-21.017449836480925,-20.62593643907828,-17.536054084938428,-24.544419381309343,-32.746629069166474,-26.367245355331896,-19.68516797714374,-22.557722463674853,-21.308054777415336,-18.693900189969142,-24.729304918642175,-25.500059549772892,-17.26527661025691,-17.755088299534513,-23.006216402692193,-19.789075761204348,-19.034980411029576,-24.01415357954136,-19.44333781038288,-12.142013799921536,-16.4013232928559,-19.82761838802746,-17.05884350936305,-22.229658586306506,-28.33669939072845,-22.156671468838276,-17.27837485665617,-19.53744506367274,-15.537441091776868,-12.709890491539474,-22.90641750956998,-29.646727706619618,-25.08578116451464,-24.37959453873706,-23.97581860421186,-13.184687599977355,-6.255583712078234,-8.1432573549843,-2.7959568158803587,3.99515697410485,-1.3108178435184916,-4.899131144740294,-0.19200733974867212,-2.30531736408416,-6.994938636717069,-1.7776627811203272,1.9782769663446051,-0.5852406884297354,2.685612307901846,4.050093286294559,-8.148844618314573,-18.166603796056915,-16.889170562943264,-16.420652397821627,-14.798567796006612,-5.972843205422831,-3.488245716390205,-8.899656753664823,-5.431839783524873,2.1728328790046456,0.5795853447666417,-0.014456778669172832,4.3075071401806015,-0.4950033033554635,-8.23451257207224,-5.006285349520617,-0.9850073025433499,-0.16555270085472384,9.230568030378596,16.232211044560483,4.758605925627776,-9.907114225715603,-15.204618656618784,-19.824926760190994,-18.127057590373443,-2.85827716155822,6.71913349322074,3.307029402078203,4.190900573687902,7.376629169634465,2.654624225178445,2.9430393388056757,11.210145592597012,10.837282692487497,7.374967116606598,14.298724309510485,19.420632713664176,17.148244815183293,19.946570901335566,20.52806253980649,8.178189624239119,-0.07661550727755717,4.611680029967068,8.240102220933615,11.778370661284189,20.877497671174247,19.97662430377468,7.125627178548061,2.695318662392233,5.3402148392026465,2.8129163448113914,4.682287061884738,12.487119372770303,10.530057803843693,5.522663285641666,10.73691029098757,12.904229221598941,6.730951717338707,7.386207691132647,10.615627282191051,5.674846683786341,5.177955430780867,12.156600425194657,10.569409107642809,5.574602800244879,10.211948437698114,12.843292490626453,7.9002488099968105,8.405708670652949,9.418592386251147,0.8676996986869319,-3.163675548683529,2.3256444779247047,1.7211005115936227,-1.3748582192339913,4.846245883942606,9.595608303438167,8.715747554940089,15.020835432353344,21.77528204569379,16.366382112254882,11.129604184508418,11.897244021091641,6.470229200665752,1.742993565777568,9.325216654657678,15.868938514024805,15.626796499203907,20.099508177531604,21.78612619400384,10.144448894834454,0.21181974948408033,-0.744150896476899,-4.481765803561679,-5.072275553368961,7.576016979421171,17.901047912517743,18.560651051086843,22.251676831431624,22.449431463889205,8.694420646605112,-2.2685223112931165,-2.214001893532361,-4.30606170178898,-4.277412840501818,6.837250895018188,13.44303865645585,10.042162143158983,12.383647369367935,15.767880877896564,8.128240057377793,2.628720860934128,4.882248955841678,1.932860470294477,0.6947682043932776,12.542331904833812,21.94999759271475,20.38469431454885,20.25637050966021,17.91746864276073,5.741836869393536,-0.07166903085597864,5.9323419571871305,6.927691758884173,4.098907556777321,7.827912185889486,7.465610653591652,-0.3015359958614532,0.11866027843185112,5.028081309223016,2.4029194941160514,3.2170795262933534,10.170619954194576,6.765113068159912,-2.1061438995197004,-1.8960363343002808,-0.6586465449511699,-1.327233091529401,6.496131134115478,12.254340320880459,3.409780971241513,-5.003129878405132,-5.384787502753481,-8.984564576273701,-10.114456969546367,-0.43898764579424077,5.1246831138944255,2.315251725775365,5.482968609236023,8.307625042706869,-0.6741449183590134,-6.903855858705071,-4.633771409541774,-8.184115856907377,-11.63027342029446,-4.046771178282682,-0.09184487574567629,-4.405204061878278,-1.862599475536583,1.8335418507414005,-4.576785710292171,-6.561774566222259,1.6354965488393858,5.159221314363584,7.911774720322287,18.343181969079897,21.164177973985407,15.050027806910398,20.642885334024616,35.16118405320385,46.606831632444816,66.7432349770014,98.24335065579596,127.31679372105621,162.66226786336298,211.43076660972775,247.2442804706306,254.51749579251484,245.20262724735906,220.25507682017155,180.349289010202,147.0142973415003,123.66198345016298,90.69158260333518,53.290961261510546,27.570278045416494,3.771922119584608,-24.17438732517406,-46.037115056680875,-70.1816363289219,-105.8638574027046,-133.11507316080036,-143.42302751689397,-153.6922054881211,-161.81640042956695,-159.3578705545715,-161.23315473681825,-170.11466036353357,-171.43103813530436,-173.23518571877406,-185.2011276918075,-190.86077307404253,-185.66530488841593,-184.8572362768915,-184.27678125720246,-175.6617223055546,-172.18325079803486,-173.5821947893525,-163.0220037779432,-148.52441485319,-144.26890718806763,-140.05190983327822,-133.53824843700318,-135.7363310278288,-134.5596019960647,-117.14087066831478,-100.37127053914688,-93.17855167284787,-85.06053099127831,-81.16921888944228,-85.6029245878176,-79.35145402229784,-60.30861499667769,-48.9518219104536,-43.25337934439426,-32.44751144844611,-27.39758620546875,-28.498867357993923,-20.046451085703026,-9.11453996674241,-7.057701800360661,-0.6862756411107171,12.112620593150758,14.682221939034637,12.405697246273936,18.33170547593348,21.468915753970116,17.78545457452692,21.916775527969573,29.51181392821543,29.26334098607842,32.67024763489873,42.28905064307911,42.36281924194248,38.65325355950224,44.88860642576303,50.66636883454018,51.26160628347196,59.00446862753458,67.80163150963881,66.67396004405654,67.47789459714383,72.58133533176586,67.75715279569754,60.92529338263439,65.4763410697945,69.19424462115039,66.89514398004196,70.46228354948613,72.2548580825275,62.5893889018081,58.57383679992243,66.25031720337586,69.312677665499970.40842491763719,78.6248883024059,80.46962071179749,73.88086269602647,75.72391035264339,79.83968404270487,73.1665471615338,68.52152682839711,71.40567853268598,68.1122647186697,63.04306579699618,66.13772666463954,65.47159634947955,59.45963208016981,63.45842518066094,69.25937053631407,61.71112597501519,52.64139757147554,49.452587545459,43.27855135204003,42.44921104890224,54.19808412902388,58.81952272863314,49.72757511034979,43.67522781177913,38.72783594600979,27.174214829623715,23.786719694638595,31.254185588562578,31.648890670748738,27.420426803990562,28.880668691895913,25.56389080752102,17.983341484799325,23.66850274885712,34.841876735506716,33.93703122962826,29.38740085570827,26.341401784486205,16.052035847362667,10.254283851794028,20.534532987268218,28.820763186132737,27.09757059720214,28.789438287745924,28.72366333006766,18.61024005023265,14.00435867540739,17.399305091668023,12.560352652337546,7.060975826552438,13.892376323047763,19.18097670947267,17.179271655988757,19.78853438483771,19.059219200855203,6.319143624926882,-0.33150516756430193,3.670988718787453,0.7089671785130787,-5.76205823918841,-5.474191448639123,-9.686772838116374,-17.90047123372478,-14.133356009746237,-7.343768842983652,-11.584485431966918,-14.473084221274535,-11.682723292110168,-16.252320199930068,-20.50908155214512,-12.853414779338486,-7.716068635688729,-10.911022531196828,-9.97617872043415,-11.15525117690173,-22.924873302155525,-30.02497245013821,-28.48299275857887,-32.30135887719386,-35.7273795933059,-29.27706936419913,-26.179988484118766,-29.532815998558252,-26.84221760054462,-25.678636999406564,-34.70884467313267,-38.49435577047783,-33.178931171699666,-32.735449547805665,-31.795820955605286,-22.21510901754379,-19.341342475332894,-26.921805154439003,-28.395940183191577,-27.302044731260047,-34.13618289822767,-36.73567066374813,-33.45741283316448,-39.037483251033024,-43.43838714217661,-32.83099787462626,-22.35390730401753,-19.528849185842653,-13.888182638738243,-13.136877618695886,-25.52486859038576,-34.06264622323785,-33.36162569681436,-36.88509388673409,-37.54431809456197,-25.306080861751944,-16.133336969342587,-15.89239051089259,-11.354679537811844,-8.838556028141918,-17.633834354935512,-22.47221636769703,-19.5651806325835,-23.313533102153322,-26.674015363681374,-19.094042339147997,-14.735503010704454,-17.235263382741692,-13.739240431258235,-12.644067113684013,-22.64649933492881,-25.90352884724538,-17.504586735022535,-13.090050050120006,-9.69686027649752,-1.4692824966108775,-3.0935330897402515,-13.477173526631129,-13.579112355934953,-9.459184456928005,-13.555879958611634,-13.973910355639994,-8.866427314771057,-12.418636362895564,-16.447025845818764,-10.239152547798298,-8.264561311514438,-12.992642130257003,-9.121542611444266,-4.024229176596469,-9.77721807315105,-13.891079984398505,-12.921045477382602,-19.429285184648794,-23.6691638278817,-13.042402996445578,-4.643889146270176,-7.361562829785243,-7.566310883680172,-8.317080201317854,-16.202581725087953,-15.674349553636613,-6.451868954652994,-8.819211098008584,-17.659494785845105,-17.36132894440414,-15.857822434889574,-15.655704744301762,-6.48611280056535,1.0570145421569632,-3.983651899683028,-5.536427275100005,1.0219456185774298,-1.0243346008478755,-7.792970026343398,-7.320478924368258,-8.130995299600226,-9.366995925859314,1.4439514490812746,11.382814248571698,6.13803440786233,1.379678860322012,5.288295913820343,6.7869218052377995,10.366094528558012,20.46103958474792,20.282068354621828,9.331363367637888,6.554356770047479,7.75393757429582,1.490393296051904,-1.8331566176913443,-1.3429230315851082,-9.072157324600953,-13.211546238930216,-1.1864956401183395,10.8615410738164,14.665062740097657,19.354781162468818,18.14869376604542,6.183519115726801,1.846595649910311,8.638111555245887,10.14093650916737,10.23900382097889,17.318582653651173,18.363771045073108,12.128871851331976,12.412430055798833,11.435818914843804,0.18209008554903328,-5.660318840869547,-2.773332329154658,-6.119765630487235,-8.586335695740148,1.088344393929698,9.041888865187467,11.311901160204393,20.176131778660512,25.300264578479155,14.166138817843677,3.3407797472374887,1.907145155503143,-0.3797368232209526,2.9171864856267566,18.47994474908356,27.227616232824985,22.30297418309236,19.62524193679584,17.838165832161618,9.896811367902327,8.268134239973307,12.464681171702244,6.426772489444035,-1.9073370846855497,0.06900987435219585,0.8995718333711317,-1.6913306178377896,3.7861887824673723,7.550982428713033,-0.14253921870050812,-4.582006101487004,-2.8300390692478343,-7.122235362460084,-8.955107801464122,-0.1011551681002576,3.511420666218782,-0.4645444456213732,3.764288600225627,10.361720031300809,8.60697641506351,9.471905390786661,12.740204934701566,4.04399996533367,-6.403949124008614,-4.615611445569214,-3.704008912334261,-8.424671032298093,-5.92509896736418,-3.175330713443784,-9.893229805785046,-12.037635503117201,-6.689406186854643,-7.398112773571871,-6.67060775821072,4.895774886955242,12.002399568746277,10.917181852996755,15.889174347656262,21.085679793250574,17.405690748091928,17.879828121751352,23.538153328386535,19.335089354436164,13.324704965144367,17.723062421974742,19.44036498671124,14.624332583181648,15.760143922670338,15.360167903853327,4.669611213708338,-1.6221113964022669,-1.3105692549750587,-8.32356188460684,-14.175145738420868,-5.868834189290071,7.664149845185927,25.839755592008302,59.0592762879902,94.97883882565337,120.70767831929697,150.50864149505816,187.89793199508284,215.22860397657655,231.9992665592401,241.5138968430417,229.93649629771278,203.3591530673084,185.41340514547917,170.52968825157802,143.43725426062605,110.77344760217403,72.37413663427745,22.027106986173695,-21.296529766955587,-43.918665285590066,-62.961807168272514,-85.18522139471023,-100.7303578978217,-117.8894565412051,-141.67467261994332,-153.81957426552992,-154.4316618389292,-162.6108951071194,-172.71541979462268,-173.59852092382715,-176.48735296811097,-180.5456038291417,-171.63070014921152,-163.05651315984866,-170.68724213176722,-179.1764691002592,-179.97214751967996,-182.71052435533775,-179.8245747045613,-164.67221012954553,-155.36908026965347,-155.72241337177888,-149.26280868966313,-140.27405391253927,-137.14695518542428,-127.17442609706846,-111.71106423121182,-107.40442253599898,-106.80187859737268,-98.84001713946645,-94.25141943257213,-90.77030753245832,-73.23284442738777,-52.467406793932035,-42.42386573896986,-31.909484834520228,-20.139911347575648,-20.901677784682825,-23.711614104218036,-15.444181896758046,-9.803773653832152,-9.373220673579848,0.7972228947815614,12.021547013062513,11.396140263835925,11.913385653419176,16.514694123356914,12.079289049973386,8.973275418714408,19.718174119084264,28.863371493123633,31.06092914060069,39.5340710021938,46.88305248694069,43.51811904226395,45.5462930469442,57.36666321331911,63.9626870847805,70.19938887244984,83.71132601253903,88.02932472039775,79.82752192594222,76.71134122984328,76.11205140218792,69.46556930048894,68.61057037584858,73.07872823164868,68.05659012172296,61.97686125248225,65.49343308363541,65.53929009119236,60.22235708929195,62.864527321629765,66.48743544061874,62.8059156045681,64.71515615099493,71.06410995154181,66.52554870757572,60.960973385202635,66.9707740914803,70.87498223489933,68.5293157916278,71.69392022523166,72.12190259034477,61.61183025644961,56.285336021735674,58.385494822700416,52.82498411835801,47.62224089514748,53.00708222695175,54.16102868081674,48.42407702033847,49.48999287268827,50.072182617875775,42.68956347164458,42.52140152011652,48.53054861706376,43.52154208950257436.65010055865446,40.648376589578476,43.03437599998871,42.370721352531675,51.54860451605139,59.857374426841915,54.92382846483572,50.259434317378485,48.63853884865075,37.57186036495239,27.758206209488904,31.678666854904844,35.60917836263523,35.63810308620093,42.7668615629626,46.49217706110422,36.62145557975725,28.770118620289395,26.42507499737971,17.144201620464695,10.764311953246022,17.413197546658484,21.642581972717203,20.375211479217896,25.66208172414894,27.2867455830934,16.53420537036912,10.30003008162439,11.41040316337293,5.879357343445633,1.3086077571805683,6.1855755891046575,6.496604020634793,1.611276210969579,4.708855583410434,6.298724168691905,-2.9139862812901725,-7.882145724255082,-6.534424576389714,-12.973559787430066,-19.443013806165816,-15.859432011900601,-15.091910216155648,-18.057963809175494,-11.611795282230315,-6.076862906321176,-12.590046887928308,-17.163572750961052,-18.19741454397605,-28.68300299622398,-37.92345520567195,-34.002837398115275,-29.213705915053033,-25.551105614000242,-14.953279607976256,-11.448935165639718,-22.68842732182784,-28.894042311557378,-25.653086396016278,-27.41917075457632,-29.885743895214727,-27.646604584619624,-33.36843626435066,-42.61143541165296,-37.703525963265186,-29.081075512744285,-31.367411175876974,-32.372780859171264,-28.69329542345892,-32.25178348959748,-34.24579294892141,-25.315564986289797,-20.258941248576733,-21.55937826659033,-15.780077001911451,-11.483959509142563,-19.353387981645895,-25.448694861009216,-25.3601536047577,-29.499830588066875,-29.85711040066812,-20.79637377685705,-19.066829630466835,-25.445908006317786,-24.752456317296588,-24.007494725186646,-31.046449792394114,-31.720053860573373,-26.681476584139922,-30.471007846411784,-33.429910774847855,-26.45026809111586,-24.14133079621195,-25.831503146922923,-17.55800367005803,-11.317711627657523,-18.390708876357333,-22.767055415744103,-20.776359615735277,-24.383726007869722,-24.737821348918544,-15.580664447867758,-13.974508468327654,-19.424843146297246,-15.686468834469787,-11.475121133414788,-17.14234848812299,-20.17601626630821,-20.400256752609163,-29.029445751302216,-34.045681056021316,-25.567440373199926,-18.295768642631785,-14.431738881476619,-4.398618095397431,-0.981105399449675,-12.670918138501275,-20.76014877231789,-19.62984266077104,-21.761823326163913,-22.19224140695809,-16.35634139547237,-18.44887923836047,-25.27697238232345,-19.30619572443006,-9.553621318413601,-10.433700502790783,-12.89384575224961,-15.198919243633927,-25.59104330744368,-30.531675365614763,-20.221948186477555,-12.227580981664712,-11.918400342984011,-8.409197737025636,-9.310986977731496,-19.196225279602153,-21.03929117659215,-15.054713173614207,-16.62183302371623,-18.117283761199214,-11.678905233749955,-11.17231402950757,-15.960096255988502,-12.344597265375452,-9.70119369125328,-16.751828106871795,-18.816470665904124,-14.446114528948819,-16.039336575637467,-15.100711378123773,-5.106950628371378,-1.9590461729775563,-6.869033870805205,-5.316040904785636,-2.9893580955338326,-7.419697633104418,-5.864220517686236,1.2049337887773675,-0.4951829302656272,-1.9645145203058405,6.412213595444737,10.378637861497095,9.046441512067526,14.689187081441595,16.97202832610718,8.643264744509372,6.476005720282825,11.71982301199376,10.420806181816523,8.876552776598938,11.940587323238974,6.22162311886796,-3.016894689924955,1.721141537753002,10.341089420926947,9.698707005984105,9.52245320006725,9.326511599088862,0.23469973836374125,-3.008292388238617,8.689167322977646,16.98196609952358,17.614765576499874,22.15542102939969,22.2019524940091,12.614638564564272,10.275046812435361,14.261089393570494,9.072445793281092,4.104584044315328,9.317626349252505,11.21194866854373,9.922594660484812,17.78361142137675,22.514180248398013,14.813900824585158,11.685619027191677,14.548398754990167,9.39895631720232,6.246469287468081,14.015234792545156,16.53952538705697,12.720315532234132,16.42947231924001,17.92068421621211,10.123097041617882,9.531411941073156,13.905597163248732,7.732516925664387,2.659835029047036,9.398713815926559,14.224727367734488,15.799550273885483,22.83402497330744,23.32962161503675,12.73850826044472,9.938906401476974,14.58638461219744,9.764800583967954,2.3074728586247284,2.292660149412649,0.01707529935477936,-2.1376444304001234,7.277879726797323,15.373260000919322,11.954486400838357,12.186551130723116,17.873354755920527,16.07180952210495,14.481724630444928,20.316572261645398,20.17604427540208,15.152235484219279,18.624391707857868,20.974471646834097,13.812426236147264,11.140993811801359,11.850802100104614,2.5677829620710115,-5.271110981476948,-1.786577225045971,-1.0559961996046028,-3.357285522076355,2.363819862729043,4.458927002987597,-3.8893850099350473,-5.37167244494611,-0.06860318780088281,-3.355870315967005,-7.383904576029365,-4.791865406967891,-7.998406715643793,-11.229293393199924,1.34870997896817,15.517262706250417,16.924026720596224,16.909155162507517,15.118398913523698,3.3439641511815625,-1.1772720990411885,10.514107273339178,17.659400958015166,15.953603176806546,19.36572154203074,22.933563952557858,24.926615620339504,42.89931477099371,73.79426508049326,100.11446861243786,129.6710240411507,169.76321768120232,203.25843118639847,224.86295825292194,241.602319725457,242.03840017402493,222.28278417350347,202.79030484681766,187.45035363888562,164.85630774228196,142.74976509104283,124.74112174398469,94.60328119709322,55.1474185269035,23.771797496254514,-4.5057410246254905,-35.30174160673812,-57.120589128571964,-75.44848050604304,-105.0208128047681,-133.67492123409158,-150.32727344484746,-167.73506814051143,-185.88855877661564,-194.12781577232877,-202.62682475058867,-216.42794253433112,-220.52881279636537,-218.16394792113908,-223.8696822267559,-227.36952122319195,-220.10615649037823,-216.0149417135338,-214.51025560310458,-204.0280384316396,-195.58179121397453,-194.95347462256916,-185.59053402324972,-169.6556560089311,-162.81758165339735,-156.01755867043076,-140.9231202833098,-131.74151652992083,-127.30237576658571,-113.01518901613986,-98.61520272908899,-93.55949524352908,-84.79471575153535,-74.54324093193635,-75.6856285780805,-74.07924248531472,-57.940947592324235,-42.3079824087255,-30.504969695169535,-13.88000049004185,-4.250947042013728,-8.021008727620217,-8.004422210044531,-3.3770207886096557,-6.300240272430443,-5.384505459659433,7.2250552291966645,15.92697802525837,20.753153912712982,32.68877410457802,39.44026020778603,34.586027820189614,36.12630189611173,44.23599260885539,44.58971924204526,46.51807377596725,56.439250391551,58.653836798238224,56.83861600305542,66.76878467759123,75.67476374471902,72.72819551728028,72.43746538018652,74.28782136877624,67.16002571114069,64.32328572456495,73.50964452597316,77.67462722869922,76.11190358014449,81.66650599617275,84.7917754348876,79.8158636210641,83.24441538869577,92.20027704840535,89.83872783583024,84.98009732129808,86.78491753330405,84.29887648310647,81.0785265159145,88.77296678060264,94.1683093573808,88.0767549426752,85.66558013484784,87.1135520099416,79.54012142264298,73.01177143257999,75.99881624557503,75.66955820890442,73.31413668469517,78.632524034949,78.33351112062425,66.56280161677019,62.21510176551849,65.96803141428028,62.91079739892717,60.44122330387604,64.7905332216907,63.51935738537299,61.734370083099776,71.37745795614057,75.78291943449037,63.989137266989786,53.24716984794703,47.29506295560678,37.32919534524482,35.11233215585345,44.185058559903005,43.692654100537176,33.63012338462031,30.479592660989148,27.637897197696898,20.225445967417365,22.448227770930952,28.595773096716822,21.11836845846120511.326743036662066,11.85559419617185,10.604595403633507,8.012609604483107,15.366746694137134,19.96021303316417,14.119103931866738,14.443696330087011,19.991152190502856,16.41201571392427,12.487096339618928,14.662910969721654,9.200201797487217,-0.43975987995855137,-0.3507961985746402,-0.8348205228629361,-7.797557263788713,-6.465724997838214,-1.6013598207897028,-8.420715097137426,-15.76460145938282,-15.72530525359786,-21.553007804972886,-27.862865913159396,-20.028984546049152,-12.410985247951967,-16.59146603806844,-18.66553568176159,-19.458344916067507,-30.078318117657922,-36.36288067468228,-29.816366972660298,-27.880094892905383,-30.819081303023562,-25.61583399674113,-22.610292364918212,-27.715481482193525,-26.22143071540271,-21.733571801884757,-26.608985882133418,-28.599349603310788,-21.67965305216413,-21.73564215855618,-27.15224045458953,-25.08928502745659,-24.334621164748466,-29.716001799366722,-27.669159353192327,-23.653508163206865,-32.39832315108267,-40.19800416514981,-34.97960543748117,-29.945533188344587,-26.448715793159803,-16.970677914802444,-15.842636175228225,-28.66324071686929,-36.07063340943045,-36.554252820270406,-42.42114142518037,-44.50294406866785,-37.544198824161214,-36.32037538653103,-38.23607203867637,-30.877176146374957,-26.617662994516856,-33.843374930599936,-37.403899708436704,-36.95864618513115,-42.66275857562074,-42.80742891247135,-33.3251710571043,-31.95870156415002,-36.22758126772356,-32.23866234995702,-29.34625926840713,-31.867618812531322,-25.496717690505214,-15.690021492165728,-17.081366113788707,-19.094630495174798,-16.121001860220254,-22.745889290503932,-33.003350805601144,-30.667630009470038,-27.07081636039189,-30.953713624713153,-29.44982407713749,-26.831036793157555,-35.18195489202187,-39.289783200967676,-30.32593841057954,-25.105300738982383,-23.971234853573897,-16.27144405614979,-13.189074739257066,-18.564603724465048,-16.05603907551547,-9.99941405514262,-14.921342301892397,-19.189940975412565,-15.321404874076453,-17.45406093047663,-21.694699853155285,-15.481514275197819,-12.161642520439289,-17.495153266404706,-14.01675144202662,-6.182325767821679,-10.518091608961534,-16.44102455685047,-16.596364922200046,-22.931325863952072,-27.057460063983804,-14.218648225232903,0.06692744851744603,4.921452474295752,12.38559664198847,16.642071210523287,4.921714302170088,-7.100115202259259,-8.401111591218829,-10.614907685966806,-9.962969089122524,2.0337842716560512,7.490047650873937,-1.279342049580713,-5.348415493158321,-3.7101786993344,-8.098319190718543,-8.808236289489987,-1.9110064055546143,-2.3763978478663663,-4.865480122848173,4.138242393588362,11.263865794327272,8.963305486754624,11.579442592867084,15.036545893470748,7.032232656700164,1.6736774371487164,7.217935123451184,8.571320342999979,8.09431611937198,16.33783738693868,18.006798233810514,7.11375297261913,2.886554522468462,4.132646855477811,-2.29992589434366,-4.356427911157279,4.141862323092211,6.878566973177334,6.2961200558162345,14.51339158240044,18.739142458103963,13.521415062789377,15.91567360965209,22.20519206155928,17.584425341532324,13.175607383981081,15.134028967631888,9.150292178901154,0.8155933010413434,3.963271241448701,6.650472414164437,3.481325759980283,9.237237350032672,18.01078837528293,14.983420862921363,12.200156125160039,17.117551984067948,15.528414734815739,10.207127229719575,12.444051308946616,11.66616931899573,6.171836725673541,12.822583398618905,24.12233518675368,20.798842810880842,11.712546629195554,7.028342756612603,-0.8920272568994556,-5.26343011598869,3.65219874504969,9.603117588736055,5.343691630892174,7.540045460257502,14.892989923110607,13.918505476307208,12.843902786383945,16.60370423548488,12.272285079113558,5.152871618063039,8.631577907060693,11.193493907701086,5.962828881881741,5.923673753671974,7.366398175586227,-0.9421932570839364,-6.180545847470534,-0.8200494371053493,1.1284616781439942,1.603513636777481,10.959839503710942,15.856258318745443,9.275891930376277,6.334862531711391,5.68880903536125,-2.4544664745366545,-5.06847335662636,2.429036907695988,2.5150206401108326,-2.8106540388347696,-0.9504721690356162,-1.8567506178200581,-8.557874200869207,-5.553625806833246,1.8917266396206105,-0.5237127310354932,-2.681030531038024,1.1046010134605897,-1.4237726204154935,-3.709250200779317,6.711639075678679,14.894777431154996,11.14764490805524,7.166787018442439,0.1277911099605784,-15.366533113693997,-20.429518254095335,-8.160431477391944,3.6141755001540203,12.755360312079413,24.168944444195304,23.83924982434128,12.539379496150348,11.585371503870382,17.107076869315666,14.80186195038313,15.832860845909071,23.867315047861418,22.52203044403927,16.467341197993175,18.17025807776315,15.186870235615867,5.253632402008908,6.934049799827143,14.099994428272494,10.530416489242166,7.264649846139838,9.275855252421408,3.1617376740724676,-3.638992681060084,0.21519087950964,0.7702844457639747,-4.709626811618692,-0.9602024762908166,3.9931228800193295,-2.659195845737994,-6.48609818783177,-2.023383952553093,-3.8057850907437354,-6.688003504163245,-0.8791152099522876,-0.6413711745086315,-8.308327849363694,-5.964210811591988,1.0283426273499168,-1.6381295005299519,-2.5683135079764634,3.451003876164809,3.7485225121344574,6.9320493674922155,26.559241408481494,48.77256933616145,69.4007896940227,103.64504971489868,143.17249221672756,174.52503268745002,208.7428141245329,243.2213525039433,257.15049450313035,254.1187503940647,245.1290568346418,221.32033621649154,188.56865390946547,169.47253027419848,157.1969754478581,133.2444273833404,105.32585666459849,77.55849909584784,39.951853916950455,4.3121014287641986,-14.906395226316807,-33.02329122048342,-58.16261462341461,-76.32484411105992,-91.68161088012042,-116.3261320775688,-138.79907900362008,-153.3587820371255,-171.8614316132012,-189.0722497576869,-195.79194673596544,-206.49721720578756,-226.0393286252559,-237.8152043418943,-243.56959235254732,-253.24339275435415,-254.69475100145758,-245.26681907930174,-241.09097789718317,-236.8166969578905,-221.17655950871162,-208.26240004976447,-202.6411859120607,-189.13571408453845,-173.41978034773018,-167.80102679113884,-159.86730064901326,-145.63011920199529,-140.1789147197092,-137.55345908999084,-124.56624284497761,-113.16635589757038,-107.80195363444169,-94.2651963327867,-79.86132490263965,-77.9050883032281,-73.9024300099922,-61.02275017506504,-53.910145462321076,-48.000303877940006,-32.60326873844231,-21.77145154201877,-19.25657177765808,-8.47622724710928,5.11624052151026,8.223091037255513,12.075610316645719,21.11692634440775,23.149618976777514,25.056237037785962,38.07237688229548,49.482166730505256,53.586268023119295,