51.26463222560579,36.93464088268679,34.41796165127877,36.19532880999445,23.775086915107387,16.696954728198065,25.761173968091704,32.415113803573746,40.43894153910415,57.2601922415317,56.64048460675088,33.42887417400672,18.21013601250019,13.065664598628786,4.768385819784136,6.434302220889332,14.457618429912987,3.097054930366712,-15.770514008854711,-19.317944923677643,-22.915390508674633,-31.967180788530563,-27.126778502203223,-20.564162529573718,-31.335732608583413,-39.61335560369706,-38.671474298605155,-50.01196889674809,-62.980102014641574,-58.66670305285976,-58.34857628249088,-71.28241038746334,-76.58324831770562,-81.80928112411148,-100.82015484450801,-108.56248224292133,-95.57729621770378,-86.76264537993903,-80.7607077021332,-66.98046108470322,-66.69664832848775,-81.72987347260572,-81.70059252978851,-68.20631731729831,-60.438115060499285,-47.49061266200062,-27.534621174008922,-22.03008014235592,-22.326676779503003,-10.601320353079004,-5.626629952084229,-14.616155769059663,-14.439669928108934,-8.2976822184,-9.210337136687945,0.15758820994077505,18.488792624718048,17.7688726024575,6.401612953656983,5.586140782704216,1.7686320743011277,-6.5024138099846684,1.8328963359508084,12.991850710773736,6.7473069352866535,4.362330360372291,14.973710502620081,17.2199609863534,16.354106510285725,24.396227587130973,21.987395296524817,10.446663333383595,20.102518034318983,47.218016113613906,73.17056338716104,107.82685674322957,143.93281979507202,148.61179579372902,126.60027021358859,101.32738030423687,67.68630612732633,35.29110144783516,33.11915531587514,44.67844006686463,38.02739695975308,25.415560417892507,17.577413744734496,2.922265335810164,-2.6874678107214938,15.626417646198796,27.637627055371322,18.157981416246386,11.288550958534671,8.18032147302287,-2.1452408024460112,-0.9539600407225601,12.85454414689359,10.863245099875407,-0.5703198123830253,1.5549022203975493,4.083580657826374,-1.0126823017897437,3.6541253938029485,8.90476243918068,-3.38992121191011,-14.461712239115496,-13.0761396562561,-16.929919442261397,-21.305031353908923,-14.371389815360834,-17.452022377855272,-36.23776306056424,-44.247731836389825,-43.800254019368865,-50.78184130706349,-49.55182062207275,-37.777036510739165,-37.33708402963776,-37.264289299952566,-20.476817641919734,-9.90696671047661,-13.703138202105418,-7.105887389277891,4.320688940646097,0.9814786318959019,-1.610508805290636,2.8468222620146264,-4.8471496880581455,-12.099323282910266,1.9344647874796772,15.048949184437827,15.028469203229626,23.993785932677497,36.72848659648921,35.006468061069235,35.36365822012192,43.64362681507838,39.16986980863529,31.20158111361848,36.39140549310095,32.228790252291034,9.837604711177265,-5.245999352599676,-13.195381550340741,-23.91729166065737,-16.20546509553406,10.480367300381957,26.853863835720105,36.795095886075586,53.43386913719846,56.14932835563716,42.26860950562558,36.765102131524564,31.920033570911038,11.745991786950091,-3.093673931948916,-6.654192774798409,-19.765722901713325,-29.238909894433878,-14.519321689166164,1.6467650735394437,5.901921676115588,16.103085033705995,24.118441302009085,14.368292130887129,7.192747414773854,6.171853001904472,-16.395203884784078,-51.01887159007599,-68.54818212935908,-77.95696993230534,-84.94118425107868,-72.36143670243351,-55.88730144686304,-58.72958983070747,-60.928061385356465,-54.56651044254123,-63.58644215170279,-79.16761966079258,-80.70573766770521,-86.1099507514043,-99.66558250886858,-95.54882361141473,-81.66806291047762,-79.27194935543723,-72.81836794696827,-58.46869160865384,-59.57074626257912,-64.2797265005637,-49.20023331336242,-35.0866295479652,-36.72389313062568,-35.71077629315627,-36.23350669749705,-50.33321549299647,-52.36337406049367,-30.488651237407403,-11.912568337655747,-0.725420089767663,14.50654487434453,15.672890675210299,0.719259005005509,1.7453931399277032,21.426365338663913,41.59389129035881,69.44936284021703,100.98990030275644,113.03906422511929,119.84141568266114,144.82225928697548,168.6627704461224,180.56141813527432,199.1356325023021,216.79416447538313,221.37709363363842,233.81470362155164,250.1660115437046,238.1124915779805,211.31646987233086,199.09035374384803,186.10918353380254,164.959086160319,155.04099060257232,143.06526322557193,110.71020468448137,81.06331313377487,62.48465832634824,35.58095426566178,14.384476316612044,19.64723844099951,26.776541426276623,15.68119186479251,-0.10778641241162035,-21.478422462090013,-51.82456734820475,-65.76694602995448,-62.662051958789,-74.05226387492408,-93.80480875972344,-97.15683263567435,-95.54307935476716,-97.01811792919058,-88.13627290621112,-82.06091934203124,-94.52841809502235,-101.57915108267429,-92.89917894348369,-91.86653149925988,-96.73648417352953,-95.10398330604511,-105.97577720651364,-131.4022091385325,-141.01695826654583,-134.14383929010998,-128.38548874372765,-116.1649357749491,-102.97116532882427,-112.30445517453121,-126.65037079242738,-117.02016031115298,-101.24396093338855,-96.05346948217289,-88.76986506235895,-87.29865393323301,-101.12382708193154,-102.65226621801,-86.39677542840442,-85.5203054991435,-98.35368661104178,-100.49237282943584,-102.0386165476282,-107.25318494736196,-95.36988386363575,-77.47222470251896,-74.11342172578887,-66.12042153117805,-47.96650519646781,-47.786545178911176,-61.029086490374624,-64.09359419509354,-66.78033415974686,-70.82204152573827,-54.65805651835849,-31.942338074814252,-28.306416658385267,-26.988418206115405,-16.12588502585785,-14.286449669723888,-14.513164331946813,0.42267031459124027,9.603753657391604,3.7224049623616553,9.85321263182405,27.04198129903266,33.488034991716916,39.15612689994591,49.236530744394464,45.73155501721367,40.732091695812635,53.635648068111095,60.78409416185747,49.05161439456484,43.59995887300112,46.013977169402196,42.43374774543437,47.81200003960235,61.601250768381064,57.43901231293201,47.056771374160945,56.439858972257845,67.17706422087747,62.46719086953025,58.27951094692794,52.00555133893003,34.00480428777234,29.740793037968103,47.45620103045874,55.29475444434988,47.80683803452314,41.72068725512281,29.599107999668547,14.313121050557205,18.9445835364651,32.40595276400264,32.27469483185864,34.40096243013853,46.98984238422601,48.83498514077859,44.301913650782566,49.52444668834282,48.643075684959214,38.53038505459007,44.267156538033305,57.17519222135466,53.22933320883692,48.83175817854924,55.256239720792095,53.3787530629482,50.83213330995976,65.73400535843778,76.33878121302115,70.15203363893761,68.78790641534475,68.32882287292685,53.71059888768174,46.78215015744372,56.80146399656547,59.42328467131802,58.50282213817921,70.79998876774081,75.84159655529795,64.75453162832139,64.16429824637085,72.21865154620559,68.41442790031593,66.50407317068559,71.69423927759726,60.411517529049036,42.969170674518466,45.8935359801795,52.91903477731766,49.151915649076166,51.65103628334273,55.466891901794284,44.03869760564359,34.84539087665031,35.27496601921667,24.46484243548362,11.141551906128218,15.166291582138966,17.185462029500417,5.147537061275069,-0.6191915844376454,-1.7124851422892955,-9.677901650822172,-6.024178423287184,8.732699949302209,2.9060132755508894,-16.910326837105885,-22.047001267580754,-21.492839719031757,-22.823549209343522,-9.811821354415983,3.8257533349603827,-4.173915149663014,-12.54856378701927,-7.134298417423449,-10.160790285699184,-21.170846669372487,-22.458383880287727,-27.05277454120032,-41.373887936673285,-44.87431757692578,-45.10548011205724,-61.468972962380036,-72.39212373725141,-62.330464912594095,-53.29309882366944,-50.02227473313026,-44.65092550589202,-54.45398816847647,-77.0864220879519,-79.40424183348233,-64.47852459221467,-57.8797172542671,-52.00413620866921,-42.16053464066367,-45.92593824587367,-53.57050503847711,-47.839499004557794,-47.51397237086623,-60.0041312926845,-62.15338902501845,-56.58560125916358,-58.288842266254406,-51.62743255914434,-34.99877727740356,-36.153308497348014,-50.17529632175636,-52.50896289578125,-51.50302616390358,-51.90350218295157,-37.229047304425194,-22.61370874317749,-31.32226725357939,-41.826623283251706,-38.71774168665016,-41.78126902835149,-47.209738858717664,-36.85386922845407,-26.806176491849165,-26.098576034057643,-17.30965720965323,-12.91428851117167,-31.828806526074445,-43.793281119952695,-27.938557729572867,-10.214555093673571,0.6015142178762647,11.190575354812259,2.2037453115575323,-22.080155419415554,-21.765117731237197,1.2067406354408883,14.432332869942789,20.087931694140124,22.56737616574058,6.322046650416478,-11.497348864509984,-3.2037239432644733,11.482049860257971,13.328825419338909,17.63847252062734,19.582442668813016,5.097820731178653,-1.7182853638354012,9.333795883634021,8.922999882400259,-0.9901355332370669,4.363225894689427,11.050107926535798,8.176709140341089,14.862570648355362,21.75071967056334,10.26280606404485,6.687019879908179,26.094535548257593,38.92944127015703,37.98809139175568,39.76562632391607,34.504882530232805,21.09540283335818,23.628279398611056,32.23059875684561,22.66068105718547,13.385330892462562,18.651223289510565,19.065341625153263,17.350675766881977,27.19746930448165,27.341356393847086,8.539576089743006,-1.9973339131206105,-2.0157802734367944,-7.164167185659987,-0.9289367832126842,20.419154664427804,24.273802088101508,10.818249110438387,6.555575612671065,3.536018493086011,-5.586948878036801,-1.2333327836543755,7.814343580888677,-2.4151436249419644,-15.218671008217331,-15.327745797832048,-20.942589329844484,-28.661000778036737,-20.119761155948936,-13.126015450760988,-19.40118628903729,-15.093030270456161,-1.6786522269366073,-2.319542230508788,-6.500627774821209,-4.6829174790209525,-13.66270778634482,-23.341579992665263,-12.771720514707676,-4.1120236728923985,-14.808207757142316,-23.170041274024367,-25.138336222774992,-32.866238347838916,-30.774833028652658,-14.351456175610187,-8.348526647508885,-9.359809310302728,0.6558424488277641,3.2747398359247724,-12.913741584563699,-23.315402278714913,-23.30530829897836,-23.978033786478278,-9.352430168767798,20.379321998745446,31.026339459118507,19.444286396820445,7.0712381244818925,-11.724088875801653,-36.12873357049835,-41.82038696860488,-37.81635354950977,-51.51681641552672,-71.34598083959564,-82.96990018422431,-99.5377278838116,-114.61579822869963,-110.95174966003067,-105.41753350780743,-108.26656981978019,-96.77396127509644,-71.87791648190804,-54.578032082726445,-33.67070883138723,0.07937064417601825,24.878952468568205,40.662300048817734,64.80403416093634,82.25429094849376,82.30141340168187,87.58904915354809,99.04547132428574,96.57547582233234,90.9030314838771,92.90131370392575,84.2871573712613,68.87927509373932,70.45832244139757,80.03265736437709,83.24914768502609,90.20019694875548,93.99057706789307,76.74819895898965,54.951990608993974,46.4890655664632,38.71087046862502,32.37115950470476,41.57837424382121,49.961818938750405,43.452311209498454,40.75769782786704,45.03693789407343,41.524947519463964,41.46597031799715,52.105121183667805,51.842918030595584,42.19640584506506,45.13548335259884,49.0905639795848,38.58856988424396,29.34838091752891,23.623878523483807,9.855953963819555,6.259632980650925,23.622235122850167,34.10655850912792,27.557026437922225,20.021434145155908,7.184408528706251,-10.301652939113739,-6.112248055283083,16.115968694512688,27.00632753214923,30.116012122876644,38.82231837248942,46.93867465027433,66.17207972257907,114.19575685670551,168.6500768365981,204.27448208332413,228.64366603163836,241.13468528823327,231.6821691372508,219.49200961128008,218.3105357701504,207.03141969954504,180.86338830912993,157.83348584107307,133.7405960783347,105.15449601779919,91.98090796992736,90.93508358083469,79.72441540413956,67.55230472181759,67.39836890471204,62.777344565834724,49.92866455308314,41.92794451013649,27.981635246355886,1.3312580772719826,-16.58535079879804,-25.665987451261756,-44.92051518041745,-63.04720495284637,-69.35308334658973,-83.7337507153102,-107.70912522086039,-123.61802313540566,-140.97433572061482,-166.85284329697322,-179.70428195935574,-179.8303300877309,-188.04667748619784,-195.5802305021353,-192.59074441844854,-197.11055548708885,-208.92878967182537,-211.31469249120005,-217.07083305187084,-238.02038243136417,-254.72614633428458,-263.3514146464035,-279.31659604487356,-291.2315229128173,-288.3832638033059,-290.391585188862,-295.49764774090613,-279.6104736468697,-255.3384767241144,-243.16233640894586,-228.70875186873067,-212.0873989749147,-217.96878813860155,-243.67827289044703,-281.88686967914646,-347.25041819546203,-421.7304283880047,-459.41506730068625,-456.4843440022287,-431.107403212264,-377.0651257009922,-296.8033988551031,-208.93048300221017,-113.34648081663624,-24.099958985339143,11.363429708349997,-13.062084775688831,-44.013150711241806,-39.386520542791246,17.09509486690834,127.68136308776243,249.97428952495744,326.2637728027242,357.4358555873655,376.3240041215507,387.345060450416,390.35609481411575,391.64130553948166,370.4147864685541,315.6757449261812,265.3849566626057,246.0351959867752,244.77958257184505,258.16668042998333,280.08895822830107,274.4727042957589,231.45394890612292,183.73425086711768,143.83085727287767,105.61173433394046,77.96462978680111,50.78359433247654,-4.175703987772025,-74.06225015405171,-126.68775110116344,-161.7266991630219,-177.5435786536319,-157.5556540428182,-113.70925149079994,-66.40214981308849,-10.491834559203873,41.335378008314144,56.60178898361628,43.79413198812654,29.64013951991319,10.845111756612226,-9.841116312235595,-16.680468028559055,-26.021331166420246,-54.995423306169585,-82.79663941454454,-101.69848433128345,-129.56270041388657,-157.0878566925034,-167.79552279243066,-175.44181267498192,-181.91336267732086,-170.07862521346956,-154.1011952256527,-154.7720157402869,-156.122509390973,-148.8242064887604,-147.49447719231262,-143.51705456803623,-123.02298713442235,-103.35958965293662,-88.39282437103445,-56.84021504763736,-14.792237482307808,22.873530692322085,71.12675802760282,132.03290807255792,183.4419031537153,227.9566121140301,274.6453735096672,305.3111521119839,317.3601916229119,330.9712218906226,337.97022154282485,323.87970335661623,306.8550251854194,293.72074810615686,268.1601705123138,238.77910046555792,218.2083227114231,188.67474711161418,146.56890437942548,111.10668500644294,75.80378036329924,32.28268031572551,6.399428596795482,8.36274162326512,17.37982708842644,32.71000290632648,58.27063656337023,71.92743351051067,71.16234593179072,77.35733678244115,82.1970011781968,71.57979861635606,65.09510874314142,70.71568106136863,70.17736999683667,67.05598124674299,70.39014392635947,61.15286579088236,36.053752991118074,17.92854378535521,3.6824824754729604,-17.803850137801444,-27.043897598131807,-19.00478133315181,-17.880220582100158,-23.16071870868848,-22.17857627550415,-28.79838990024637,-47.38180167451266,-62.76607128091432,-85.2768230626348,-126.6536802422411,-157.85233415329606,-156.34349747498686,-133.0119777446504,-87.742029502409,-18.499350812971123,49.810923859703266,109.62743060661504,180.33896092994522,254.49817833461302,313.46484602385203,367.32120105289766,418.0752668936456,448.0997596130811,465.60299379677576,485.25574161906184,490.14319658248917,473.2008777943839,451.84819236878207,420.36419321683906,367.56634860558984,313.6359613906707,266.6404739752236,209.58998860196868,149.56107951875742,100.47862465920774,46.396352878771665,-18.724747331813276,-78.68496011784566,-140.60734437525903,-216.8679182391907,-288.4163439053996,-346.30224792847616,-406.686957012086,-462.7595599995404,-500.2751481452656,-534.6654949580495,-568.9711812622004,-581.0016740833128,-574.8157951343547,-563.0904254396853,-526.6294121772011,-458.61990916709635,-381.71937492667996,-296.87493720986055,-198.9052280561026,-115.39307090989581,-59.128220534709655,-8.113630184006148,39.93031061115838,76.19705495055342,116.32091689292866,159.15231045891707,177.24343652946249,172.47884054065224,162.8368920146421,141.80562714142422,112.7573670664851,98.82212124846168,94.58487712617134,82.88198059567401,75.12500837683713,75.93227260994433,70.05124289919064,65.4678551777557,74.80678882853572,78.21959731791318,63.662881804785776,45.2623517612888,20.255150979433346,-20.481745926711664,-60.22381983706436,-92.24311733946732,-133.5591661524774,-179.93235592067276,-214.94844732874859,-245.9025259712486,-273.99268231075547,-282.8425105690229,-280.8563704914106,-285.4190588119417,-284.57944320865056,-272.24770415960154,-265.95360759860193,-264.4234107937641,-256.6043953294514,-255.94152753591578,-266.15354871762247,-266.9904161164689,-262.0706891891333,-267.35996211136944,-267.9377372775205,-251.6616481601225,-231.22919090662953,-202.7310787096387,-156.05439420785376,-111.16736196664083,-80.5969364387174,-48.75505777349615,-17.204423633151173,1.0141536452927862,18.006846295589785,39.564884208069444,48.400881657119925,46.58420910062832,44.72421785766043,26.62699595559055,-12.470893913955173,-45.972927216933805,-63.82414760636699,-71.4735297624374,-58.22213582951615,-28.350028374378965,-8.360128982341376,4.525681535405411,27.392609384391047,46.284891459965685,51.82940439504526,60.49996145094678,71.30365712879542,76.26095231185198,92.94473421472699,123.41700933533532,139.4883794572127,135.53489687993064,123.17042264626525,93.09751736031484,46.21611423234921,6.958422971811871,-24.49974824215797,-62.176862061798715,-93.15036797142989,-105.96360448602087,-106.03514537311322,-79.43485810518092,-11.044511756913597,77.77037360325534,164.3727372886379,245.62928218791228,303.2001167645579,320.93213296676396,320.5457109669626,322.16365710210835,322.8911083536886,332.61803673863284,358.0391382358746,375.55183522053494,377.2362604894681,382.9971282884985,388.22406608795643,375.24538502129604,352.23950173248136,321.79855595042164,270.4200064809578,208.44464536363293,149.57459126238115,79.2444505307059,-0.19185456365941178,-57.1050671114543,-85.78248972893758,-99.84186208051761,-93.29259296036098,-69.492786775064,-50.35438805639163,-30.443389638213873,6.50169438234416,47.26278703384815,86.19387708931689,141.70953742906858,206.02204336263446,253.94764492832576,287.0674854016451,304.5464904978011,286.7199258960881,240.70689946424704,189.30336807591038,129.49684545329086,63.34998966690014,11.319506071555063,-34.921842245465044,-98.13461979125094,-169.8968121927948,-240.22749329602556,-313.9217283409161,-370.4816545918938,-384.19174347940043,-365.1535602491729,-321.55189201607885,-245.19858795181077,-156.58922142223773,-84.44482969291172,-23.00623750620478,30.717383933554363,61.70541365709802,81.86119726656237,110.39821270449897,131.52076814038372,135.49461683137446,138.58903977097418,135.21969481325434,110.75864828184353,82.34120487001712,60.71245579144144,31.72037898896388,4.191756994001309,-4.86159141695823,-14.491899696936144,-38.138851287664885,-59.1042753882853,-79.3369922389456,-109.60783613034958,-131.29822806158344,-137.2646302380261,-146.97604603224607,-153.20732468635495,-136.1318114665624,-110.081251293126,-86.72342361832006,-52.83914075318093,-18.196530591883526,-4.172538074615847,0.26110803407523797,0.9539044324755552,-19.98353076766233,-52.74315635596097,-75.1648841033049,-100.18343601218528,-137.37454868302692,-170.59288839560426,-202.40613480655733,-240.58298654509275,-261.93210652414166,-255.1690438450932,-239.8287636939455,-216.49953952058638,-175.06512537398123,-132.2775250348249,-95.7496091263932,-46.880881537381335,11.916087801339684,66.49861295318054,128.1170882826218,195.46462455713947,238.88620476893846,253.23258477448266,250.33578449465836,220.4732586170731,167.50713542691147,119.3387322564308,75.38042825413812,20.732138801890827,-31.27802576672728,-74.51929795215135,-124.38980715221223,-171.23187175776843,-197.84962946442104,-219.69345252265225,-243.82668683387823,-252.3523111318363,-251.69173267374748,-259.598390234374,-264.62694474577404,-260.74831075089725,-262.12770095338107,-258.64270300027044,-235.43942211183446,-215.57951612119376,-216.496064913911,-226.43249104111695,-249.37602516270385,-290.2059840547125,-318.90916984357904,-314.5731876493402,-283.1447700509434,-217.17298036608952,-116.4499988764707,-17.212212471250133,58.65514769788554,123.81661249495036,178.68342537035653,219.14350009128287,264.5717007989228,317.69392486907986,360.0607824647061,403.9817513642601,466.15503501182485,521.8653981296155,551.5529338993624,563.5745586610992,549.9138274792813,505.1998635120368,460.61694376417813,429.27757294164263,387.95010302259436,337.2043413300046,291.1447606707807,238.02570178868473,181.4277229493068,146.41031975808528,120.46136843754363,75.04695268623763,16.82274312321595,-46.69338779405109,-120.35455991275833,-178.09381567347194,-191.3598063736158,-174.690425543826,-141.5959802837208,-85.71715356102662,-26.350513173826574,14.497558525313174,54.65235919515426,103.68531893919423,140.09076001986952,161.7406793435436,175.3719687079297,162.685522813886,124.49030397199489,91.92285063527444,68.03024841891218,39.68369705467916,21.969644213267078,20.651200027737936,14.281081748387372,3.4218978479689195,-1.0838237023241635,-15.210942254611645,-41.64379219417984,-56.95917193442609,-63.76812117882664,-76.66033698087612,-82.16533784595188,-77.70448960617453,-85.19522364746418,-100.06636825814414,-106.24590172434955,-117.18723033198144,-136.88569641347573,-146.71166935056823,-155.42353795293607,-178.19952875798316,-194.7179165948927,-196.71979879630697,-206.07589607399655,-220.21560556939346,-224.31695824501452,-230.25625525159802,-237.4473154030821,-224.04308522134062,-200.57524801545597,-188.8239972228775,-176.2122001603488,-158.9757778914321,-159.17523781850218,-170.140260605474,-171.02487844600736,-171.50777232747183,-173.00639374670405,-156.09170313214767,-133.43288680468018,-125.8433300692156,-113.02423476516238,-81.60320052337795,-50.543140577321225,-19.33560455318443,20.34581121207232,45.811598629506676,48.90557850820779,52.76290968207141,54.788516215789585,39.3532282886396,22.707807586974766,12.592111847828235,-10.80189775913519,-43.29804984919994,-70.32654768052465,-109.09683499257284,-165.30941476794163,-212.69600731532466,-246.39618018094424,-271.7306436274993,-263.6489572580532,-215.10517871249328,-157.79932588257878,-100.75787143408482,-38.22168613118162,7.649491816594801,30.703654474738574,56.776603196805326,83.40023386272328,93.08295778828547,102.87368361010508,124.05762268224157,140.08726149859183,156.9735143242457,188.4079110649209,211.759045828228,211.06987776728874,201.6651998829181,184.07008323778098,154.235416958928,135.92374395751176,135.76904911117984,130.59876198421256,124.04280960011081,134.66689168850985,152.37622812568208,170.02751041871608,197.27483618381234,222.38923082631376,233.74150846453227,252.60598454681613,285.76028293405614,307.60294764941546,313.2381109507666,313.3605798675143,298.2757931374131,269.15251013907596,244.0475007481221,211.73137043204068,155.7057655502487,95.23170800081957,42.158557007546534,-17.109716000528238,-75.66527025111711,-120.42382767095056,-165.95401024566726,-211.95189105029812,-233.7196251030279,-238.41251964896077,-247.53768830674932,-250.47341839658543,-242.98908756466415,-241.9469334494158,-236.34066703125006,-208.1104664942858,-172.6435120375748,-133.36149270364953,-69.09380537812596,10.278502762080528,82.58779424523233,159.37805084649443,244.2612170172748,315.22574590372255,374.41980740631715,431.0728216515827,463.13219752980825,462.7474375485557,451.38038788720223,427.5258529492829,382.57171318772816,340.8845525305826,315.10915119920327,285.56126686929537,250.58164537964007,218.80789711719342,177.13096121963778,130.37781510602886,106.82769623656536,99.0498248940203,79.81424721431176,51.946797305774886,14.226779200990478,-54.339932473440726,-143.66457740635877,-230.12278389384403,-322.5936834281245,-418.9210575235476,-487.5686089291306,-526.1266654630431,-548.454553318186,-538.444026545244,-492.9084520416982,-439.5552844023506,-381.09908519742896,-308.02916578723256,-239.9428337835548,-182.46504935918233,-112.07931388326482,-33.307444246281875,33.039110734805206,94.69774793879839,151.0164288224916,178.71797278110105,185.6948689002882,195.32157228701118,198.29939639779127,188.6772054431184,181.86249562053368,165.40654356138126,116.2238815246927,51.337370617084275,-9.364477692480524,-70.58089134075013,-119.98491357321294,-143.71031342221494,-166.7462867489622,-206.71543310154826,-245.65071979530737,-277.26386986647117,-302.56906362476496,-297.9118576183852,-259.78865155410534,-221.53058709893398,-192.1934369701998,-161.99805361504394,-146.9909474987499,-151.78746609098457,-153.23288130281148,-153.69780380630263,-164.31456036864347,-161.4873991525527,-134.8292095511647,-108.07975114218078,-84.386419125316,-57.44744523977133,-47.96690955041347,-58.37894729143698,-58.433406866592094,-43.21285126371444,-27.071424402919092,-5.018759338816586,14.315969202450423,4.859408032246856,-19.63520093357579,-29.063785588481203,-32.725658642028364,-41.29897907851427,-42.25818854835148,-43.83110180740504,-58.399311916189156,-62.788851442753526,-44.87090455884247,-24.194425396726185,2.7446118318555603,50.287585059102184,98.21827014515543,132.11805331496495,164.43218106759954,184.97204507834755,175.27816562912417,153.03101218272542,133.7608561097845,109.24162574017825,90.05027824164307,88.4118334208707,78.83514655638918,44.88522539616801,6.681474309328314,-27.821109565971028,-60.24365347593164,-69.01698080242718,-48.7966811191789,-26.650621829673067,-8.338362167403034,15.543737373851634,28.349107871022195,22.32757082233799,17.470072549311016,14.63826447863713,7.826993641507465,21.935163942347618,68.95757179102642,127.00832479954278,191.3577275912062,267.0848671301211,331.49797676699677,371.3902004474595,399.35994257566676,404.97460527832004,367.74127857451265,304.17818179640585,234.27168417183577,154.87504418101636,81.31660143880734,35.5610059838782,0.0629007197971525,-46.06017878488451,-96.4605569445309,-154.90676611634498,-224.8829952922755,-274.9943278991258,-284.3463085238314,-269.3869367396857,-234.5188427574212,-175.8351239625433,-119.63090103344274,-83.70889769931455,-53.50363266048346,-28.231820148823587,-13.296107178985402,11.728874283621511,48.64233934084248,68.9224880394764,76.21404022786952,99.11666992207569,137.8842715932791,183.3064111650522,233.48150695278005,264.88211005512886,262.0092528336078,255.91664613453435,268.3302217497551,280.1700698395035,283.43005983499694,282.3348967139675,262.9651244790112,228.05940709446722,201.09895771887923,170.9328797569908,113.45035439846743,44.419715395669876,-19.592567355528672,-85.96516762999372,-141.68691693063656,-172.07957788396325,-199.86997280916876,-234.31868994745793,-253.04840781864652,-260.3654225987252,-272.41962208858,-269.37013560575406,-234.54675713518884,-179.17060761207583,-102.08511208209397,-6.7560998435201896,64.14991332097047,87.8991482116362,94.02559116508674,100.53990355547229,104.71057800437676,120.2795962080811,144.45524926651453,150.1973122445565,147.3542649897432,166.8021837616684,201.64475597479927,237.63216438792517,278.3817543940305,304.13645953428227,292.28560639216164,265.9993976791264,246.31696331697015,216.85873280517276,173.19429486162608,120.18557319680184,38.79380507970954,-65.91746030517771,-151.59908909417487,-208.72789111643215,-254.72617649899183,-282.46828216823343,-292.69732964308935,-309.4415883516523,-327.08980227318193,-326.561897202171,-324.7237512391788,-332.8273143802798,-329.53455767285914,-315.014092519178,-305.8281865192724,-288.09410052536913,-255.74897887279707,-234.17878918035694,-223.01708581574798,-203.05788102581215,-187.3381873896334,-185.70044937578854,-179.64318488826936,-171.31207183411797,-173.45296893004914,-167.29541665076005,-143.94525629992646,-124.82688869893576,-108.41375137340961,-79.44772338859954,-52.80148627104663,-38.16467681990692,-20.207403289625155,-5.855986993808322,-12.120813327246228,-24.286415890196814,-36.09589363762514,-68.38668141710916,-114.71276518695177,-151.62442486436348,-184.4434564578744,-212.98644270605158,-214.74624515528927,-193.51609618253863,-164.58678027332064,-112.75780179781248,-33.61646278921991,46.21406775935443,120.94034545725557,198.81501720307384,261.3789103440638,298.71609596981386,328.61766393991934,347.3248236517902,339.9905117461949,325.0747042627706,315.5457077779703,293.3125711120996,258.415157562403,224.12215774960157,176.84730234386592,113.49047601907668,61.85636794498994,26.01955986014739,-9.896695842631836,-35.90854111248093,-47.12533840279252,-64.12363370554486,-85.03910746780359,-95.76668408838503,-112.64858358852453,-142.0703293762197,-157.1832432629617,-152.12336769148482,-139.87482924631797,-110.92975664116763,-64.20224278911677,-22.186824216383393,17.02352076804282,66.69962702257473,107.93126398677856,129.02143072491754,149.96089649753827,170.01835956839733,172.87637123535768,172.92510582073322,178.9146151446369,169.81360283011554,147.09383940228406,127.29780906923082,96.42539610369249,48.42272795341272,9.854460113668576,-14.92374377495591,-41.53317205078285,-58.030543771502465,-58.05798543980195,-67.11639499111834,-90.24463332067015,-113.14665042028463,-146.51603582843674,-191.4464910436927,-218.36984616622266,-222.74194348173447,-219.49427127874156,-195.7278208230062,-146.81840352178142,-99.08030967543102,-55.278904281076734,-1.028596221830881,47.5005480770272,79.25941369334275,112.02833892979355,141.1554124441926,149.45235376378125,154.86253579387542,169.9253315810959,173.61430527087913,164.1792517346968,155.23548623085605,131.1442214056823,85.68531861462856,46.65260710185938,19.16283182810112,-11.956216148999523,-35.145142673145806,-45.87147575199329,-67.31749385379813,-95.98244130890609,-111.1465024834937,-126.53811745632939,-155.88407286588273,-185.28638765896116,-216.38833032617956,-254.76473234548817,-272.0340442974953,-252.34949372864153,-216.45599901759323,-168.07866221346274,-98.39166400667091,-25.664610433508336,40.201483802750175,112.85803705804177,178.99597977596403,216.55141113411332,243.65463090590364,274.74069606646714,293.01153930838433,301.31498305552486,313.430241308253,312.00462396789044,288.6282798885096,263.7614369852021,233.11588282730787,179.65293059846186,123.92121729258426,84.50549700437716,46.58940184758868,9.668982420838926,-15.913633098315836,-47.7610672628083,-91.55488726175913,-121.29911587631285,-138.69165169004572,-168.70814954257665,-206.08492719817588,-241.06342389488285,-280.76844750217754,-306.16473366129117,-290.3924443957913,-248.41831498718045,-195.03268599696747,-115.81704793463567,-19.018491426893014,71.17443522424297,160.02457334919438,245.8033884448097,302.6759375209314,335.54516391167107,365.2810386510406,378.83053444061375,370.0055374584001,362.3680843824869,353.8259177900223,326.7026968900869,294.93347062738775,265.54956777707804,219.112540652902,162.8307781755048,117.76650606347296,72.00307659778824,18.788721634594243,-21.977398138213584,-55.07320059621346,-98.87794014382033,-138.28526326144163,-164.10443587927432,-199.32069427432606,-246.3564111327839,-289.48502487929113,-336.21603912050296,-381.8429758534861,-392.82544955689156,-366.2892332157692,-323.11424154489526,-255.2193296940517,-160.47734322909616,-68.39390110286644,12.51348905844263,88.96674552438424,142.3359071038278,169.68712024404212,199.3612149970291,230.25773918223976,242.13811257565513,246.29598422708366,249.7348185269251,234.34345450398078,208.3323032289666,192.31883162512722,170.75719153439798,132.75904945173727,97.29533961129127,60.575990460482586,6.794827945200161,-42.782582901015026,-70.71558487370785,-94.9162077468798,-118.6101840007896,-132.7429460433653,-160.2078875928229,-216.49134968434646,-278.9482127739685,-339.928248585556,-406.89226045852206,-456.4884845104277,-468.62748965352193,-454.0686825959684,-409.05418068054695,-323.9117273326757,-226.19553782792246,-140.66123584647136,-60.43369515574409,8.145294714034206,53.14717014649092,94.89483939441355,144.06248476637117,179.57570763568165,200.88763694757696,220.39280964772766,222.71044905785104,204.67932535106485,192.64932477427413,186.08865222486278,166.59997598028212,144.9752528650284,127.0271605169312,94.54472923804735,54.65923692619522,26.18658982843511,-4.600635996123585,-43.730765957368575,-68.15460404981872,-78.59321815781149,-93.10159791418828,-105.27768267707478,-119.45455201303241,-163.88160177702022,-232.41452245983103,-294.9660587910609,-347.9203826662531,-381.66080946273263,-366.1173006167084,-308.6363513021541,-240.36214942075304,-162.0268095207409,-77.93355801242339,-15.21075082999426,29.810276301849157,77.10677751350114,112.3045706630065,127.30025718358989,146.22797024394183,170.92056337226077,184.44626775223193,195.83681704217415,207.21074606921002,196.28939938132257,171.31271609955036,159.85915344728102,153.58194103308472,139.88325166185388,129.93788489989032,116.24683738646426,84.5133891966249,54.23103427505644,37.10603686260928,15.44289471687275,-5.378523760943416,-5.258553049355397,3.300736410779458,6.12129121824432,7.893102545426973,-9.96624226131497,-67.71061048995428,-136.9837088823651,-184.72103479374394,-209.33020020877652,-201.34108891625965,-154.18512226674892,-100.60588520854665,-62.327700689478846,-20.977264936415253,24.253535652226848,56.777470494464986,87.29566296729475,118.09066783234819,125.11971036959866,116.01303498042611,116.72505733328586,116.86923668501541,107.69818960221124,108.60795601413918,116.45611299108532,114.67411233845519,118.26958889568768,134.4697943469153,139.33757797152452,132.87382057828975,132.79790150709388,125.61129168760444,102.35037700388776,83.34854540991387,67.83163802202056,43.502825300634115,29.812653764914863,35.168408837637166,33.21945357544932,17.13220146219445,-5.512848156074812,-52.68850089039294,-126.07771849728901,-188.90858560124278,-224.82688314698424,-238.78710397835323,-215.5581684072638,-157.5113111240966,-103.06235186358754,-62.90973065724025,-22.525284476842717,5.566308139393089,14.301633672438372,25.13283874067055,35.528529975381915,28.930581798878265,22.36674525732726,26.557860414302752,21.05062691286121,8.413115652891967,8.718326622876255,12.977908277542705,17.224608256569294,42.36558087418459,80.66542510014953,106.015748041253,124.32602181121104,139.72705092319887,133.03748331953392,112.47388234645834,101.70697701264447,90.23241636844345,69.01079408879906,55.116637341281105,42.91605705290353,13.926549733773786,-17.546883677474433,-43.57958616494309,-84.99939701187934,-134.32771903557017,-163.42315397377968,-176.86992051527977,-180.5411489479412,-158.18485197199175,-120.71183981004972,-92.88565181425696,-62.70077803752017,-22.509105514672704,2.226452545415154,8.389857768750929,13.727958904217173,10.896115723811583,-2.018554534301707,-3.4318869538358445,1.2852739791368895,-8.33948987296451,-18.099909068548662,-14.160186024226892,-9.941690503412897,-0.15322741863641198,29.67317535377682,58.85837456194908,71.33158224138052,82.97477211734262,91.08540334163368,79.92376318005527,66.45592584675674,62.406074074676994,47.40793658338053,23.813741543954684,12.732459256055808,0.5008806244714279,-28.92700109004127,-61.61097003370619,-99.821398516345,-155.9160445492477,-204.92208921217215,-223.60637760821197,-225.0576894122933,-212.75951389462,-179.77150436172258,-146.8901877858283,-126.76528663973711,-100.05762495653079,-67.85193955430185,-49.209834984888,-34.731940219841285,-17.39893975275009,-13.708487075632707,-14.500367580146822,2.3702983879681385,21.376873503525708,28.663768202523677,42.51620909807624,62.306735514913775,73.2225959376811,91.79200256128885,126.6339682364019,153.0929818014504,169.24854475411024,190.45038325297435,199.5070503059723,183.40612326892906,162.1918541119408,139.29079626593614,104.96035620569407,77.31047673246782,62.57251220386257,33.41668664831258,-10.583212961739129,-45.675022198373505,-77.34225100577791,-111.01285003623386,-126.75702497650622,-127.61242184860563,-130.72419027590425,-119.83934735564448,-86.52219466101573,-59.74437720436218,-46.13832365476162,-26.722595276346176,-8.846190368120599,0.6825873352742382,19.411311248156288,40.06403014066262,40.94553899568013,37.5012062230374,44.43573245857175,46.085545096998956,48.548444782101804,73.22534530845974,105.56978299170974,129.29069426403382,155.02860491274478,175.24904927061178,175.47196338353274,177.48027920667627,192.09179754855452,191.26761330568326,169.25352461857733,143.34762329674376,106.44913350424892,58.37035220187725,23.010448995473286,-6.518296719355594,-54.692422837497055,-108.88486722048457,-154.45324293093302,-200.8319870814761,-232.73392438183512,-224.94075600841455,-194.6940916303723,-161.59062422893058,-116.15172726206754,-66.91664709413281,-31.887868329477374,4.330691614212553,48.164487958725985,74.06100260076128,82.5462240724679,94.01350497664161,98.3732595417264,89.70936082213618,90.45251296862001,99.0500333888869,97.33346592576943,98.7487100136684,112.08943398024293,117.25824613071586,117.8791315659507,131.03560553997985,136.6622842386993,117.84999469717027,92.60815384177502,64.30283210584953,25.307868814948513,-2.2165791316808603,-9.211476914635927,-24.001435448401978,-51.472838749715955,-76.06982246727819,-113.43750022913544,-173.1634423955014,-229.19192933324499,-274.0979297683636,-315.3938037803381,-328.62074212204556,-300.7650944439739,-260.68367889061153,-218.79439002907856,-165.3087462188655,-118.19361824941535,-86.7604084392074,-47.00200158890945,-0.775074632709698,27.353745534872058,45.01695051931012,61.886309525825695,62.49687771020594,55.31224294811807,63.644640930107414,74.42180583329505,74.93626297285451,83.65829757505824,100.0178974540102,106.82263586576877,116.49083096197647,135.72935025845973,138.8101943011108,121.96390074609027,101.57171475373461,67.55214562933563,19.59866245979855,-11.844861996855006,-26.681523774045807,-51.18260790347001,-83.33737449383396,-119.9531280525015,-177.497405154592,-241.95635254853303,-280.09096640361054,-292.55410477016113,-284.57134270231745,-242.45404044421008,-179.3407528074531,-125.02212101502437,-76.11364036587614,-25.57921132552226,10.647546328888186,37.074848782479634,71.5908399145839,100.0777360306509,111.51396910361836,125.22422930735148,140.65519547652772,142.90800636010607,149.90531313772996,173.29896450093372,189.8393509189735,196.27311120062834,207.91322331767168,210.74897467164993,195.24932486456163,181.4627520775829,166.88700144113125,133.0130366444949,93.98146330568682,62.258721718375895,23.536034566677618,-14.852861280845172,-33.69217032933274,-51.55798204381125,-88.90370821049585,-135.15507509498883,-189.8179418355447,-255.48228253583773,-300.8837423669595,-306.7046671520533,-292.87025668286896,-263.0108775148417,-205.7473726295908,-141.58547183473917,-89.55960548330232,-38.974077954026576,5.163402476393317,28.427271765247873,49.252688480348766,78.85491371630573,94.33851510464362,95.45595489907159,105.77005580064403,121.0160996824564,134.56330996622884,161.3425297768444,190.25746575820472,195.1818601700466,190.055551980982,193.77544026965592,192.9895876329425,186.73678569612701,186.47756512092752,174.04902188134335,138.14371360744968,103.71691347632688,80.3285605196276,56.60913280210845,40.80882799733422,33.017517509716015,5.802608086538317,-44.041195105880064,-95.72257456167007,-150.09364257289417,-203.3565129825875,-227.26336379031687,-220.9821279609341,-206.41968427749958,-178.28262609565553,-135.27251439304916,-103.35777451190535,-82.07794137855859,-52.83287566949832,-30.312983611116323,-24.3266919321672,-12.797736656742597,2.856766305759497,3.2463131773044793,2.604991752491572,15.416069176941486,28.227343678390575,47.09685832130532,87.86049525778014,126.74629956314712,142.3808829958146,151.38181370259124,156.33674850395013,143.71542667218955,130.5723858303994,130.68679847135354,124.62745833138055,112.45939728714282,111.48377667699522,104.22972360294041,75.82924453724958,48.251674546086875,25.278975485872195,-8.904169090577145,-40.25359161529187,-58.85509090135713,-85.74925147055411,-118.7314520913112,-135.37736464239785,-144.34273131396318,-154.87176499726542,-148.4665842084357,-128.82762736345984,-118.04406179216394,-104.47697345709626,-77.72030156878532,-61.186060272463024,-57.62823774103248,-48.282232290897554,-43.43727854581061,-49.78442269939127,-43.36558461133479,-24.87364886208591,-16.573590674973083,-8.427243373862925,10.748579035159452,23.74980166831181,33.172575641777264,55.55722336991124,72.46552529326313,68.03961291625805,63.14394851523638,64.22772257746786,58.764530645248556,57.63043862869212,62.929597957415965,48.23089032916968,15.678045226440865,-8.950059634083818,-28.780490283751092,-47.980382032763984,-48.64377375519132,-37.19992696614806,-36.69867461915687,-38.327032769320816,-30.47725425151109,-27.21185438881798,-24.900341463187047,-7.025945912691252,7.684794273005686,1.2076246340856818,-7.033227277817369,-10.123465131650164,-20.439506239975064,-24.72536691333134,-14.128277970383971,-12.596273783989385,-23.903477968399674,-27.489313749358413,-28.96892412803881,-35.4294720923294,-28.675453456575106,-13.696711338116923,-14.023738053221617,-18.751714066715312,-14.078378486491388,-15.750607771767458,-21.316181982214164,-11.610026754289256,2.0075363259259933,9.60817740757972,28.752575767125556,53.21849649110698,59.004554864213,58.83741735384253,70.43285910836293,79.89268674052748,84.9984008695229,97.20722179128435,100.74787942623308,88.02886166142531,85.31988507792289,93.9490929126431,89.82257724844226,79.52424493070271,72.575174920842,52.23967450098454,23.67100940117616,5.7435104297808195,-19.70846628991502,-65.05066873431294,-100.55397269869965,-115.78063141496906,-129.5149346422376,-136.4387916417088,-132.99605607547971,-142.81525835757944,-160.34033061122562,-159.23872093964124,-155.1698246065436,-169.31968798116878,-186.10581614451365,-200.2651148451227,-219.52532769311765,-223.22892826196698,-199.54923550162692,-171.4886572677443,-141.07931674111515,-90.67671085180191,-35.562767923598244,7.829092443754301,55.378398301854574,105.77568938606623,138.69079684085122,163.1617321462408,188.1626145620621,195.47913557413096,189.22788676036518,191.2552009100587,189.79668703449852,171.77969991996807,155.27010112395007,142.41059490572394,117.41022675257541,90.03765761868658,68.09028896992902,33.96825452800999,-6.734425888515345,-28.45710449708273,-39.385630686369964,-55.06492240494579,-64.6985260717782,-74.44946355748287,-103.07670569363302,-132.33340277387188,-144.27574320562508,-157.83737724844138,-177.81644035803257,-188.96268167734496,-200.93924402328037,-217.57406415767076,-210.8287739364285,-176.92851767604972,-137.55668849355484,-86.11628000543082,-17.185524651229052,42.70833272665428,87.08309057245184,131.32015766047465,164.6505419652192,180.0167609506689,199.4007412190439,222.16704030448122,228.45171751375486,230.94821788366409,243.10769769279952,247.08612221420316,242.65444600176994,245.76847243228042,240.9147902282156,216.15133110023248,192.2649714899939,170.13209445158697,132.6515975929408,95.26379602211725,72.32818748958141,45.35027838404811,14.201252354744737,-4.461101496993669,-28.461658930726582,-72.99780375977453,-114.87079178231542,-147.26948574166926,-185.4606043419973,-217.93632495918393,-235.21907293859135,-256.4349874247055,-275.6210768550583,-263.68798934720894,-227.73699606354137,-185.6040220425841,-128.48871909496395,-64.11462509829445,-17.24467298858592,19.82086255171442,58.41677680611482,82.14176426438807,94.41909434099796,117.52495458613427,141.56903422720836,154.49840187144997,174.23824640907566,199.69956555947286,209.97230953286214,214.56386629870954,224.534727601263,221.40328091844725,205.55550781930341,196.21877086519314,180.87752220651984,147.0501907071192,115.36814131172886,87.2838069395855,43.73354394844672,0.22186377068508456,-23.730734260174177,-43.93588360482443,-66.16369904304854,-82.75296625772974,-114.99319712999608,-173.87185045068142,-228.72676572585854,-265.9775195668484,-295.675053690945,-301.3869328830042,-270.9295351731637,-228.99714670104314,-185.87709846754427,-132.579087141181,-86.94881894545193,-61.26105204112468,-33.07261536893585,-0.9674994655838294,13.999106953849594,24.43314393523713,47.36045792395618,67.56392854888425,85.22225955865389,117.7491304957473,150.86283911945847,170.50032353457527,193.8173999196982,218.5498944847339,222.6703101081896,214.80225931247463,205.84486714510177,177.91108127609976,132.98394414934515,95.44397308923644,59.48070347924643,15.620884905896764,-15.247895121207515,-32.87899718790456,-61.2124304394297,-93.66838736094493,-120.64839007154026,-161.31573637722,-211.1981396513528,-241.86519543294827,-258.48747490812866,-274.2335375310313,-273.358057751523,-255.14185514237374,-237.73940409996698,-211.48550353344112,-168.39042916059117,-133.29429417394448,-111.53347378625739,-83.94770163621615,-58.51266729078682,-44.664382569176276,-22.657573868468788,9.008523239215187,34.35054691539607,67.56963035894798,117.65855469340633,157.10233873686337,178.93489116957068,201.86259975073278,216.0739744136177,209.3468920351878,198.74847206194664,182.40796585656364,143.3470774128092,103.67363854667883,86.78278800621723,73.332909773511,52.839555338128974,37.98782703066303,18.593672832558887,-13.267367024415428,-34.944556641180306,-47.94971308607968,-80.06666382826958,-124.37925640045039,-163.25967922203233,-206.03192784041156,-243.0588361001067,-247.0545357520336,-229.18400734807247,-208.17545564788583,-172.51231408315186,-127.15921192778725,-92.4470572701025,-54.09408266602392,0.8077915804605382,48.0270669318909,78.77239357550461,106.7894772129823,122.982175733087,124.0654844135543,136.52699547605428,162.22588234601068,178.92540151916162,193.88369323471565,217.3143193729451,231.39077561979394,234.47588846372287,238.29696313988478,223.28649692392946,177.18929948527028,129.07775898629205,94.68783096058198,64.86120707783878,47.876761683509955,44.33220562520032,25.85956701940991,-11.370490929079688,-45.811895560803165,-83.7255027993012,-134.58028317419635,-178.4549406280176,-211.5412755853947,-250.2564882356353,-281.8946803623199,-289.39700951717043,-285.86263837939885,-271.241649600235,-230.0046276748975,-180.9651118226015,-146.07991849626006,-109.57137601647057,-66.53933856006194,-34.43878003563089,-4.402813905105421,33.588810485923815,59.058007805924845,72.08538662229992,95.83347456528296,122.05813096968421,138.93111464157096,165.17565642474528,199.44258514535963,216.88388798445038,222.48755719982069,224.17458808453273,200.65905559289752,153.7442012588188,112.40488386737725,76.55332399150586,39.05177427749378,17.79150696232731,8.948062637690228,-11.788702006991407,-33.970596628019244,-42.87001863280662,-59.11842289755078,-91.04848638348746,-126.23834044278397,-173.7638225623049,-232.0943598187817,-264.29596536651155,-258.8354119623243,-236.0221390822184,-196.0857972867001,-142.57131112831567,-104.1966988155857,-81.01970044901161,-48.35693102159439,-14.699416720032074,5.224553313907304,26.097234918924013,47.24462951464314,53.051986082307536,61.88426792582571,90.61335537359926,117.559620405982,135.27848127606822,159.64214349747948,181.05881986448705,189.23941166109762,200.7499667196132,209.5234876713443,189.44317528965234,151.0670937810794,115.72783206325309,77.1067666846457,40.33401286855816,22.609568455839963,7.573144664249176,-21.123940292053245,-43.616792825837905,-55.927899407986715,-78.87514198251174,-106.72290408041201,-131.42203605978793,-171.69494058961973,-220.82793168052987,-247.79848737270106,-255.9749827642691,-257.2630085812982,-237.70007708140855,-202.93730481469782,-176.47384117575288,-148.61244773767604,-108.11805419280822,-76.31291809876282,-57.03038837977853,-33.08949352598963,-15.62917257061375,-14.18909529265091,-4.201392963855876,21.32470853670972,45.41471794851637,76.8545544129873,122.5143506261936,156.14855484906735,172.06340561039212,189.4050662969664,196.9562011708664,180.71258041285756,161.59049442259916,147.201769517258,124.47570495128349,107.32279356096603,107.422445270862,101.12560073178099,82.02333577405024,68.38232857552656,50.088946876502014,11.779699364390604,-31.28153843694102,-74.72653322234626,-127.6595848635376,-167.09138981750047,-171.99694954967364,-162.48567812313917,-149.3510799651359,-121.13957841559679,-89.89397293624492,-65.18196219477798,-25.897466336188423,25.31485208681954,60.135213937428375,83.0295136460291,107.24090461961336,119.87018539008785,126.777260225438,150.06499735164243,174.49117844074775,180.83633652601964,185.23436894281264,190.89356553958217,181.80422227038017,169.9960363180611,167.39874503907652,154.20210738331053,128.70392516054739,111.64291527158908,94.01115823731237,64.30554260063951,44.06306961027547,37.53072587670303,23.738518653739884,7.568782737085393,-3.919362150449958,-32.48742759122789,-79.25209178143808,-121.66204748766981,-167.2109215764222,-225.14949085810326,-268.251352594536,-283.1174882561616,-281.9805484554165,-255.67432005816923,-199.64724214159222,-144.38643248992503,-101.65982298538081,-57.10595867872076,-21.49183745511271,-3.525273239102978,21.976241439569883,60.3773233326943,91.05164196771594,120.04462764440221,155.13080951211947,175.57970821292253,182.181617966578,196.95969157058175,208.2309955652693,200.190755882001,189.95770968623984,179.81410977996032,153.76983335392742,126.54303372042052,112.22418771381335,90.99278296413533,61.5571891581163,45.83142832923207,35.117664246236075,15.456479374479486,0.5004412669052019,-15.571984796125971,-54.94884963992214,-102.35978079500444,-139.63743117336858,-183.16568338741862,-232.4044768996036,-263.9052731450676,-280.2766101441739,-284.37835572369937,-254.23024550308463,-195.87858928151456,-141.5644045189954,-92.42205101577115,-42.63371059615505,-11.452585232553139,2.43709075838912,20.065113771975806,31.684569421395082,27.208134303561117,28.98735338458548,40.73465564590841,43.91464579709549,49.6284782069928,71.13388607709717,89.61118021125961,101.44446192951989,121.31628109287126,132.21135899561548,117.06849526576119,96.73453745846285,78.59872944474296,47.85271480700989,18.076208406902055,4.091546563644643,-11.97083362131874,-33.06873632295093,-45.42948427220155,-67.54800370215835,-116.2383433847595,-168.5168094745482,-211.11850606692977,-249.3855616678121,-263.43349772865207,-240.30333240741254,-206.92155486485015,-177.18775667989246,-141.1815707868821,-110.21088817337625,-90.67067730253561,-57.20288825601525,-7.713246454312429,30.510382811348165,56.70282258514753,78.25026392777328,81.31518082889104,75.96331497628638,92.49642034630936,122.50613435577782,144.6714357659545,167.06317586123447,185.97892143802153,182.49159597570318,172.59293510976195,174.04146221844803,166.04073379873333,141.7311450988241,118.93141659281419,90.04562220078668,48.63814917568339,21.670921682435715,15.704979094326081,7.399545510729707,-3.1505065392621154,-11.716926001546868,-40.06082179562621,-87.21611574193206,-126.610226311211,-163.34037094003324,-209.85620882512995,-244.51477019446097,-257.1792263380713,-260.97958236703437,-244.3400431984593,-197.48916968355843,-147.8931459832046,-106.22218445046369,-55.36956666489411,-5.9031896939459845,27.535919057850798,63.60837843160603,104.71483086817157,130.32941663567732,150.48531391582478,178.59682537382125,194.32305269766155,192.88154054105723,194.46233137874248,194.46505419272384,184.60347054282002,183.39688158104246,189.28368514791393,176.5272344885636,150.48797148437495,127.9705061759008,99.56910917356045,68.46142454868217,54.33872277114219,46.16229029600783,28.656938537330767,15.320390024582213,2.264853823874719,-32.595381233555976,-76.63931658916907,-111.2339046936792,-150.26958111196993,-193.57934307569587,-218.8604870407317,-229.78987296579317,-231.20944214798124,-200.61938059434783,-142.5702958349658,-91.83747499163357,-51.04344689050963,-9.5862683575061,18.214490920186908,34.318911347768314,58.44261591376714,77.08368617197651,74.68765168395977,73.5198112167335,83.61480749765269,90.40891560215547,102.39960370738996,126.56054919971537,137.36016988097813,129.66505672245387,126.39190870101153,122.66358080160774,105.58025755089727,89.79351330900997,76.21498030249998,49.395886613800045,25.047011951981837,19.133066347121297,10.08371102887673,-12.20861815970997,-35.09586127791229,-68.34040304416284,-118.71824060699132,-162.7464781887788,-197.5103348395428,-240.40701006331645,-274.71241870923495,-280.0413720298215,-272.4140365809642,-256.463177161682,-216.6888486109421,-166.82642091869684,-123.55746886498873,-72.67798375909663,-19.763089271826807,6.902292974051555,16.120060155436672,28.24856856795091,31.269569276356524,24.91201548939665,30.457187246673683,41.91164137384954,50.06088374919713,74.81411380407611,114.51720330184415,140.37065046384086,154.27212118224762,167.9840127387653,165.12720405582635,145.6088215861913,131.2481183842091,113.44902756043675,80.13926574294914,53.59730177200156,39.41202087945399,17.931169079197193,-1.1535352732932243,-5.957137268150154,-20.64489654268013,-51.595552616919505,-78.53922234658634,-110.91117301560054,-159.0214659438671,-193.90502373442462,-203.29251441440547,-205.09639900692827,-192.77423408742288,-158.45366421221934,-126.7102027235781,-101.62474072420588,-61.8756143003053,-20.086794152206775,2.0567654154475177,17.206315470307253,30.678457274891194,31.781484047104833,37.81106466090057,64.03959681487443,87.72849905931737,99.9302972002372,118.51988402183245,136.2904485119273,141.68376946386502,153.6160418019079,173.25267609847904,177.42686947074938,172.8729950445422,171.7113841343405,154.63505168290806,120.45669003385376,94.42693576158875,72.8220084557404,44.59587167879518,28.82530106630965,26.737740855687946,13.075031567176316,-7.736321263371548,-22.265228951806247,-45.6605810763993,-74.86812118706271,-82.7382513461157,-76.07043163289453,-73.7054028963808,-62.660737049827766,-39.5940473432709,-21.93067772559269,0.06953966052116645,37.111871900835446,63.29971585673567,68.86847874573641,73.57848692367759,72.41924581915961,56.4108035631195,48.568337332568746,55.26191102363596,57.16943887800035,60.901083561359414,75.64019155691392,80.19312614848315,73.44756362318276,78.70694515035201,85.93243231508596,75.88284144306579,61.78662055910494,47.936330620996856,21.862177638825386,-0.6629940002205261,-3.6182419729630038,-6.900141127676629,-18.801094181113367,-25.12141128268799,-38.49847969592542,-75.3716967063275,-116.08149408628049,-148.83677020339692,-183.35690694531118,-204.30856190319497,-195.95873812113706,-180.36119449964963,-168.28257701968818,-145.14103586594877,-121.12988758367732,-108.08240925621811,-83.64220847952973,-44.90236322467696,-20.39422004269786,-10.518051692252698,-2.773905700313205,-7.822107502092294,-18.253795511945118,-8.754283975132319,8.788288869645015,14.3288028781581,22.532121643895003,36.387085437283986,37.601824243814924,36.66133773683742,46.86558001759075,48.176983314147755,36.593342710534486,32.35220183700581,26.949236508391504,7.8997200206704985,-3.8581579823885397,-3.9350331228019284,-14.212612142582007,-27.44451003910369,-31.037813513414292,-48.46002358265045,-88.05624666443114,-125.790672547645,-157.58629855066314,-182.55350024830676,-173.30579161014913,-129.99301201138502,-87.34742370906821,-50.04178531287464,-7.787040147264748,23.90494541417029,43.815631215718575,70.71908574578286,93.15849986274034,95.39299635275816,95.23879146033705,98.03909868226867,87.96615015294826,78.4718995495772,88.00483109573261,99.63408607896952,104.13562373238794,113.44560842764247,117.07418785612613,105.19345753221387,99.4697305828395,101.86195778964583,87.61393501863158,63.87016771082794,49.77055009635973,35.50890488148558,21.272322641659507,21.587776985203657,18.225251433174023,-9.610675938951335,-45.138107500639194,-80.3734986361037,-127.32835613549452,-167.6983718255373,-177.1836528274601,-169.1761524203875,-152.79567680534444,-119.06716274986923,-84.96715577928558,-66.11527769464789,-40.33770644875319,-0.5916087402531094,30.733807268577834,55.59378297644674,82.21522615157852,91.58962512616658,84.44490661528727,84.9983725772625,85.63865991541064,72.31459883427196,63.847592015848605,66.41767246144317,64.16189344998213,66.95481831525184,85.04629779435672,94.65290908675283,89.30772788000232,90.61891382451307,93.15116510553898,83.79779097612686,79.77077612410824,84.70357627076116,79.6919205462424,71.95617545098676,68.86292943626566,44.217970895698045,-5.924487280565302,-51.87664658714992,-89.73013199531306,-125.38305306331894,-139.6116426521147,-133.08387753304427,-129.01231551651358,-117.79382848120288,-85.54852851116325,-54.80039521238188,-33.12922834889887,-2.2897376027310345,27.132736765863655,38.502975879486044,47.50989359789976,56.343367626297294,45.98561439209007,28.700034257207967,23.56121945886112,15.762363669730515,2.2172745692621767,2.8956596026818606,8.653218933752543,2.661404871331445,-0.23337035372469478,1.9696181358784202,-10.202730221168764,-25.17659959580568,-24.419298907902146,-23.23883070745144,-26.52360521108715,-18.528914484098408,-13.321563905437753,-30.57723090759623,-54.28706011092623,-77.7216511464082,-115.5073247585314,-153.68119705936368,-173.74404499551108,-191.96336685085674,-211.45182984104565,-208.5003627210704,-186.14589206269412,-158.88808095822725,-115.80871318381602,-61.74776633242003,-23.712883932355176,3.1248435752481036,32.91659922009354,48.220186942161796,45.453193341617535,47.30791676380056,51.64833448460133,50.89024496695406,65.70330667744366,96.85138705501905,118.99531880376708,136.8882090280999,161.42279808656008,170.75767852057956,159.72959655581104,150.28282339889208,137.1240236144563,110.10393624661711,92.40163559797602,89.98853668294763,80.09423860765017,68.61106371474159,68.8200127106825,58.74771494692812,29.098994442711827,-1.6536880269997667,-39.47892610327325,-94.01123198221411,-140.2802716411092,-167.00144662846162,-189.97100692063566,-199.11849156058295,-178.51945308586448,-147.68405674651507,-117.92246873214708,-77.84355731381362,-40.348730756661254,-19.886184848328902,2.976986002868702,32.00873134624939,44.75547304969666,47.51098757917235,56.315737365076615,59.13532846970247,57.516659647992114,71.52505859864142,89.02411707700685,92.3453164576113,97.79627505374057,109.75083965341594,109.86263803636447,105.24833952122428,105.91127896049514,93.0843503928118,68.31920627119072,59.04802840604865,61.22747907366349,58.104159584884314,59.30410678456474,60.48965421045776,38.89990655543987,7.015471853471405,-13.392272405316447,-35.02685399423118,-60.003197825315816,-68.0219640195645,-68.46973137421901,-76.95653851805629,-73.97661272784646,-52.61620330380005,-33.46111853517978,-13.143715796135611,16.179928200594265,31.08351893874488,25.895360676112734,24.01907127820467,22.1273400154512,8.046856916484973,-0.6050198484118892,-0.16776575999231125,-9.79431479429841,-19.283999245282068,-12.648227693199951,-8.132597148852179,-12.117788062992146,-6.483688617727479,0.9800618441311859,-3.2943119834104997,-1.4836241867039286,10.459284593151871,12.075764982186001,11.358605318679743,23.9837202495841,31.79932277229265,26.557305555598738,24.60043982067996,20.09160660639305,6.327566627099939,8.973334177075264,33.82148609496783,52.879372682289336,62.459297608405414,72.86787110117989,72.31449979867311,65.172257870095,75.0454985577957,89.48823307969678,85.50935983306474,76.65690739130771,69.73153074042712,48.283763763348105,20.341825398397944,-1.1536635090131462,-34.62451644519699,-82.16166525580022,-116.21948122746468,-136.6498822436854,-156.49635815380248,-161.1703811117435,-149.68101233897826,-144.7952637799434,-139.35952987766885,-117.96590650251349,-100.72970868888096,-99.0798911799138,-98.87288966689984,-108.1949376410781,-136.89946981804584,-158.60677029586702,-159.67719256631253,-156.89828561892278,-145.6731311983584,-115.82728558441474,-87.62750768739912,-65.57652409805355,-28.09476588522255,16.2047614257334,47.723565878513796,78.87886475599149,112.45862066762425,129.7086915168894,138.26936756004983,148.85602157549408,139.85521143212685,106.67662568919347,74.82373421039861,46.777713068287966,15.762518293549242,-0.7627096890268508,-3.1737787443350527,-15.746170567375458,-31.996630043905608,-35.058842482520184,-39.46604545126955,-49.64684926510117,-47.91412995914351,-43.688450857892235,-52.88449196932085,-59.52149873504044,-60.087626432191605,-74.82506252037768,-96.20651636723579,-110.05241940476438,-134.1712134314281,-171.92458742487736,-198.19597053848707,-209.7608342076603,-209.8392324996815,-177.95635683693084,-116.99652927528157,-59.096271221359956,-7.163985941659523,49.33478143761856,95.46871313653328,129.07728264766865,167.68702581028836,200.4313241551681,211.93511745818887,220.1180425964107,231.1713521063509,227.0960180190914,214.2734426095918,205.93168258769464,188.62909126863235,163.1573404384819,150.7679459282533,142.58853780962068,121.71076139482878,104.30411441324065,96.48799720874773,80.64106236392195,65.42046010890954,63.60691587928276,53.63023871654654,30.695205360148186,17.588717807036737,4.805737175693677,-26.667590108871224,-60.17850323515859,-90.1640189533782,-133.37265356601674,-174.30048795505147,-190.01687429627435,-193.40499801478404,-187.4742548307759,-154.17325107877915,-106.93964670029601,-67.93810845993393,-25.512788468953083,23.624459193632198,60.874765247151636,92.40631611802266,128.944206535063,151.63074376893675,158.23166034518698,171.44708298727357,184.45202074111978,182.23071054048305,181.3391456028895,185.4412396950478,175.7609618630509,161.88720373107992,157.68807061214244,143.5069875006172,115.66060787728568,97.82905028238528,84.28859299271177,59.50608637324518,40.73686359399375,32.96349618025019,15.515674120260666,-4.594361791141443,-13.354283711404575,-31.300115418756242,-66.87020481418318,-99.76353002045018,-132.80814672291154,-175.77994838377265,-206.1416558182892,-213.05837567611593,-213.82183823985835,-202.76050389790447,-167.37856874015807,-128.94455417112505,-99.36270196736538,-65.52108781019982,-39.10066497132208,-36.63434551322495,-38.86909681971764,-34.815437335406756,-37.295792747509786,-35.57575284051046,-15.15559924607937,5.745569088645931,21.117941537218226,48.07779405475674,75.24191300841612,84.17775741584404,90.19538683611236,97.64948618432405,86.71300549390894,65.67525033937947,52.0435312680981,33.36780579154394,10.009349924158322,2.5545380651187855,-2.262217365014219,-26.8911388024709,-55.90741796749007,-78.42949506741107,-106.61383634894084,-130.54322357613975,-138.60773649931224,-152.14933142320712,-175.8451860621057,-184.1668904630671,-176.65282031273125,-164.883512302455,-136.40869590516172,-96.19711769739475,-73.68400182309118,-65.69098062054697,-54.94397420900196,-52.8701429250502,-58.555672566284315,-49.98951180415568,-37.25681320208484,-38.6691017277943,-37.3702326054564,-26.298952891770774,-21.94893771146723,-13.50057766436475,14.688223736104177,41.528801209731476,55.720225605216385,71.58078972072428,78.7913484078347,62.118918181729896,41.230765420254805,27.75768399528031,10.953007481316906,2.3803196340280084,12.985144563526632,17.173643668795737,0.9344795935564658,-20.55812729919362,-48.64260137158629,-86.01142904433792,-108.76445859020424,-112.82882702650039,-120.38216220278464,-124.38939912562822,-107.57266617179425,-84.17973385256192,-60.03877489993969,-20.621012251871115,21.083952267880136,48.182380777000716,79.22392270888328,118.72209735676019,142.87558351710683,155.1345213510371,169.60093184706102,173.17504922480816,167.6403654324779,175.2222055978791,185.71844854483936,180.16936324153323,171.49659428864635,163.9472435696487,144.38866166485656,127.34512284963479,128.41610134258505,126.77679410332486,112.39343835609853,101.69623919763588,90.6067975063356,72.06081347894062,66.73173956913159,74.0004201285738,64.05528109326349,37.44270113655494,9.090950543582998,-32.49326738970611,-84.114179069784,-118.0446122390553,-136.1278444207983,-150.8502417207285,-144.23654896304495,-113.42652846520662,-84.65938491552821,-56.605456593227785,-15.854538075312883,20.01417433399781,43.312966372388914,70.2683453691186,90.55330025390175,87.94909610023956,82.37636849232226,84.25946217699538,77.32999042153583,69.05331377078733,74.59628702156388,79.84186323643104,82.15277882271366,98.642698098757,114.7557235000466,107.27495792021267,89.76195099111555,71.66826955573028,41.841150982723825,14.514003202789521,7.2042490525086365,0.5713001717054098,-15.262449214844027,-23.97076300837682,-34.24756613327766,-62.5209606388137,-91.52664267933514,-112.98015286428856,-142.60270006383985,-168.7606846213247,-171.82060639489856,-166.9668829399402,-162.29202458119948,-143.3157658698603,-119.77670229187042,-105.20390419093768,-80.12220565270881,-40.35580183035901,-10.797712107535116,10.5660740223683,35.48124810721659,45.246943180801686,36.090435112908686,30.30454910606184,22.945885118767045,5.01508912400131,2.2554295152037973,21.92538605810907,36.64613603782762,43.348224479921896,50.31200348824793,39.23943030345865,11.271774521690503,-4.338433102872205,-12.061829565385372,-31.216465060939637,-46.97929947079786,-51.3805338674279,-60.68525418749763,-66.62038549254198,-57.89443306522631,-62.895470220414964,-97.09744290058381,-135.3893238305543,-167.70389607738943,-195.59171627151417,-198.4499273444103,-175.93400311848592,-156.13452785618244,-136.69660677322764,-100.98742181485727,-63.6780205140948,-33.79992136881563,1.0800284264394229,29.703880711767383,35.82645865260254,36.204133999905096,38.668132984784606,29.75217458439298,22.83694091769289,35.58626008039618,49.76151802677405,56.01529915221626,69.29127692640549,81.51604500310077,80.22572868007633,82.89264665256879,91.74757454960974,84.25102939077084,67.48088614073473,60.30377927204983,51.61437457837246,39.862232343819294,45.14241330888531,57.52121157212784,55.081707934547126,47.48940920528156,35.09067229282328,-4.5375477838205995,-58.90113885107039,-96.33000374391622,-118.0774674220992,-124.88372967159604,-101.8454947227288,-67.17800461824282,-47.297102218372665,-27.06044085408591,4.305963284372831,29.363047083008414,52.090015019285964,82.78302642616327,100.10504968990935,98.23300513296968,100.79421578270859,103.41018989755992,90.64379957802399,80.73752201852334,82.57683871411166,78.59607611652702,75.70802218485701,86.56289322452625,88.27368389835112,70.58787169311374,55.07626724259907,39.56203351317697,11.098764932749623,-11.376184334827578,-18.513475921693168,-27.145293504194576,-29.594561736273274,-12.940712307702718,-2.339216548707891,-13.702349772167498,-30.46591644575824,-52.70766008092042,-84.48598050376023,-99.32803417752373,-87.59688018771007,-72.84964455101584,-56.91001077229801,-31.070942366181903,-14.471558063675008,-12.11834532796576,-1.091218522527535,15.269589326757215,21.521630663663093,30.251747964064613,41.50271144270473,31.963723450902755,8.953176478722629,-7.042992349608124,-25.666798134346127,-48.00330978027532,-53.02877555572219,-48.20971752062783,-52.33506429719287,-51.88837417167209,-41.126962710994775,-39.828029837494064,-42.80991750609976,-34.23928436492294,-29.16954744060265,-33.22156772898107,-26.75363494717927,-16.324751544112498,-20.107133439086585,-25.40404451470225,-27.646053732146385,-46.16674903070923,-71.32054179181014,-77.72703250498535,-70.79558333535415,-53.29940250292839,-11.512281526974505,36.43155973174529,63.93265034682578,84.48739192392885,107.6948751330742,116.89371079076169,118.85171928551107,129.78757492266593,134.6678643483187,127.26405464706326,124.64610738488757,116.87668013647257,87.7387773760394,59.467564316349026,45.44340668203509,27.47644099496807,8.345540320277037,0.9256675135639872,-10.258021477093596,-28.48126005418144,-32.93485242468128,-31.30296119987814,-40.703859468956374,-43.635930450191225,-31.15995086806872,-23.96004247148924,-23.598177795243615,-23.519603169353726,-43.4976459156982,-84.55268721568373,-115.14282035006576,-128.75660767736727,-133.048562624715,-111.354525978402,-65.39745735417509,-27.115548016689267,-0.07604066918996022,29.599557491005278,51.00338858459202,64.29421174087776,90.79351620236109,119.96049937368213,128.74056552221407,129.65412664020556,132.35658548752411,123.36882719047568,111.26934049943958,110.14473210001418,101.07525110344751,76.39100538645457,57.90823625983931,44.51693900882519,22.94470166454358,8.161830130694238,5.107360975658165,-5.201439325206211,-14.378362297554949,-6.100421851201258,-0.2853294133698002,-8.51293326577602,-15.239391227915682,-28.060282739729796,-61.5872890293284,-98.08036698099835,-130.66255131487767,-177.52130680107672,-227.5316031869237,-255.04438685794992,-264.50187645954,-254.93623322991994,-208.55625506996944,-142.54025298108644,-88.62086029423861,-42.34248246982985,0.7858622514115954,25.0671190453504,40.61483966962833,66.52173357783781,88.12585508860103,98.67454562470465,116.51966710208136,132.4970291899634,127.375504095461,118.04217469765392,116.56433678999797,110.10363712653546,105.36146854258632,111.05183924407125,103.28443957932458,73.89332118610494,49.48025901937555,36.529834508444985,26.500759679005494,31.913212351416725,48.959000278954285,48.160592197574616,31.750408042216364,19.4441294642312,0.49597325765311595,-31.052703803352014,-58.57017680665443,-89.89874943469974,-138.74144329996003,-179.4788057670898,-192.54068584426005,-191.8338543152861,-176.0687880680128,-138.96296911273578,-106.19946061967525,-87.63958814635292,-58.034772200212714,-15.941311644438226,22.27987636383702,64.39570332325077,107.19165012156036,124.97635976438832,125.78911080650457,135.6459199633244,147.34810810273837,155.02544224170745,171.6166062390156,183.62247583757443,172.71011209933823,157.22396524023526,147.83724469559394,129.4465760229806,109.89565013669784,103.96999854440688,94.50068650200396,74.37138284720945,61.427937304615256,49.31382339066893,24.764551263024096,5.235666771546468,-5.816860880776136,-31.514603526832044,-65.31130557396966,-86.81362771583538,-106.33692054152723,-125.37475270531785,-122.62212862233929,-105.90244973845257,-92.7559128214001,-68.07173453735713,-29.541907553404425,-2.152187483208283,16.784054718508077,41.301491096087354,55.99513128095741,57.25781786158124,66.27147253856523,76.97887764386094,71.75047844781888,63.28865169161936,55.808510923167326,32.60495036845799,7.264647683226606,1.8222327046644864,-0.009471595410280531,-11.262928309774509,-21.03911259904986,-37.830388150928236,-70.03329948859655,-90.42808235048126,-87.83835924620976,-86.21386274839995,-88.03223426866262,-85.12970832119126,-96.55488875779406,-124.75088072478744,-144.2100727099966,-158.88285887298807,-184.98516728753387,-205.82556469135523,-212.8726243394957,-220.4600478788953,-215.6826955603646,-181.5690531183973,-141.84284528019225,-112.5311410343244,-79.2012111442494,-47.79538825380774,-30.74867658390357,-10.16595299414254,16.541336412808906,25.012888514689617,21.62980054134783,27.25253574978105,30.856136026143403,27.818054787807007,36.43212035282118,47.80210879419454,42.46061969175946,35.10946557268143,35.26231564063904,27.930978857974665,21.420993835423975,32.14750606264245,42.37009852640959,40.46212591978363,41.09522573272668,37.43621527864663,15.869545164653923,-3.1580202721651887,-9.159872249768327,-22.47100232422976,-43.662533303732765,-64.14987427595962,-99.86578056353643,-145.61494928458632,-165.84898941966503,-157.24295351934182,-136.44261446088103,-95.69282685648416,-39.304239889667734,6.562164355191318,46.10335658808173,93.55974018399378,131.00720620207835,152.52584573384675,178.01649827243946,199.37751499869586,199.45696594897186,195.46451866703524,196.25313885733405,186.8736124504253,177.55020127165562,182.3825567226571,178.81192708185506,155.71872544488141,132.6707741994011,107.68039525376201,71.3630911442281,46.268386523489994,42.07208828453236,38.126029343694015,36.369670708834434,47.27201058297771,48.7566198102164,30.43949829488762,13.54103059519959,-2.850995744068641,-31.57881741303807,-55.69193149858945,-68.09094383144418,-87.667630975465,-106.38999832362315,-104.13646699721275,-92.99982002733944,-79.07047435848392,-46.57567829863807,-6.69784772670313,19.617175113519412,44.48332292494581,73.6122742946758,89.15187923319377,97.38846055593821,112.69018994070727,118.41647528846124,109.23602538037929,106.28022810989407,104.93917531380943,90.09619038449704,77.7340973229447,74.34388761957652,60.32778511371836,39.67456187863393,26.92654150814157,8.140964863879724,-19.60935188315925,-32.76013656384491,-33.99838210033231,-40.63938350879161,-41.55848370622846,-34.49662353415807,-41.68924844771887,-58.00561638354078,-66.6441684608798,-82.72150040648935,-111.3950428978062,-130.68452759019468,-143.606803557045,-162.25346212224096,-166.59084660968762,-149.70391017330854,-135.09402538314163,-121.6930732020007,-96.51687190986164,-75.85480018451915,-65.20058259838285,-45.93963271789391,-28.21655486533957,-32.42954458073768,-43.2009491416034,-49.50677298209544,-62.56033742331387,-69.6775377219433,-54.34484916837703,-35.95021920429847,-24.40804096787369,-3.36812830462968,17.554561339603126,19.48140661047278,17.009009788166928,16.42791663991122,1.2587466646800634,-15.726630377160326,-12.000107167224519,-1.986723483310656,2.2885623477307897,10.408527843909733,5.3876255798618296,-38.59886444908973,-99.39422729577196,-135.20120600755814,-133.59308366894714,-96.04560439066707,-29.09244391204906,29.654214392432344,45.6647452873668,45.55909797021387,66.90965135280896,95.45829318229907,112.60885300364559,123.00078248280559,115.78104343809358,87.07037178364682,68.857094739849,71.28009382503751,67.77288671057917,58.162228703621224,57.21791304882366,48.35691847491059,24.78799103809112,9.557671601161916,2.433259677455233,-8.373558605162614,-5.723376441934992,13.444893193332392,22.112593568428657,17.822474504683612,10.36871413279839,-16.4643930285904,-61.130189739227,-90.56826810555833,-100.15720137142583,-105.52152833425947,-96.37431260637621,-69.5256702357562,-44.6599074620694,-15.83470179136861,30.024026932994058,68.1807928086806,82.45732498091634,93.10630509879049,105.23052371014691,111.8209437992786,129.025426620679,156.48520426024012,164.62566353066762,152.29003144722492,137.1182810821132,111.23099283738408,75.4321579308242,54.201004958436286,44.76991568158547,29.879096475663744,20.842613293022858,21.13654817817843,11.3458497050347,-0.1159008927683205,7.232451990040283,19.557417972774005,25.89765013708943,37.91511403739999,42.756079401640164,20.83194708424189,-9.280254690570846,-33.65188617203283,-65.27894966756709,-95.20239303786772,-106.00721090963353,-111.83165266236654,-116.61101864589276,-98.66215329597406,-65.02248150939266,-37.046040863946104,-4.9590915271909015,34.13778521502755,59.81421729700159,77.60204424112473,101.70197167769636,113.54704766157641,105.65278812502243,99.40563998175085,92.24715346312686,71.74543287768415,57.02198948181563,56.612031127236136,50.828544989662554,42.361582275988965,43.138341100384174,35.33228848176863,12.970534266518552,-1.730408012020969,-10.927893394616223,-36.29699492035705,-83.6430999076241,-148.91902499621636,-211.93396499159104,-239.62630276735942,-219.88394993644067,-165.07500815189368,-105.15771019744348,-74.17919769111691,-66.06020073406803,-47.118232752988604,-18.801358454389096,0.03075550503214508,15.949740003013211,27.210504177819896,16.638372098593102,-1.0253439941404574,-5.214462653117622,-12.894108182249838,-29.45285650637811,-30.579036928649312,-21.80247767778573,-25.472457658416545,-29.61113412572793,-24.211890007089856,-25.878447015839797,-30.713255445975015,-24.51895241905286,-24.466641295343198,-37.66916247145342,-43.00971857325059,-49.2430727613466,-81.15334130058399,-125.45471389016387,-165.29567766539765,-205.10790745391455,-231.3731462310638,-232.8975434742042,-237.52587072857904,-256.43641764238544,-257.4868516194278,-228.35009036553703,-183.29027313185387,-124.90642582850572,-68.29911170596193,-41.15944374276588,-29.761522619743193,-3.066634916742327,30.108315373733525,52.31034475526263,64.52786045553637,54.54195110600784,16.853068515429808,-13.289482321950834,-12.279018198408885,1.744839054605729,18.17979636805746,34.58469328611221,28.445733245768714,-0.9754342189524614,-20.61228576172631,-22.593514797618266,-17.83881907357487,4.474964524245526,41.12334870428637,61.48322057444214,60.231033915052706,48.25428885404696,15.281622274383285,-33.31373366003254,-66.52964759964992,-83.73124798196164,-100.83000014720837,-103.19296477759084,-82.0769255836211,-54.24084413317337,-15.840007807333441,40.666598700974696,87.16494461454741,109.39575581024832,129.4536583560347,149.66346551670244,160.67883921774742,178.67079660166885,203.08237500943108,208.2024296198531,200.27742333555793,197.52762395175557,186.50034832347433,165.3757945602526,156.43188330595876,152.4171190537631,135.96978174516022,122.0335723484871,115.7467611653928,98.76733522661183,80.90726096162815,81.60053850891069,85.40889453178619,83.08615728167418,89.35232956870972,92.62275757993567,72.46906811513405,43.75505866174821,15.909203746045307,-23.627269953397274,-59.34724798286951,-66.64051944239583,-57.77795570456641,-41.146291799990664,-4.096632107601973,36.93195949659653,59.63956703214591,82.1318827818409,114.84951985292398,139.16495864997736,159.33930620698013,187.76078560707913,204.45182812161474,199.8295288237723,192.33485544648758,181.2991674764251,161.42621717805508,153.79536210844176,160.64945248814163,154.28362322301874,131.92570559165492,108.29656097613714,78.90855998756939,49.41278684815181,40.53994457173952,40.32437180328121,28.365927830272234,22.115785621175263,31.894895108896264,38.06510121976838,40.17398186158736,44.30330945040309,26.72306614445833,-20.333661092964974,-69.82963392458582,-114.74515280851547,-160.54189599265044,-184.98522963248885,-179.18018066381893,-166.28121354280532,-145.79771551702902,-103.91733124319774,-58.89401274034411,-22.95074706689735,16.44308685098811,49.59210342169152,62.57883177330758,75.7176455778177,96.08822189896324,100.19138297998518,90.25949585698135,83.76291306754574,70.27577082307013,46.20226727828988,28.512278032185144,8.388120747809355,-27.019191820843055,-53.54467669601071,-60.011763784143284,-68.80931623670126,-78.58387366113193,-73.35232020806274,-64.70165659321515,-57.00829859825647,-36.99547756176702,-22.447607830528888,-37.65650889149238,-65.71106574538238,-93.57004385192363,-135.55608217057565,-182.6810288434777,-214.2161474562754,-237.76222391076314,-251.23843093144706,-232.60597963053849,-193.38796307607277,-158.62876056311464,-118.02023727449469,-66.12845997394928,-24.890090022833334,5.943838454519369,38.50648899859486,56.85603647301485,57.42234954275823,63.896122349135375,70.87801355220974,59.01409195363154,48.29982683089712,67.37550972064767,113.83922069766022,166.68803035841245,201.4832416069868,199.41205301376405,160.5817750812902,116.53673178055926,107.35803194403073,125.46042334836564,130.40502790562024,117.39053451981044,100.08229542875057,68.09427169433708,23.236464712027676,-14.682953499549342,-56.00847501569091,-113.9760474507711,-162.91235142627855,-186.83978880127043,-198.9117832775019,-191.4585439468927,-155.4875384179383,-122.71074858189019,-113.04016699794391,-106.39285411265422,-97.70309142409405,-94.62163745892698,-81.64803217756537,-56.54457303876729,-38.426943912002,-17.193514939463903,21.78351122497699,53.11218048011294,58.18686167679528,49.51368358935843,25.710661655618722,-15.947413462819137,-47.45166278313119,-56.877268191686696,-63.18360743842278,-63.053323024550195,-46.024409280478764,-33.36417485807563,-33.66315475053973,-26.31150525703105,-14.380130836666108,-11.30138891117365,0.09175007293635806,24.918356305550237,37.07442458627671,33.41965069424815,26.066398402917034,2.708643146295185,-33.254501025157595,-48.44887139476806,-41.007712384034264,-31.95156522324325,-15.542450516326328,7.138005759394192,14.263200884766919,15.984334222104039,32.97199550901339,47.68936182841871,49.12841199518377,55.037100017681546,60.56670298802841,50.67020127936518,39.54855508020022,31.047195777792027,6.216133415120691,-24.762138357617516,-39.75792310898566,-52.164768389876386,-73.35670716474193,-87.80842803519079,-97.51417425367408,-112.19920845738034,-113.83530835371502,-98.6115684321586,-92.19212218858772,-95.05224637191021,-92.8506490763432,-99.79215031134757,-122.83267959256534,-144.33486842692912,-169.82545577854364,-212.1338704961732,-249.58040971587616,-268.44241310917266,-282.81498265333437,-285.23537611517884,-261.36734778216356,-230.41661280051852,-202.49995074553735,-161.3937160708324,-116.15320708858681,-86.21680258508263,-58.456618809890394,-27.456826814520944,-13.367596305537138,-11.156039621141332,-3.977419645490132,-4.606684680171932,-15.245222774155927,-12.16766063421153,0.4362502699693174,5.699090037641428,19.302631213768766,46.53450615000092,59.630316499877665,52.59121528190326,32.158888361895286,-23.410766971851288,-107.24131796211661,-163.49336341184892,-172.75263059591416,-152.0896441034457,-102.708131706005,-46.72666959347599,-24.668706052187083,-24.003501434533266,-11.515391868082961,-2.208537316449627,-14.445355985911693,-34.17386852738578,-59.88627671693852,-93.40189381422447,-107.61255972841853,-96.64880233358924,-92.28185507416198,-101.23874695058939,-109.58004441270901,-125.48668967739223,-147.51881915364456,-152.21073857258676,-143.71357016314138,-139.21779694645608,-126.37095227957624,-101.00773443002748,-84.00545467029151,-73.75058049286362,-58.716387860021,-52.51585464483233,-55.35723233171399,-43.67843987643268,-22.035221663531683,-7.442008454015681,14.99938069286459,54.446875317120465,94.482048005377,137.529377730976,190.75180202718784,232.81869503369012,258.2354547635231,288.4517766619382,316.1675849510967,321.7550452469653,318.60626139280896,315.1003754599976,298.2253681061237,279.1176637850662,273.4191572861192,262.13904602799755,237.06538736597122,219.2833752167197,205.85987017703775,182.67152546444342,167.49155971318274,167.37174731305822,159.91343024511607,148.46578242160376,149.6886584622745,148.27081157856855,136.62071531077473,134.12536497235635,136.51483906738252,129.43186391150482,129.09884113880847,140.26417180327002,138.80114634381889,124.487869087772,111.27231266638405,88.19272275913445,57.02436817554097,45.751624445846666,55.80335229803615,73.73615449129576,109.96482396644213,158.95799238097428,190.01053946845292,206.54480832718806,230.41664548170993,252.2039592398277,265.8077210924587,284.92127954838895,297.92122102706946,288.28229551469633,275.6592247855872,270.02936008602376,251.78844250704262,226.40049478423396,212.68502093381198,197.24543561770585,172.78385071882343,155.6479093863516,135.22153686840284,93.43863639517903,52.43196423942973,28.417443009285222,4.197636902082921,-19.778589853833132,-33.635435355491715,-56.638440384905394,-93.08762695668483,-115.95366910884253,-128.01441912944904,-151.65842111458852,-178.1514761808643,-201.51496422439058,-234.99950080672699,-261.5764431132643,-255.56880102581022,-231.16122832578395,-199.9165717098447,-151.23082832281574,-102.25859646012057,-76.35685982841646,-55.529464155742865,-26.77928813536237,-5.958894819994156,13.672862867615105,47.04099874434771,74.65468092389044,86.77204849353859,101.71310567179526,111.46215152001636,99.05259556337305,86.15534956319625,87.07908760378825,83.1812931845023,73.46905779390744,64.56545056693857,35.781195277951646,-14.010583407190568,-52.78053066449951,-78.06798220301215,-107.34688179102062,-129.74289246833624,-141.05804879403877,-160.53863086891252,-180.14061152567768,-182.02020481145945,-185.8902852885002,-205.4860408908405,-222.4805593290336,-236.4601272151355,-254.84562908745934,-253.11824563670666,-221.19298089740732,-186.1020777557141,-153.36457382706823,-111.49465978690057,-75.61260313350775,-50.32355915082303,-15.446203253083024,19.252395569240814,33.77304803752324,46.726966931665814,70.22369251937157,86.334313451764,99.2544258618442,123.48704130952878,142.32316085856445,148.86766475579427,161.79858108077738,172.4456986928758,161.42505464055608,144.21604368661815,130.5856002175078,105.88659284272595,80.12835735513957,69.87566220126511,55.75352353411088,27.39436012646479,4.097258181438041,-15.2146171818537,-39.15475340064497,-47.681382844129786,-37.34965576672389,-34.087845431263105,-35.58866444501122,-27.376418264487647,-27.460722980348717,-42.515712875346274,-49.81189278476487,-51.3779425923971,-60.752946060561584,-63.06293701435382,-58.86199716854263,-75.57139390249596,-104.97614397256511,-119.08353709279311,-124.7982263879275,-128.18580654932697,-114.54538324900815,-97.52113535121276,-98.78896064862634,-98.07569688835494,-78.66840593616652,-58.89538111341301,-42.25651821090119,-21.77501261294163,-18.221116489128818,-36.584920051635386,-46.56694480112889,-42.92971911085961,-40.431661384074786,-29.08040019700401,-7.624937848997815,2.564801579419627,7.927845749920042,26.38853232397944,42.52807855886081,47.55960946984126,59.89558591114526,73.85475363990011,70.68705620845631,63.78337610522669,62.10245219126449,50.07743758931659,36.2439213827044,37.195181428972234,31.304835769687713,3.817358533499597,-24.894066283384692,-52.02264843325297,-87.47424189700607,-113.37332261039374,-123.38446182620082,-139.34850080372,-156.6271906502855,-159.43869926880873,-167.11583970131375,-189.10993848686945,-201.7629451809852,-203.44164117409088,-208.39952412370138,-207.35357581066384,-202.79077180712852,-217.53805802575522,-240.41218462388568,-246.09068255070525,-244.2203468832296,-240.2970582084434,-216.50870705966457,-180.10540007785,-147.11048976824105,-103.109859046082,-46.73446266251953,-2.97473767647572,31.61331128361089,72.8868574589088,105.56409689174554,123.77142251080141,146.31439376533504,164.1039498459063,159.15512878112548,151.38772803817758,153.08655092503045,145.4985406450382,130.89729662017226,121.1595489050899,99.35763585998018,63.37170625683186,39.16488963274114,23.632049839229385,-0.12302736303774964,-17.526202497184592,-23.043493251709585,-37.21137115973497,-55.721068971658084,-65.22756235856903,-84.46674210511961,-120.73682955360742,-152.04473730546638,-179.86017653328977,-215.46074603272783,-238.00138867625333,-236.33048575965154,-225.7960979565701,-196.7182781549878,-133.65860589741922,-61.984928640570345,-3.3997343213344493,49.978820785005595,91.19547341138242,113.14670532724472,141.97092989778272,185.51320672023064,216.59080236262238,233.95788167701448,252.9215495124306,261.4221864560717,257.756837191949,263.8007048224709,270.84424006521084,257.0376111933243,235.2987434444962,215.10196344544954,183.19333854154698,150.69389614323893,136.00422769763875,121.43699396832115,95.45325028313941,74.9230120488207,57.51413667957031,33.15822833580802,18.99515355155702,17.512713413710525,4.067170356005733,-20.89273030319907,-45.307264646585764,-82.80487945552,-131.35195351677837,-160.05119775032526,-163.64414300079397,-152.9302130709063,-117.66731486661607,-64.87525378968192,-26.477512801446636,-1.1036433575740263,29.67398253582941,53.90134094498372,67.21634310461752,88.89135152760743,112.17190402428588,122.90225586281474,139.6069488905625,166.73501576175718,179.92102814876768,182.86382134298037,192.4377046749443,194.36932103405255,183.146219649579,178.09116851401785,171.27366424028236,144.6545403264672,116.7441053736523,100.02713110133264,78.34952371168778,58.21813801047324,54.81437154901313,47.58211914635126,24.17299895531098,2.7786764317788535,-20.44897751130496,-58.73053897992829,-92.17385692077372,-112.61866911067037,-142.44077878133407,-175.86505813900277,-190.6413791352487,-196.12131232942556,-194.66206046109767,-166.01928911640772,-123.66506753221907,-94.70892545184559,-67.83000060108326,-37.979345937049615,-26.699368183837286,-25.199536293778323,-11.805595600038291,-0.7050021151248622,1.4059387931159437,13.710141830258321,27.063676234670577,23.045640095788777,21.043892079170092,31.69014161049413,34.336267082241235,31.607481308005248,37.47650327358477,33.655691747513266,12.278981343514397,-3.448912524460364,-13.090143451191055,-29.006033955644362,-35.45228477769569,-29.724776582677286,-36.450814800351274,-51.59767339985113,-58.14808455214431,-72.16042822330894,-102.69265355677163,-133.3293728016225,-169.90423621479883,-220.4403146754701,-254.52318225116585,-255.035355877081,-241.4593030244435,-215.6236731433793,-172.2120677159288,-134.6249838627382,-107.78120678055318,-66.74349898036658,-19.008968983752386,11.148004767266038,32.33699209016262,49.605431654911726,50.030025834884704,49.52704606769843,67.37967108378177,82.65257771186322,83.181550485441,85.8343617142975,84.5085571259657,65.90922632630533,49.78708872334034,45.36303241062183,36.0180060170935,30.630063946350425,45.967589109312755,64.32269948823979,75.69663938006813,94.9974299110939,110.71450147302778,101.97258055492179,83.5197302001982,64.42374648640283,29.844759013297775,-10.012874965204624,-37.44861075706976,-66.75140608633824,-99.29212960460029,-108.43074657484917,-95.91883218465811,-80.15430209584434,-53.54362337064894,-18.20950049172893,4.673340013561095,25.80246457262504,63.86858740000034,98.63035235303404,115.08912128933393,126.29285412603953,127.70785047163001,112.57959285351981,106.37998496772623,118.78715722103212,128.0845834956775,136.38260145919682,154.85568529602003,162.68146232675417,151.7436749519539,143.14018782659178,134.967014092839,118.78239211786699,116.26068087316301,131.29765598366131,136.91210741749953,132.5362047199138,129.57498502942667,110.31981875046553,70.80375711528244,35.08974723916194,0.8661301646756971,-44.09569553854892,-79.90846450993446,-99.39002726264522,-123.25693815281485,-144.3167922465822,-143.60949817817723,-134.518438253172,-122.59012617287725,-91.4447270387011,-54.05725783031621,-32.691087265093486,-13.993558316271528,8.955292506153057,20.04461367038339,28.27157178088839,48.00105837900284,59.624656551719326,53.38325373446469,47.68308506828211,42.54787733557964,30.255738357000816,26.895208581993742,32.568970937260985,22.199886474024183,0.16256997187560351,-12.0232493542091,-19.153279559566755,-22.249068784888667,-7.097916180197955,13.705654001866082,21.32171655969959,27.651026152707747,33.049700203481216,14.805583549116351,-19.054858004480383,-46.66555257040776,-77.19134893945508,-114.59480504146315,-144.2402683455329,-176.50830211557923,-219.86990189209774,-242.32722822154614,-228.52983071888355,-203.48232939044283,-174.1991188215468,-136.00903410766935,-109.92930211230413,-99.99732014627803,-80.56732081684008,-55.02294965017445,-41.71218889983512,-27.138748686272137,-5.51251080034446,3.432374173131046,5.732511348387219,17.65687053429189,23.044364235442572,14.478621376827833,11.076029575439367,9.362386272962642,-2.208200692475965,-5.817528706745298,3.39995691828353,5.411552193597663,8.04263768246349,27.155923522888187,42.77234467890819,42.69806778329256,41.07880193931227,30.03922789030158,-1.952766610453807,-31.638913546977914,-49.35148647025507,-76.6050183748249,-110.28644451709533,-133.81158831726586,-156.91199018209022,-176.01919904878196,-164.5557679580383,-130.75430787111563,-100.09872815320261,-66.13103718563715,-27.81777508577286,-4.653111270798169,12.556633545084544,40.45169950966552,60.09265820234431,63.212098553899565,71.77234475064259,84.02607204970991,85.35013702128799,88.83808665392674,95.62211674661458,82.84704492321097,61.154468040538745,56.72461086644267,58.408406930863066,54.854318007074234,56.33781697909875,51.64483215997193,29.935616324401927,20.055923280804414,37.24864509075264,58.08399046799425,74.81738455729476,89.34727524013184,79.66416256044408,43.504029379993554,17.101038536907158,22.85749365947256,51.501758924937334,85.8282571860106,111.8605765861102,117.43151486555175,103.77561138047737,100.74542472753848,129.4514726178322,161.3537981407298,170.26904684997427,175.46733635352174,187.20737551754402,190.11383206700074,191.37818064949585,201.01160029270616,200.11519780664085,188.8424578876018,190.2343392585788,190.58177793682444,167.08536450770146,140.19158126167355,125.79056596205012,108.49718439126977,89.53015470632218,76.53820662477958,53.09133604777633,23.08107717222736,15.427667991288711,23.13620585160463,20.968822637896697,12.937484499627491,-1.875057597555398,-39.25618008988327,-82.83290382579885,-110.54502707543675,-140.22600990102075,-182.24192724788156,-222.07621779104207,-274.8544967459834,-353.1204238015864,-416.11635063431856,-435.1478006709405,-420.932510012781,-372.19765385806835,-300.1445915339043,-251.53450526574954,-235.40392449342204,-214.2719665351122,-183.90342830758823,-162.8961193395054,-141.72514563987974,-119.68342057611896,-114.71922925515977,-111.17159393777406,-88.23608343496144,-67.06668813073848,-60.384816537839484,-51.32235162383053,-45.023046705732824,-53.53526211517143,-59.048160609767834,-56.35053588669902,-62.57219757811151,-66.53374886700887,-50.378785924655276,-31.894692336427113,-23.599658435165953,-15.870207606310046,-19.55706922965385,-45.64260545695569,-70.81490771193732,-85.38900925548784,-108.46236449418963,-133.14524563402614,-140.0912414881721,-140.18643613733047,-137.05979122403852,-113.60850127427375,-80.64928098861483,-57.332161820629814,-29.698271124406325,6.328528975773363,29.7304398435414,46.47571406025784,72.1675467811679,90.02220359534888,93.48481831848609,102.2676507280411,111.86299921428879,110.20454757302937,116.45855074412061,135.52611329014235,143.53408868160662,143.66068887220166,150.30079092236662,146.65603212456884,128.07563471209627,116.6478579228026,107.54769947159025,87.94733274931211,79.4596413448048,89.43040346096123,91.82334003806986,84.67015767697158,78.8922290279357,58.38818984458193,23.29390659529435,0.5241283243593076,-14.8051347572841,-38.90644676928991,-51.37016927602268,-41.220057693870274,-27.988605285173087,-9.222672616758864,25.2371501906866,54.216728259220545,70.46545225766776,93.93313724666831,115.06388657035717,114.53969451248449,112.00085232459283,121.27764711551808,126.9393527909156,133.03770020970808,148.13348425932298,149.8775599874387,133.8945215408355,127.18762843303016,128.7865466927287,122.29685564771336,117.77315603163997,114.4705572907885,92.08495481967894,61.6309345626652,44.49811648661077,30.344717123757825,16.862251037187335,22.58459688592329,37.25259900242198,39.587419539533116,39.054896623751574,37.82852518182475,18.745729716106528,-6.832589887511524,-21.00680585559511,-40.17039991579018,-69.41519117146034,-85.651315191448,-89.7233445086243,-93.20388674080951,-80.96841261272044,-51.65906455567502,-28.09414819396777,-5.120577643420945,30.350057293485964,56.704690046638945,63.71325419525767,71.91382009070998,79.533603344346,74.66639146679266,74.05216043768422,81.6512970547194,77.08951750870236,68.99439851799517,73.62530127084952,71.37947207651392,54.87828051997176,46.363541899208144,42.2044901329247,27.399822768756685,15.971160769846046,11.359193035609813,-2.9747323309585934,-13.402528420026378,-1.7795727613335517,8.529010131248077,0.20156173494060425,-13.659168072174033,-37.8931050802089,-81.4707913754158,-119.58207338341079,-139.93379872930828,-160.72354011438745,-176.02954910584003,-170.28383471145366,-160.63097953781343,-152.40809789373282,-123.6730351557234,-82.64770218019439,-51.951755345257965,-21.706042968373534,11.15951687924898,27.871484349759918,38.397530054567326,60.04073811200494,74.07074049116561,72.56501299949363,76.12787454587372,81.56749884366985,78.33648835772318,85.52194532109587,104.97154618960239,109.43588906459425,100.07324625764836,91.49511623609844,71.36971987793811,41.22083453475862,24.959721451901842,15.939535394069924,-0.3194199132985922,-5.8991567546385,1.213111284980196,-6.160424356047005,-27.19358599695224,-47.55426288691609,-79.13160028637625,-120.2383401152378,-147.204952587587,-164.77330975634294,-183.42277904411685,-180.65289349394516,-148.7504020405864,-112.52077532756319,-77.47650458084492,-38.631897451820706,-13.625643183518891,-4.06627152066726,12.14807691702313,28.48611005555636,29.50572783686806,32.525316587073284,43.78186952549364,43.60720491273099,38.623437875942464,43.93074483020101,43.15747498969986,32.675083946601134,33.609584746943,37.68930511904877,27.240139534410076,18.38648951342536,16.707063674862436,2.099564255492888,-17.197938563039283,-21.932453000830314,-25.889927438396683,-34.785621769777286,-30.102556363375196,-19.676690754928206,-21.983421112891918,-25.304163904511373,-28.385104320768043,-53.766158138298266,-93.208820217914,-122.77491261370223,-147.09755264160248,-163.12258756926872,-149.94361332500145,-118.7483269076711,-90.97424110120602,-56.256301512692374,-14.08747545539411,13.507952494660243,32.89721387723686,60.05993777829399,79.61257698523279,86.53064567328232,98.6980994805983,106.57848684139715,94.71416701474774,83.45078717833334,83.12770174565425,76.74711982499917,70.45146793513908,75.92707581973234,72.20848045867183,52.55323854277016,38.698435510604696,26.558905164070133,4.003576873568092,-9.624917082721518,-9.589674920998377,-18.211614024213837,-30.236315566850458,-31.793953110300414,-41.52476131657483,-66.38372512640647,-87.91233235653206,-112.42962756742492,-149.91465936211466,-175.2306355109395,-175.96039803726293,-169.23751769328018,-151.18260628250147,-112.53406128424095,-74.52774132746575,-44.45982295761354,-4.267867903789622,36.075952909669844,58.03117396408308,75.95223684354922,93.91652495589234,94.22966485920634,88.2250143946409,92.77882440912016,89.73256365039965,73.18400409894643,65.31607243793125,63.41768862675802,53.99377024889172,50.82234189878714,53.396431160916165,37.07678615005244,9.442832482093074,-5.957682564450114,-16.221417198361173,-25.041965919302314,-17.57422616875489,-5.967505584610328,-11.701792600225048,-24.263756826459215,-40.44103399684101,-78.2547797022978,-125.65770082941873,-159.2147721770084,-188.03408658705413,-212.90337213960004,-213.48750977696437,-198.36576064377488,-182.66972341894612,-150.32358984666394,-101.34396167408543,-60.42558696074281,-21.746267894328263,28.93345240378291,71.68351860946423,96.25600507907181,117.39584411280448,127.607999475382,118.39646356370815,115.1655181125987,125.14255852268559,123.91727812482759,114.3138472737126,111.17299412816584,99.96075522089946,78.74822328602443,68.90183662244682,61.252463655488675,37.69440235781016,16.085761038097658,6.806619739717311,-3.3868708706608386,-2.722772653414685,21.87950013151555,42.08162293653645,37.682633110268384,20.307529596119796,-12.359859427769408,-62.103907464597526,-101.24866062573375,-122.7990909991175,-149.53413310289906,-173.6087599730607,-172.75808383446378,-155.66483604342812,-125.16961984988203,-69.66601044257209,-10.418080422768831,29.436620357068144,66.98068025300988,107.55733487871751,129.81671262022195,140.24532139369035,154.37117300605,158.27377785367418,152.22867804488482,157.35168910268592,162.88544398854256,152.99952410135106,147.09182986697786,149.79895754394107,138.88495314014023,120.00519595465634,107.87109437804524,88.72132756781768,65.3224871402635,63.857119461797325,75.38557224757727,77.38670241511423,79.60108805121463,80.40921547983007,55.42063981181484,14.762573772596845,-17.96237294069446,-53.77158890428235,-96.07873578577644,-125.56872647819921,-151.2503897154428,-186.1141772970306,-203.17815454975772,-186.7061175399572,-154.83171372163804,-109.4411475645891,-50.73862823288952,-8.735362770816034,8.657889306983606,27.254866381578413,46.9210593602268,55.99430268243488,69.41910692419206,86.88125517747423,85.84665874439207,74.83978505837895,73.30632756462873,71.24499045324526,67.28586914764364,77.17888468040846,86.55336658648525,75.30677235577606,60.02129198405858,51.26826378297285,36.44193149217152,25.234478300328973,30.728605367183537,33.63823107150426,27.059822546390713,27.191172518676368,21.69923232803857,-7.54636272636745,-41.8562488112553,-70.23090274049778,-106.22878340120798,-140.797908648571,-161.20242283881072,-184.1183904639285,-206.7406236054263,-200.274253503875,-170.42917760406337,-138.7197214693275,-99.01975768232208,-55.48873993383418,-29.9917704005719,-13.297173886050187,9.980225301081795,23.36853650645181,25.331009678965586,37.88991264818146,52.239437393625195,50.82496022701006,48.59028848428902,50.07976150678234,39.19744899093966,28.39233548813003,33.618033583148105,35.50048653744106,26.656988424384373,23.09832522479307,15.174994024655367,-6.843623379282468,-16.169786963775064,-1.9131447826095993,14.270957365931366,29.174823857834983,43.77700065262208,34.37055390349906,1.025895595150109,-26.96110895266098,-51.80811245579964,-89.41228744684852,-125.51882867434668,-154.52833909030986,-188.022599047235,-206.1811324649015,-187.8062583692043,-155.34834818046366,-124.88103338107354,-85.80674078274785,-49.333729931641344,-28.652761710261803,-4.37622313750781,26.11068278491446,40.63194156821181,48.2084448274951,66.05059734345913,78.12009777975902,78.89827074370372,85.7503570004967,91.91177983193612,86.16845020308537,86.53372328722794,96.52699892615007,94.5812813469908,85.51816345518425,84.65622818677053,78.32597561057005,63.54028547754464,60.18957800581043,60.70843321617835,49.31525762740881,41.3302251754748,39.27425983402445,21.33958027126877,-4.633306709476445,-19.956423999449836,-37.98616991755697,-62.77068551401254,-76.918729021543,-90.95604064574434,-117.74776862165403,-131.37092617945794,-118.13738160625277,-95.90821730475905,-63.4645600367566,-15.746531004698108,22.71155790962235,44.387688481085796,69.07084122010173,90.41967334217532,96.63347371466207,108.63366480301787,131.4018713158296,141.13116217801937,140.34323577175047,142.0214783617194,133.34319477419058,117.32128012778857,116.85756651211348,120.40931245990846,107.85271837785199,95.63340873254478,92.2314741715143,81.39925437008658,70.26969291178393,70.60249070817929,62.63731220056604,40.47409931956952,23.10986441436257,2.5173855250814956,-34.928523282218414,-68.23508369221105,-88.7698113903435,-116.0055075056073,-145.14545598609297,-162.59899719934396,-181.64144640937553,-199.6072658185799,-193.17247945764083,-173.59792865233567,-161.0013368736148,-139.8814811464821,-104.43841676673989,-73.28980310004708,-41.33297346238199,-1.5245168134242792,21.70002409515289,24.764634364823383,34.661716745864396,49.390658155330726,55.48852624042674,66.61807230332526,80.63946333496219,75.37489907384816,63.086567726626114,64.06070011354727,62.75937607350724,51.42753368091954,44.47067043326765,33.91295044009075,11.67075725909459,2.2479003794269383,12.417586314675956,19.09389381857146,23.32771248302367,32.57658268221071,25.4726673131932,-1.8214655899300123,-25.904947009345847,-48.59258413579077,-78.61467465493205,-98.19631160143696,-109.04080246105019,-135.44739973856767,-163.57667648641132,-165.47129720411368,-150.15318978528822,-126.67361687016756,-89.80270815806814,-59.65593270469424,-51.10834509634256,-37.32417867583957,-6.14264194265421,20.506343393187972,40.75200221398135,60.583036896091144,62.73590163025935,50.74118197802126,51.70457808400539,60.74332237527338,62.74920954105343,70.58381079270892,82.70322283403303,77.71043314613544,65.71591316866869,62.97229242457992,52.3336595202734,30.21058892081276,18.81374892147163,13.27192661971731,0.6152867174105303,-2.0077562279514645,6.85305465373664,2.1987809586123324,-11.361337875793204,-18.183185361060268,-33.39976962097222,-60.10274736203882,-77.40906586082512,-91.44107213153961,-114.08571080343705,-124.65868198714062,-116.35292435783995,-108.62040797759384,-95.59768322342238,-65.31656061519033,-36.64374074981476,-14.85126747343001,16.840010611391605,45.28149106704901,53.70205038800813,63.102253141947074,81.8789376422413,90.9133530364541,96.56410901546299,110.81687161065719,115.51827113788053,110.21654546577027,117.29578608118926,125.62061653555837,117.70993856220605,111.22777672682275,110.1909828182705,94.71105011374333,74.93649231682062,68.40195287690977,60.02510924207171,47.19917559141181,47.600045686786935,46.170791615048174,23.825473865484778,1.0418223638469533,-12.967241006336327,-36.08482958643758,-61.35208363689934,-77.0283440864445,-101.6264317728566,-135.64124195112842,-152.83175999169316,-155.49747415639806,-155.71862749077133,-138.44688678613812,-105.41064393126993,-81.53111029827308,-60.38620230221599,-27.25935477300517,0.19994515327091467,17.087587410749435,41.11099743861728,61.72908540279674,65.29540556167416,72.89011994026808,90.21658782252821,97.17256822753717,102.17056298456832,119.06165445845149,128.11264896509755,124.49176418763986,129.11407078348867,133.33220395368744,120.27185002090393,106.65718485484317,97.61763161375609,75.82511725939118,54.48944170044687,51.80374314350987,47.479606032248704,31.062301202110362,17.731834821245485,-1.3994512853188112,-37.1013297716233,-66.92608041494547,-85.21988248826835,-111.97834988004408,-137.9579091254464,-146.95144848770667,-155.04025674028307,-165.00915610073275,-157.3090270430837,-142.81105444441746,-137.30183515270113,-121.62378815642893,-93.0115701350307,-75.58677309732556,-62.651889331646174,-38.35642174528211,-18.266071061346423,-5.336148584848185,17.838405020742794,37.89295892787646,37.721187846682916,38.72191130979078,51.49367858536317,58.2352962702524,62.17473121877744,70.30643783256507,62.93339995515663,41.66506760019125,34.35625603389272,37.1510506156835,33.4810964048214,35.1230499802182,42.019810616914356,33.48974144317182,19.102306146947864,15.128263414190085,3.6396180356058156,-20.83815441453102,-37.79736769986699,-53.395278043938276,-81.56714023831549,-104.27946863232447,-114.38218727852731,-128.33547442163479,-137.11332061994477,-125.88764966173697,-111.54691182644049,-99.67611089720651,-73.10150876667507,-41.58130808310099,-23.043385791077164,-5.741438393392226,11.773999359566838,13.5608687869248,14.751928634040361,33.698465652051915,51.00171950385945,56.991118734155926,65.69724711649704,68.07141946194187,55.99647978739884,54.66110419313584,69.74576858142599,78.00518512847994,83.52876815591758,96.81304436609966,96.97057009130195,79.11124320067938,64.21423607002427,47.2711662910319,19.758178563430572,4.319637304162724,4.527871078245357,-4.817026152154275,-20.58421828373959,-29.00340295694414,-45.688513487408336,-73.07981269024349,-89.50919392921767,-99.68107005883724,-114.04799393188286,-112.90176448491721,-92.5796524600118,-74.97529682695756,-55.35646911222741,-22.920162263955007,2.393891180817568,14.768984554228162,31.839820652503704,45.78982113288572,47.056371509425,56.2588973797851,73.96374647191594,76.62818021754677,73.43842200672921,81.63386118061462,86.69673871309226,87.51902995023336,101.53377364570242,116.09775010592207,117.81158257270948,117.84372978977954,109.0868474306256,83.68571208094438,65.12703709377135,63.91451832633554,70.91960512639679,88.96611790689832,109.09442161540443,112.61522725704627,113.54677322966829,127.92406156682213,137.40791305161605,135.17094237945028,136.11216081964483,131.66662020920893,113.55870093503033,103.69754139648325,104.67897636665131,95.21329916860378,84.00670657876749,84.88539130542271,78.61477994450215,60.14023768421794,50.26923833920881,44.80309444993114,32.64540420595018,29.687325742905347,34.93452424080337,24.68220604454492,6.490413403474896,-3.1217073128305675,-19.395712755049942,-45.941065844421125,-65.65095025907337,-91.76249671195446,-139.3835076958142,-182.00011630607983,-210.18714219767452,-254.80430495818476,-314.5092395545372,-360.589288672384,-390.5130759147371,-390.32275216567393,-335.1297555916823,-259.6730980375026,-215.023432518428,-193.1930034582671,-174.67628914224497,-164.34813401233004,-152.6209616757502,-131.19913574408537,-120.95003246328547,-123.67534155691907,-115.66793676031865,-104.2879261273077,-107.3364191283818,-109.92882803853321,-104.9864362359375,-107.22050416517943,-108.87552902456096,-98.72229663392885,-92.70854272416592,-90.54117766453027,-71.69801361765516,-48.26836920856369,-40.70440401895473,-35.73928869622337,-29.945548080105937,-41.84948249216521,-62.31498923562347,-67.98404350234166,-56.66730970005467,-34.115685100359215,-4.918553731563054,23.175525295013585,40.961718213907155,51.998778548530815,79.0952787301932,123.8800271577069,154.03460156318835,161.89408503359263,168.31343675792886,170.2384532373175,161.63635571269805,161.21756117878263,165.23351930781527,150.84742288307976,132.31093547317545,127.83710850806668,117.03534224861897,94.57596069911794,84.19095384709384,81.87492898902674,74.06207272562942,76.93405522833201,91.94260566361336,96.24037529717108,95.44374395851567,101.43075538055722,93.44811038591052,65.49441203404344,39.47712916844077,12.196531376500495,-27.502336039066368,-61.79237511389769,-87.20458791830785,-121.19707407158444,-147.78855631043342,-144.21732908325276,-126.30401753225283,-103.43254113165376,-65.4315694265753,-29.237001597303305,-11.848191429362323,6.424352835379022,31.494455968187303,43.98820649777575,51.81507943571563,69.16848977226988,79.34159881192272,78.73675328240995,84.95258779701251,87.55398556461657,72.94242954248332,61.284692510824385,58.90747631488825,48.81059023472007,42.208592741459874,53.3625548300414,61.39108668678392,59.597101940826484,65.8879060493052,70.0451698290112,57.807210454363,48.680041244828146,46.134194397714026,28.064990129409516,2.0115323935649743,-17.318988986844225,-47.05548484377067,-90.6889067466431,-127.0777917973459,-157.79808780944808,-186.04907136785604,-186.7464399130995,-156.28201223676072,-120.69775344203919,-81.0671451014598,-31.49517423784581,6.434096369898344,28.30024488742072,52.783429860953056,70.3309870345243,69.678990327685,74.34212772876137,90.81988019997938,97.88359683686825,100.59977208273995,109.86197332320923,106.89675204284052,90.42604248271205,84.64195821448126,84.1068133483725,74.88493559757129,73.33620011689189,80.52958952013579,74.56615380290559,64.55044713592719,66.11489160911412,60.789612067085216,41.87942780470737,26.685742318994997,7.973570606736553,-25.184900333102465,-53.332862370752586,-73.21001365360642,-106.80032077655434,-146.66133107961824,-174.2355880000068,-199.31002089129527,-218.90593819165608,-209.74578879401918,-180.11219485720557,-147.76933729452182,-103.91168910154487,-56.50437980554521,-30.621844699719546,-14.702230416118173,11.099612960217563,35.0624657180546,56.486608784455754,90.06832872749173,119.14634767995031,126.58862421628251,131.07691274028008,138.0187561383979,131.83944386503913,125.32760711760073,132.8370129697641,134.06891938312037,123.06981725490722,119.20919601356778,115.59356982987013,100.12943512845439,92.0021091664161,94.86033376472392,87.33936263439759,75.54775804276625,70.82883233497579,52.8185780963937,17.76868440670907,-10.564212046551596,-35.40122581256083,-69.3987403887576,-98.65199048901749,-123.4196083369592,-159.57200008303033,-187.10136465603577,-181.81704673102107,-160.42967539677778,-135.12468658982385,-98.93755120873764,-68.08807538610603,-54.45897286875183,-34.645864914469065,-3.495732852710134,18.096677799612948,36.7294092148978,62.72374751774596,75.29144042889747,70.66760212821423,69.08529207942253,64.02701883831685,46.60011095639702,39.01874454660128,45.47148893050183,40.56114910631627,19.536995210697867,-10.291157560154094,-55.013315204979605,-99.0254012829579,-108.030685469245,-90.10111526824761,-78.47800147205504,-76.79575561608713,-84.30728529725693,-107.53275827060409,-126.78887541006384,-129.35790502890455,-139.9783607818111,-165.24711262422085,-181.2188424087114,-186.60644836837105,-188.10771530054637,-169.29106047357845,-132.9944668441,-103.55874855099745,-74.13387677511271,-32.4749694084465,1.4099166523356574,22.425437262475473,48.33170689947729,68.6542151561014,69.67854702878418,71.04825260625256,78.1624035850102,74.09006674624618,70.30254343856782,80.16624956117629,82.85083649885974,73.88836542012127,73.94630059597239,76.50633776877837,70.18779430392631,71.84849960739953,80.3453469278656,74.23633881754591,66.42271286655125,76.23281830730859,85.72491518980961,84.08553730459549,81.27745537497417,65.34749261299348,28.26399813032463,-3.4520339299521723,-20.97341712489247,-42.79548763660936,-60.9721377108656,-60.959880943980394,-58.63643068159039,-57.09699946698558,-39.13340078272207,-16.869237286137654,-5.79414194229926,13.105190014229873,43.73009741092346,63.535772349500064,77.70122525682538,98.28902170900098,105.90018052390238,97.13413107491004,95.24337775860141,94.55035669723563,80.79254852605928,72.06415355340053,72.73282020622182,61.01360437976937,42.98195725853543,33.73779972418602,18.717852766954486,-2.18916244816477,-5.393678126459074,2.2202392964509206,3.4908971209344926,12.384138759631064,30.98315253685994,37.48412281843862,35.89017059725049,34.717407127576976,14.705344360989596,-21.167366556968926,-42.85168338844765,-51.67960395825519,-60.83738364865829,-56.700787219414025,-39.27090817893109,-27.554321298044087,-10.823299446902212,23.773390801539193,53.65742971964191,71.35540778083137,96.30568376338866,121.50547793959939,133.1082858498413,146.04764322954847,160.04203109798573,154.71560728440318,141.68392362058626,139.2174124334686,131.91833187543617,113.52710283498033,98.59280597931757,78.53473538290389,44.7227272401623,20.77826858338374,13.424573299066843,0.5820501879434339,-14.271141478922756,-17.35338155351738,-22.51865616523383,-32.02554202671379,-29.757861411655618,-30.866179986927254,-54.7251649658721,-81.33587506396407,-99.30518382678198,-124.56593521683642,-151.09806156258486,-168.26463575669928,-192.27410568145038,-217.34938780070758,-212.0897129611168,-180.5632234182059,-143.4555739724401,-96.96493441322369,-49.24306935872679,-21.749070153089065,-0.9168657092207386,31.32114453282516,57.28781115873299,69.58259000672966,83.27310894632066,90.84829595569883,84.95023408737049,87.74406952359212,101.9691289080749,104.71576118261021,100.07831612748029,99.34015786574312,86.71928701012467,62.92620772500024,50.6466943487949,42.3883521462728,24.9661319938812,17.29167288491259,22.29468814554835,17.178656899760142,7.0693918938896445,3.8747574266531095,-11.708568492341927,-43.291906787658,-69.08704638861327,-96.53540118831874,-139.53765609975443,-177.12024339801656,-198.97999473181625,-217.74254501619487,-221.02482406382018,-196.53626548367663,-168.49672831403151,-147.76464454838677,-118.5707702553054,-88.51937655480158,-68.71130529712549,-41.1663394887101,-6.003920939557165,13.289941770101889,24.379379032807208,42.58600312406294,52.463730317405165,52.98470116879832,65.49456950260449,81.98309552345853,87.52868849727348,96.55914447695237,107.84584911398105,99.63212991210263,82.64573694628285,74.12010143366814,59.19552431586389,36.848099346254884,27.925644610563097,24.63203215638474,12.774367790302264,6.528929230582284,3.1698530962081266,-20.388434843228303,-51.837171958420456,-70.17464357209958,-88.43516349429612,-109.64166506022033,-118.01481851474165,-124.99202150292186,-140.35990000320032,-138.80153334747055,-113.62490790167767,-88.00790021804471,-61.97471557984969,-29.43286118456738,-8.45857350299509,1.5896207410540915,21.317487505304825,39.99173142649595,41.69602967946105,43.991349364786586,52.85188417067611,51.64804043047925,49.31461680137136,58.94235089963594,63.572769866607416,60.67285804944968,67.94374127721292,72.98635671623879,59.68972896139793,46.169970155959646,37.82838092122958,19.42297050454394,5.3192173800326765,11.996866768507429,19.942511410851893,20.88096064841713,26.853342408115562,23.37886836006082,-1.638099018752385,-22.38604733733295,-28.452367055300158,-37.481941025554995,-42.47426069749579,-33.34893044025953,-32.29101454452562,-43.92541165244107,-45.29003489422755,-40.247726092861996,-39.976893136058564,-27.954347293836506,-6.212686267511434,-0.5418287578377687,-3.8769170562675113,0.475722145953847,-2.9439554721977856,-16.84371722222417,-21.198333913368472,-24.651115679130555,-40.88427437192841,-51.608223864235754,-53.70446047369988,-65.94213489237171,-75.39085552266963,-64.26345819699178,-52.19078191528874,-49.488235113523466,-43.348964843734485,-44.009866447912465,-60.12102637393522,-65.77649773540168,-53.02735306219589,-43.40740515029831,-34.35492308939796,-18.741737562453423,-18.147174637612494,-33.03320493500314,-35.359652503701774,-26.214964019961652,-17.464127128513965,3.8298453002810957,32.340330864326546,43.34340095218685,47.488008529376664,63.614453086496205,76.93502555553567,82.68591951021065,95.39093535166592,101.94906669255823,87.68446119669969,72.40746807941248,63.34552726017539,44.36250288176252,24.15466113391072,14.345676063518686,-3.3946316850664253,-29.98737904284682,-42.1884195642712,-46.73391421902887,-58.9708312094144,-63.81390740986416,-57.362128731037956,-54.973092312536856,-45.841887640865046,-21.502336891709085,-10.628413041409015,-25.33391593279583,-45.72820064083822,-71.54968748127743,-105.30514802819654,-119.9006348175514,-107.92240034820712,-91.52342704413144,-67.85553366108059,-29.6227235532709,0.6081562113229735,20.875703467043145,55.87055783798833,97.43224964000079,125.50109732229886,150.24278733053185,171.92757608673668,174.8736915770203,175.21571464449104,189.21144193967882,192.7605439531351,174.59902849608306,152.95741454634586,125.00880087516573,85.42461698025957,57.661686300171056,45.29690660903349,25.705481723328823,5.079861301827899,-2.6024799320132117,-12.481884764144176,-25.410783858611484,-21.74700228692609,-12.072870023070713,-14.254283817222072,-16.91892452397604,-21.592882817939287,-47.170644765621795,-80.21196488478834,-102.58510728670991,-129.9831956704453,-162.75428486860142,-174.63560168910772,-166.43403787044517,-147.42043470105193,-102.73397304266828,-41.323410358085624,3.075756157461912,33.95411505170073,68.3107843459059,93.34960988597106,109.24127548016193,134.8165763282051,157.5026607541798,162.0697759651699,167.15231754190577,175.87700262759324,169.20489055223737,156.46331843485942,149.26220276432517,129.55141110705742,98.01621121327125,76.67748129160147,58.3446395700399,33.9516544056324,25.138305719484734,33.336582624251015,33.13287522018706,26.589972063056464,22.295500667838507,2.235479268567526,-31.69568027833808,-54.32879180579836,-72.39684057964759,-101.6080859516435,-127.26940279757821,-147.3456019188422,-179.90490387412464,-209.31014039394643,-210.36954604917955,-194.42580334745952,-169.0298797304488,-127.00693715760882,-89.83041772340448,-74.51724074404001,-56.85129213734815,-27.125721036441362,-4.6130035335467126,14.31389950435566,38.45384461826257,51.24317071329125,54.688665067584516,70.02153972933439,85.27822334859424,82.90984784614017,79.13478146718919,78.70384633896998,65.59346938868998,51.073357204262486,49.410983936395716,43.685780878438266,32.68033630379111,35.69710813265519,40.02684369311459,27.33860992061768,12.283209030731573,-1.3478787613907341,-26.612549925510862,-47.43291063317258,-49.559904355623466,-57.01078439644894,-81.06742461659206,-106.87930707586744,-138.4046053016143,-175.02943577546318,-185.7682869105273,-164.44872437637054,-136.30981187234758,-101.87701395946127,-56.14767150331457,-20.57852251407089,2.425500605860283,31.67086554348871,55.257931787939135,58.84276741135466,63.15283009001571,75.30911279268662,79.22857389230832,84.99198837413289,104.2664002498646,115.5364579656657,112.33995096507185,111.54865018011436,102.73110964081587,74.3299087152473,51.51278077151777,45.86615143449842,42.11746734899885,47.28644591789286,66.94668685039868,73.88755838255568,62.07472247777198,53.3042603947417,40.24225143803866,9.801145893553326,-19.14016676390166,-42.43424016675306,-77.2223226637948,-110.4597502311489,-126.6489089322657,-144.8389063182061,-166.8701764248312,-168.3060621324369,-153.7853580345923,-136.39871920601183,-103.0423591812948,-59.2773941505054,-30.95132641013455,-9.76503095976258,20.307461216663924,44.571662844457556,61.59215398694616,87.76882605580882,109.40487149233269,111.56004433789234,113.34358509246593,120.0888023076543,115.99545039075144,110.9335509266873,113.73071672313256,102.93460532880084,78.71318628608759,67.09340159935465,64.18156151960413,57.25889456145021,60.813188417863216,73.7773606005885,74.7969208947626,71.61373216337063,74.35786112985876,60.2272818271821,24.735447111289904,-6.731044049830172,-34.00138191945196,-67.25298642960713,-92.58296444525601,-110.63656522809237,-138.0014179324845,-158.35571634773635,-152.5148910542715,-139.1340803007683,-128.0293374399929,-106.95751089841409,-85.76814669640643,-71.91238832411047,-44.23236031512954,-5.474410991780701,17.78441322006452,31.96393755939942,50.99970748875377,59.86717380263711,59.16398382359333,67.89680134529588,73.00487354256975,60.2142404382988,51.41567862846327,51.73962271284582,41.09542597086502,29.212110204143578,31.24927994684974,30.54896950962855,24.92938898898676,31.737535299346945,36.5809129342154,21.539774999160777,3.8038348410150613,-10.886563913365793,-37.12405222508422,-62.3523442278578,-71.4740196878584,-81.14328365682506,-94.3599273354367,-92.1212298080934,-82.21121950186914,-76.85905973110746,-57.8973775820935,-23.14580535487613,3.8354124258749094,24.955302984218108,48.45886993615376,55.40046794763578,44.97483475254067,41.12216441742008,39.50902951793055,28.081768336313523,22.865922865173967,24.46763268053969,11.362601036417093,