54.584248037070175,57.672862201264486,72.06986165087848,25.04014880433354,-10.452626148337334,10.7754288005992,1.769644797623986,-27.29313567098627,-5.513154008784273,1.8065942711060072,-37.277809875477956,-29.465615912996782,5.959628325970115,-17.250569936210162,-40.93739086642544,-25.190716890164563,-46.313003360718405,-77.94718419683562,-43.298317572336884,-13.08923672909251,-32.53918756006037,-19.100895468356704,11.654189031865968,-15.818368409376633,-37.3513109850058,-13.593508009585317,-26.844651967881674,-55.68941112620896,-23.048808233965723,3.172463402521198,-18.09861540790014,-3.3486917280725326,28.40058368874897,0.7403506043006054,-18.764207334334895,13.74556118799019,15.286830219100947,-1.2823630939550332,33.48060787383907,49.4199450757447,9.347508004245906,8.87217005340634,37.32049829408274,13.80457532815267,-2.6898910662520805,23.28621515516698,6.138020527963272,-29.608290854239613,-2.372950124703655,17.07058811380513,-13.301856991216015,-2.8203441888847056,33.56088655381469,17.527541648444853,10.75341806238503,42.446668062254595,18.53079005418691,-36.62959949963249,-29.65484586836417,-17.51989958552821,-42.613082071849696,-26.99337147369159,4.538226426984561,-25.731663555626284,-46.21017472619304,-16.112071467588684,-26.717708613489876,-62.757342078609014,-43.09567031067647,-27.08385215698444,-50.897998151586634,-33.9918042228357,-3.6212874566474422,-39.066342196178255,-67.60090011747457,-43.96963479549909,-52.84669936336698,-77.48062132236922,-45.30196866343542,-26.414823168565704,-57.555927679777334,-49.00779670594453,-20.049477430027775,-48.47161811482885,-65.64092435670034,-33.034783381077915,-38.7539626478282,-64.13922728116543,-33.444796274959494,-14.459659082013957,-42.05916042197098,-26.10768995484434,13.252308524979636,-4.315309394203863,-15.799343721146762,14.346903890722189,2.0002952423148486,-29.327117959541926,-1.8585037359296575,17.056303878789237,-8.993009259178448,8.327620795488281,49.47774222240659,35.47310791261357,28.85980283339654,63.12121736023303,52.2623600318625,20.593176817545288,48.778829227342456,69.26195222522777,41.57070846979951,52.8378411638196,86.65507475729636,66.41616848030787,55.131336625184105,84.180327658883,63.500851263995095,16.923114146349583,29.762157508421147,41.86539040130153,17.535654109778207,37.974084729483096,75.24454955458471,48.04540187715183,21.83037506699825,35.68775303233788,10.031383022777074,-28.386318319814436,-1.9175449363305734,18.50313421460791,-8.889251574998694,-0.17095962206163584,23.764619709484567,-13.102862693249243,-40.85290456935137,-18.905001977338863,-31.453249252563865,-56.78544571467932,-19.907297637284092,6.784462951642135,-17.321906784517275,-7.39226769315777,14.730316756139471,-24.38288868047003,-48.971236574919125,-15.703628224141108,-11.40452661472309,-22.47701854704712,16.42047920200338,31.06798671413877,-9.122345191288314,-4.27159481824574,30.721870302983977,13.908492593552888,4.435096173420678,34.46367011354478,18.17667890023992,-18.496458083200665,6.744831182844358,27.83422106114613,6.436292855010086,28.647211616204505,70.8677386916898,49.15888592093546,27.160288301491534,45.20086926102795,22.5569703724871,-15.263479902933822,10.518373532139721,30.504101789716515,5.359983131251219,20.987926684013026,54.04282062162979,24.141459193335386,-1.0865498061765866,18.329449722340108,-0.3076410820221245,-33.71647252329608,-7.397777422369998,7.831482331513503,-22.463653345708565,-7.140128774252345,31.1179529409968,8.284743957410445,-13.262075229516471,5.207969341258801,-14.548856092094018,-44.530070656527904,-9.429826109981109,14.951554686616932,-16.041032625816165,-15.368091908648209,4.8749827194576545,-26.228064167417074,-43.223824846819305,-12.700307140634912,-22.471578800854914,-51.623629523264896,-22.4016546075444,-2.864020640859074,-33.059113885897006,-26.92860476777431,-0.6625229503261902,-26.426234402642304,-37.06142302315625,-1.6526438015028724,-13.581506039923664,-52.249206683201,-33.684784950346014,-18.045543421980994,-40.76333851771358,-19.61138961882022,17.791097541493045,-9.852726999186302,-33.53118279150861,-9.227405484302816,-16.673647857788445,-35.34480241056911,5.608794273246762,34.07991694166006,11.586359370523414,25.157201408280873,57.83546566464378,36.127606534276296,23.973086109987,53.367408003273006,39.61852168185656,7.6344483323739265,34.0891883265502,50.82098629774356,23.378366265987008,39.815565346826965,78.2621834711431,60.37187088647116,48.24217816157214,72.46393992985278,50.27894136773786,12.670505504660708,40.78216141369196,64.1279646015924,39.1552016779642,47.50872666007223,70.2418100848802,36.285463871056216,14.53271104422998,37.40688402720068,16.235712418015336,-25.524671338944778,-8.911361797427514,1.890042611324748,-27.002629550706935,-12.79171613886093,18.647305090446743,-9.9442475516489,-32.09626528148408,-12.563818746617908,-33.496194829028184,-66.43752724513612,-33.55235668949018,-6.8609828781953865,-26.58963450040466,-10.429827201826077,16.26685535884555,-19.652141764260495,-42.488645533662876,-14.360700578654075,-25.62278761953892,-56.45374370941996,-30.274407924399398,-13.982801100568071,-41.3750039557146,-25.785016643094757,7.380553467071408,-21.91014828919247,-44.31554922050638,-17.674965653121752,-25.133183944805744,-47.677650235297534,-11.715209251251206,14.13992968666085,-7.944599143623121,7.9466604296052985,40.91209564010218,13.20538018570372,-7.34615866559845,18.954420688486987,7.71382496768469,-20.753569396527705,7.7929568481451295,23.8454447678518,-8.268336460047815,1.4127300008689456,33.50866615984642,8.397392038665418,-12.138669623526356,5.436923504368842,-19.759208271457226,-55.39323873087567,-20.110286056179184,12.559443925048242,-5.793183057297201,1.1920261605698057,15.080285657358461,-25.845318798019232,-44.014653265596834,-7.047432009698259,-11.411840337206119,-41.71981489467957,-19.942944764958174,-6.243285678378712,-30.419997442054928,-8.731079873799507,27.162513422965127,-5.21996370456997,-34.63868046351894,-17.19774964330999,-31.718923228060024,-53.34064422235867,-11.66136589375494,14.568455432497531,-17.382241311413758,-18.837729589283406,-1.6390950005325156,-32.20271915857564,-41.26357405889011,-0.6776063096264622,-7.857949940700699,-46.574236109745804,-34.248285670092656,-25.362333932674588,-48.596532973385884,-22.25664414168599,20.92198139119572,-2.4632385496669684,-21.776318918448467,6.790384074559366,1.45760894305635,-18.08494486336297,16.482778172198493,33.10725761664045,1.9151202592397496,15.336487122012763,50.519142321557396,27.99133623982237,11.957666733233593,35.97357307393536,17.424264280854764,-15.66693431752024,13.838572148551675,34.97975367534254,9.580259797586223,22.00279018932907,49.02866530929967,16.702254590096103,-4.212960941655892,21.77671336621848,7.868374148396525,-23.65406249279311,2.3950461157771947,18.353177348884728,-9.953531113380764,1.9156770635592366,29.07380853672346,-2.4080664053697625,-21.192931363276607,7.8715226957318745,-3.28869792734249,-34.77909037190521,-13.68485008328088,-5.617820854148744,-37.16836064314751,-18.873884908244282,20.026002951353476,-3.1396276208749327,-21.473937022417964,2.708565227420193,-10.82088394893079,-34.5078439169951,2.729700971922888,23.68950128885713,-7.892826409679616,-0.7856462589117523,27.2075240422055,2.3445896925017387,-11.785128660801826,13.146701484295198,-4.866609582069202,-32.07827814710043,8.968495539450306,42.98101870286308,25.701836784636185,35.67922822147598,53.71734988489825,18.030356899221566,2.1470739265208625,31.726328604538963,16.273086502335126,-14.450446647238124,18.901407353949164,46.43661625227206,27.53908127265888,37.05175628815341,51.21683019377745,10.641708729672795,-4.695592424848959,35.876081151855914,36.013149459729085,9.47004032738039,28.693422019373813,33.180217358346226,-1.4961960902248954,11.361976060285468,44.38053439985416,21.945004693043977,10.548536747141807,38.26113632844635,17.381037982902075,-24.644955589043498,-7.796650166351791,5.9415939249463765,-14.018344952822341,10.121665292261968,41.796264312984604,2.527414803999662,-31.461453041895467,-14.399237410747281,-24.425299962323333,-41.6536972616049,-3.164860355524805,13.427483937925398,-26.660046928851465,-28.904973772738227,-3.9648148053048704,-22.398442371348924,-23.594012834884275,14.357451721086434,-1.3407909268509375,-43.5594177335717,-27.263931483771337,-13.485910825733376,-36.78684658297438,-17.911137169274124,15.925182366821431,-7.815286081190321,-20.92167240825293,5.136531583833934,-16.748777605126918,-56.67637401439127,-32.099357560452205,-7.3256435044131765,-20.155075344695273,3.375595227257879,32.9008048980472,-1.038027984145618,-23.239523312335763,1.5541874453928628,-11.236035820962368,-36.34949300888849,-1.0080162850226486,22.321870268391056,-3.8209292195182005,3.9276797557722016,26.52988292379907,-0.41191311331051317,-6.802246848841142,30.77844054358698,18.505822325507417,-18.58258064505903,-0.09582371363572229,12.040201567738832,-13.58973623266992,1.8985188410296114,30.073944754942367,3.2843797477647616,-6.102004323660125,27.732302971483165,14.591360602909951,-18.311308854240643,6.483449768049024,23.806553809257633,2.085793293726123,19.658862993877506,43.71681307274059,4.483173846161861,-18.698318834017734,7.557348233629421,-7.338598149004547,-40.09104689696396,-15.96331968673577,-1.3281052627457965,-26.33580069269313,-7.693450465151669,24.26661809473666,-6.697452914651343,-27.195733789532877,0.1988473552434371,-11.047695965591792,-40.593110768822086,-17.303713308095624,-7.2196478639052195,-37.05367045035494,-20.85893025018393,11.037253307341647,-19.189130402365727,-39.904590159778095,-11.787029664901542,-15.418766866517723,-29.098781715524296,8.38442571075581,18.242324791104515,-25.037369177604766,-19.471427973699797,17.866061413589307,7.5826038341827955,5.179273875388847,31.623824461971925,5.4191428888398825,-33.2564837757932,-3.2998127643052175,20.373752339822293,-4.379839658260526,3.4200580395539015,25.16550362625639,-1.0158112618553883,-5.103037507811459,32.636866859072626,17.49920641311714,-22.462740127682814,-4.750574939364128,9.684766880240097,-9.72833295241475,13.35595086318735,44.35360049108394,11.44055822460268,-10.858232332932117,10.5676345315867,-8.913511378345056,-43.28334062163032,-19.608632714366873,-4.698307600792562,-27.69049340796424,-6.656999533866216,26.98312088165533,-2.610044640617236,-25.660906258623736,-6.986619728848487,-25.36791707958169,-51.801670683699356,-17.502526465440013,1.5287609072163404,-27.404784264695785,-14.17802972143992,19.929971950107543,0.2532761007453299,-9.64356185660144,17.328894101655386,-1.4754396559233403,-32.276842932091355,0.5739211953618302,22.4893517863031,-2.616118320386329,9.050679828036207,34.477215475950686,7.444714915394631,-1.3084029329959526,33.07105028341004,21.48303869590533,-9.884539915510551,11.70964339697854,20.552956711333646,-7.022908238332475,14.546534483426964,51.89240496032581,27.239597182334478,10.239967671803637,34.566220203149754,19.097723222420523,-8.932921600203754,17.709324236414485,24.99147993300619,-13.21631465798907,-3.504254708433013,31.242439323635075,15.83143082704871,12.293793349903295,43.34421534305,23.630673562784843,-13.031514856164575,10.859201614050255,24.1687665630716,-6.1588326713941495,3.3065675857272705,25.975431597499316,-5.131143125196882,-15.702772756320405,19.348464046241027,7.945259117028261,-23.66160745179925,-1.446680335800444,9.29584617288937,-16.672431938915672,2.272474278915908,33.071146895734046,3.0655741753812187,-16.155938439077865,6.495367806860102,-13.546198207882478,-49.75970363507015,-28.155368649084515,-13.654536209766668,-33.62711624500079,-6.743927098560103,30.980673723389522,0.48949440449311155,-24.643283021852838,-2.3459735237694286,-9.518572743037323,-24.38926640417122,11.844046927506184,22.899130489329735,-15.007510585874964,-5.297905918684208,32.61816267000087,21.617856079451222,14.782549778488976,31.341458903352933,-4.214200609980374,-46.1193869268056,-14.756258744401892,13.0586535697671,-4.8803862861985525,8.585400458533275,31.040470388980452,2.2184575850353436,-3.9502367297219143,34.2571106373726,21.777495067762587,-15.256321601341956,1.730664449489172,9.347101002141553,-18.653207297313042,2.322348121419619,41.09302071100325,21.016280856283505,7.82821216988826,28.785251106287408,3.7934301884420982,-30.078381990467058,2.1229623462693787,25.004711564890563,2.1847007575193693,14.105375118876912,34.461507954193344,-1.1019099489534447,-17.60638076806127,11.311641773671983,-2.045635708641516,-29.596202398196162,-1.8686431445757563,8.840923416660553,-24.574438743411182,-14.772452103871823,12.488204713598451,-11.850518919027671,-20.297441328147443,7.755054688315468,-13.887286537884112,-48.0050322765334,-16.615055480567634,8.42177945241258,-8.361354765700902,8.187672004721327,28.154344089982565,-8.006544385553465,-20.18792133384935,16.192741124355553,7.1594753227250525,-23.548190615676557,-1.8038230523705927,11.116903684309895,-8.960826836904532,15.352199794990812,46.89355475929479,13.429231070486106,-10.446439726351587,9.343084087271697,-6.886482441427139,-31.60029945489147,0.09028619374577573,16.104641834967737,-9.96226025728368,5.064604525668404,31.59670276812562,-0.7799366848137694,-22.337087929981095,-2.8681222021510706,-21.05304979811166,-45.17884671072683,-8.740123178246115,9.846442803852039,-21.65595466107405,-16.69866287327212,2.5258726014400255,-27.527198868910954,-34.404733855672134,4.461039619695857,-3.4989469352171074,-34.154785558351925,-15.961782400510966,-14.27729021314226,-49.65128965122645,-32.76154914412242,5.891587987599923,-9.981828918292262,-15.821274955472148,11.306330252679945,-13.008432824063219,-53.646024238436006,-32.968843549189714,-17.44420416956904,-35.31010675547681,-7.901781579875346,29.33510347876727,2.7414352373129454,-16.763136691621824,3.417198415905551,-13.534887938709586,-35.58145781960344,3.080887514805223,24.404040412038242,-3.6069110851548736,4.330842387886463,25.113907165868692,-3.6713508702548054,-8.16210856879957,33.630040238478344,28.675362368004286,2.1402692069419285,24.831893862924463,29.35464260584196,-4.769364054245122,11.286007770108613,43.04420193930458,11.819078730744762,-11.554601016954413,7.950160035071352,-7.611736204354159,-27.899021310097805,11.839021355168274,31.48642224936613,-0.5413423171042844,5.4270772985867435,28.25588636474171,1.1021905636060936,-7.726183306388759,23.408486252400856,6.164465191492397,-29.780894119605563,-9.782161397081815,3.2372260156627863,-14.865719039053815,12.107960565636091,43.56837892897349,5.739371958960884,-24.423723144115527,-7.893747845648818,-20.458584438118603,-36.796306197674056,0.5763697069171769,15.785078239231765,-12.120949813878203,7.743810013419658,45.06607954530131,21.090132725770808,-1.2245425691352225,8.815999812426162,-20.36488673113688,-49.24251597286634,-9.24521741327574,18.00767208599531,-3.808062074435915,8.92911948489606,32.59738257244132,3.1028238449540204,-8.333594053189167,20.84565199921406,4.149093568828063,-26.166757767846008,3.1604583143437317,22.22952821604327,0.6120184720486463,16.274513590423037,37.84070745453471,0.690016302412225,-16.823489914950013,15.49360844382615,10.113218354174144,-10.530039962052292,17.60799151878085,25.62833493712907,-6.33424629826647,7.68014784453557,35.73935319084375,7.178750506688949,-7.789700319213951,19.05325444628846,6.57288560996464,-17.80494658374899,9.187748904350023,14.395387218696772,-23.559168221702652,-12.186479853518827,21.18274410488831,1.2193731832124968,-9.365751797409887,10.387136421496617,-18.239529327555218,-50.665980524107546,-12.09852807086091,18.166609015216466,1.7829730223759999,12.263370890374809,20.81547743216926,-24.313682314905314,-36.7145736919612,7.586653094253585,11.833257251618505,-5.935083768172547,18.348820786122044,20.414616448276092,-13.268883218670515,5.783367731632399,40.82045085242949,13.794065750557085,-6.155963885309678,12.705917114355682,-6.734196898060819,-32.30929125421807,0.6648073438820532,16.504116366626565,-10.631308147607072,4.5842374305473825,32.44985434013168,3.7016384156960918,-12.312057186092717,11.3851627077126,-4.075917207619112,-27.013386106124802,7.202610814831594,23.06594709257993,-6.223336100228199,5.207098501594183,29.419609397157956,-1.3791028485172383,-16.632905570180935,8.527595383226213,-8.020582939585267,-33.80311926423277,-1.675728666582156,14.266228837383618,-13.714118804209917,-2.5633973763746702,20.178395753068877,-10.087005307303214,-21.908579251877907,7.775228972192819,-7.257072239480429,-38.20747114465871,-15.434869013179132,-6.4150832915903955,-35.164829442876126,-19.218911107371287,10.584672251111998,-14.611979874131514,-25.460793635335563,2.0123882363238206,-15.020832643273309,-43.97188167089683,-15.7790379927253,-0.8686814708373145,-24.326657559808044,-5.993361007816171,21.042854590005987,-8.13866593274411,-19.120461196575818,10.532923393079122,-5.911603605999581,-36.331180909437194,-9.365779973886315,7.661035974543343,-7.806977357664087,22.815259896476114,57.87020285330422,23.491918385966642,-3.4125612386734163,12.312242944500838,-6.602427263999784,-28.357197682337812,10.161717108156829,29.776668754456047,1.9945268020617952,13.658514318486713,40.29555052589891,16.87543389614386,12.029662665086548,44.953152403671524,25.987688077212958,-14.880329497334841,-1.715945621995692,4.52057804522804,-16.873336245928044,12.780041417463826,51.92783618044379,24.743429019499402,3.426122001332007,18.802816875565263,-6.945247481425422,-40.00848475477636,-13.181359488154808,1.8238039138878077,-17.69443068852045,11.383203776132293,51.78048906866887,26.271876100816094,1.3700198716787053,8.19860071103042,-24.034648755435832,-57.74561609798539,-26.13161619666575,-4.605019034665331,-24.890233702968157,-8.41097842995787,16.30607088608911,-14.069039599013816,-26.820856318941598,2.4487223283525754,-10.703742120143188,-37.337455738321125,-10.310458147233273,1.6947752993362606,-24.328644208236295,-8.746519465103276,13.868087384007453,-19.109625498107835,-27.55609300117343,13.438029876745654,10.520426209254024,-16.179850615351572,-0.2175477293707555,-1.6355735248016665,-31.369355582740802,-4.546635139605435,36.028357728515786,12.34379059928424,-2.016034933738646,25.45036856990083,12.74838154867632,-12.34258824406475,17.324803856112293,31.092663879971653,4.584281339365344,22.009880411446222,49.895461362373254,15.541882485892032,-8.315120260023425,10.366127726798391,-8.277108582569525,-34.86655746530142,-2.2301275779816123,17.947337261127245,-3.911581989522036,11.03391215923906,33.78527896629278,0.6850506097237528,-14.926543509327361,12.951660480981985,-0.11157733135044445,-26.59494790226114,0.9260787389652663,13.597457779655283,-12.8723519017899,3.580034556949144,29.74510675465695,-4.213015386326003,-25.012255910110568,-3.2125561893923997,-20.21418807270188,-46.93589567632987,-18.34437517288698,-5.6956583979601705,-30.72967533450595,-8.55461699605123,26.92161613335858,2.760564768956719,-13.344464198615048,4.374245825789831,-21.189581488568546,-52.96036340513427,-22.087678273169466,-1.9411651054161827,-19.637329485363388,5.0473690480235,37.14567197122712,7.929083063613357,-6.929830264690753,21.565193679011415,9.054569881728048,-17.108143816269724,9.88128014222942,21.82763837698561,-2.460771397355577,19.62238134011044,50.61738255100276,15.689802640436447,-11.648018548359389,5.057719936870377,-8.744049868079088,-23.854504876358725,18.210607004534328,37.19529151719492,6.591514554346848,15.51780000256879,40.70843429987922,16.76764241688071,10.163704284916445,39.28413924995338,18.24792862437741,-20.147369645847746,-3.269426699779906,5.021136753235361,-15.211286224068083,13.624912148434424,50.09453286949168,23.67036375365966,7.262631622520657,25.38275743016311,-1.5970918840537802,-36.536914703216496,-11.17439465523687,2.2718814629304567,-20.84032266265146,-1.814159920474932,23.696184902642205,-8.247773891075292,-18.561942366563827,17.14608352733682,5.512280571695481,-28.90597990161406,-15.022574311875113,-16.8551409190195,-50.86083540131877,-31.0299708951632,4.545364890973607,-17.60058824291097,-26.58949065919195,-0.7284583593912739,-25.28141064610783,-63.195885674038635,-37.98134659040768,-16.63298509414843,-28.18310845699328,-1.8965540667090277,22.288661101981354,-17.223647890572543,-34.971774267914405,-0.9090743183448495,-5.627776605470438,-28.670920524673097,-7.558722815044456,-8.34619631850143,-43.10841358485249,-21.16571485363697,22.178940157276486,9.569226994956024,5.31294303370225,32.38491050078462,9.890306805743073,-27.268137185452254,-7.80616091937709,-0.02819850432444393,-26.1969090740604,-1.104412380708764,42.39186059136321,27.2781224382874,13.621418646363166,24.34168384850362,-12.010933130879627,-48.559440244000086,-11.633416219633608,20.12941085530508,7.894224179675429,25.137158806320972,45.02037178310753,13.296958579826,7.867962679270599,46.1398038478012,33.161445061474765,-4.673611550486598,5.391054643175961,4.682247852748244,-20.05198874677793,12.507032760226181,58.262341844055626,38.29734056523778,19.157387216421224,28.510231476886872,-4.5650685241507,-37.57268461373192,-3.7590227055180137,17.290660392778086,-5.246098168852203,10.153514275635734,35.94370851717347,9.991711569610255,1.9585902532863275,27.894125050816577,2.4231739999404365,-35.279375313219575,-9.855977221799971,8.709374592906016,-10.077216337400726,7.014585555559524,25.925887496841817,-12.912399175802168,-30.47275683096243,-3.1250476581429147,-17.833365055436772,-43.94942613952281,-13.435138284696347,3.591161103731815,-16.214152185194028,5.7011224371349485,33.063529430469664,1.748675839925589,-12.32275762180885,15.281727287664001,1.5039353792429555,-23.60991410576646,3.854600070428152,12.730024044591094,-17.6188895404297,-1.0701828067335875,32.761876191748044,14.95033484256497,10.514135526403392,37.25468883520723,12.300782777148699,-25.847629958234652,-2.8927806982343967,11.118816382211648,-12.367989904762334,4.6654654605327455,30.457902244318184,0.0341969873341057,-14.609461212172581,9.650870710363714,-11.325198364759679,-44.48908689340241,-17.05023832577751,3.757038520662575,-9.571574813599023,17.70672238864553,48.46327671137476,15.318210254628273,-6.988236886753992,10.382339094521768,-10.695329849978156,-36.99923111233405,-4.3270250489015964,13.413499167057063,-9.105353657470443,6.888949530511338,28.935006872297798,-3.37289877287607,-14.217986747429691,17.371600267754836,2.0376347171127023,-33.491558453114294,-17.77923166867277,-9.48360335015054,-25.380568079444547,10.285346629082419,49.65572285994222,14.044529763644004,-19.492484339450737,-7.5900921215876505,-19.78328777777989,-29.023175790605897,16.650145325143498,33.43984656418153,-3.181314491492195,0.9985648977895565,25.627970268193387,3.6156320930318415,-2.0563958736924888,26.19675180117234,7.264418047819323,-20.664545156208547,12.161139879148926,29.77038273152926,0.8847155714476038,7.086887727788762,24.636927133392525,-5.8966547139762735,-14.538946728042735,15.930406906451964,-0.8525456184051841,-31.69471012285981,-6.654715270015643,4.163516840700837,-24.862504304244972,-13.764928584395877,6.9273323889710285,-24.292775127402987,-34.368633786054076,-4.593516962652325,-21.72391108622672,-53.87059543504062,-32.62913325989793,-24.464676856931465,-48.17797563842593,-24.586186772138404,7.397099314418604,-20.68739602637629,-35.78549657983532,-11.706548542091966,-27.10216035759597,-49.55464099107906,-17.699375769186283,-5.793605804006132,-33.771332484287186,-17.124861069457296,10.888357398400522,-14.251868985266366,-18.719142149931262,18.45099405006325,11.931354035173072,-7.539113064091734,23.547907192756956,32.3809523097873,-0.5109500469505619,12.757414803679927,42.700922443634234,22.24169581670112,20.24586136797074,55.407913512904855,40.46226826596224,7.524530910772366,27.386521907000628,33.762832559532,7.346917087606448,29.34588659830393,61.52524270804194,32.98896352767457,14.590226914129307,32.53038570821317,10.853260297482722,-14.459663077673842,18.841732366158837,34.40169250519609,9.471327751675382,27.20146922416024,54.12333048378149,22.993166272576254,4.174373420349308,21.02522977792406,-5.106012810844533,-38.12533382320956,-12.325271302282648,-2.190787174739174,-31.002618665829328,-14.6733807604737,13.762161123256554,-14.086758908906157,-28.13752574039011,-6.069739092481682,-27.971873264601236,-58.304140461163534,-31.309712809384845,-18.74609402853531,-42.43592539253474,-22.01700223032938,8.001334994741836,-17.77331674371993,-28.36633758002862,-1.9402961234702296,-18.483723368937063,-43.60646773704148,-13.05149320568957,-0.2191510720758082,-27.486333002819016,-11.418181237201907,17.01964291294423,-6.2604765706113525,-10.220447552919538,23.571862429006806,9.23524613435901,-20.039543395830844,4.938989118361423,16.477909991524644,-7.0485502377107245,12.912353806166113,42.02303154973637,17.286246077551173,10.116997242822006,39.103376963524504,20.760367992944353,-11.968387110819044,7.011242226521206,12.01260365739034,-12.199340667511791,14.005975377525012,50.05264325766754,26.26874293008628,12.902438760737665,33.876522290375,13.07080911591901,-12.958585851089747,18.535689552774752,30.665378877136135,-1.0169434702890214,8.40866373136768,30.299354310157625,1.2019522413725063,-7.5655804586692375,23.032267132566588,6.771667517934199,-26.016425582115073,-10.232612584150559,-13.950474635777457,-51.878920328773624,-36.31634699730777,-1.7730741848896443,-21.205472781724282,-30.106362390424447,-7.014759478317944,-27.210698250384358,-51.555658675190884,-15.7957362819804,3.6821576144779966,-19.684118664552997,-6.895555088072666,12.536319131084847,-18.730330996095574,-26.322743654507963,8.37162016506829,0.010192087319140342,-21.890382824878465,4.88017151776069,12.263003409328292,-15.508737799567587,2.305923511527938,28.087405689198643,-4.332686003442294,-22.005923371446762,0.4848714844082114,-13.374771060763008,-29.163258233658826,12.684344880734677,32.82744254883363,6.126864656337618,16.45057639301543,36.04569550602159,5.587816626611506,-3.4884330203753593,24.517480468083786,5.226745182769502,-25.132722494657834,0.23273078257811974,7.998957175391125,-24.01966298661626,-12.126198558880002,12.479373683514535,-13.480418133130197,-20.016021928314604,9.248996124539692,-7.916881664002215,-33.34288509938747,0.04067467055126883,18.07151471327937,-5.054601136370346,10.615538776522037,35.214965844389255,6.346143538679268,-7.233733538148231,13.810673397782477,-9.606779103920397,-40.18997023338852,-11.715547434347005,2.765523436441117,-22.160251866282515,-8.918140675821023,12.821940293644417,-13.919915998923024,-19.004265712723033,11.61653669207422,-6.537704827001255,-41.14359155714363,-26.07925749729358,-21.746725358770263,-38.165275747859454,1.7497480449853633,50.07030563666806,31.768167902981304,15.686129509239233,27.875251229351488,-1.8250790095315832,-32.13559189747193,-2.7472684142579915,7.911143787297893,-19.624595603707824,1.275342223024385,36.35270592313908,14.005510195748029,-0.09119687436232915,15.78310773939685,-12.270024689898273,-40.974703624899966,-5.124857763199206,15.19020342284419,-7.796609692509016,5.900158975620036,27.24847651910161,0.0537133344780969,-2.6462200262119815,32.04823847150814,15.599206396573342,-18.183579798062087,-0.8217754895928397,3.5334168667937047,-18.61916223935101,9.832118648797655,42.407619722979334,10.34508110179588,-9.017151229645313,11.279046485105967,-5.940690968533428,-26.945380212879304,4.750567997167607,12.563489067804085,-17.19172009661829,4.43338152366638,41.582996948929875,22.357769982475748,11.160009267796184,28.08071569969382,-0.4206634553615469,-32.647259116667925,-2.450151264521139,16.416681358738277,-1.4738191958540448,20.41347785956012,47.79391867090227,17.97164856722702,2.473548641490142,23.88398819089273,6.041458349876661,-16.287792768872702,15.128139003595303,25.079076982172328,-5.38993310539214,5.576982393271216,25.366665072187164,-4.829059328955772,-11.004265096758925,22.67922594127462,10.911706738606652,-12.97535832997223,12.616307804172955,16.71636782911951,-14.66856610089136,0.45703040960725083,23.408167438046938,-8.593078945504521,-19.441057198882604,11.792359543791827,2.080653753748484,-19.47816054494935,3.6812177424018024,0.8556555414859703,-37.13093748101855,-21.587762296807146,11.13956328628571,-8.703754749249383,-15.126822977656552,10.30443665906935,-7.785362452353976,-29.104471156569605,6.97523987521603,20.750114362826178,-10.264534578638024,-1.2575608096414133,18.652753751712698,-10.881327829601682,-20.321424783586338,5.749460990794004,-12.273695789526457,-34.12239398138977,4.529945910408294,25.391371635477576,1.2556904784001972,11.44112788742019,28.217943743170153,-2.4469908663247573,-8.070947713510684,21.414734716173925,-1.4055114132225963,-35.816100395591256,-9.32381524361347,8.179694831276763,-7.586403380111028,14.967489941225065,34.6557164799852,-5.991252134782794,-22.801903908331834,6.098314569161694,-9.00229904944747,-36.66705208618197,-7.323108249904333,11.810955457865727,0.6940029800163909,34.083497523446674,65.17432113233531,25.028634470630866,-4.483857953584872,8.763761765410623,-13.789981108410382,-41.249477918129664,-14.05807639713476,-3.9132842498864617,-26.784718495802224,-2.5297018409372463,28.668950766691424,0.9282508945411045,-13.935759946077722,2.5259676824442323,-27.279496639227244,-57.59323242615887,-17.53361392806406,18.015690014997173,20.43772976270843,54.08871329525937,69.80530285889589,15.256787717125862,-12.302128090130504,14.660323401807586,5.412083949935846,-18.47805071237484,-2.512771083219187,-12.286632367495338,-49.84102362620401,-27.974001087222128,9.828251874539141,-9.56261512085082,-21.129545107340796,-6.517411178129285,-37.42627935310812,-68.94364610512437,-35.551826374792554,-10.831511597675307,-19.604904624371926,9.477957405977715,37.13561438611531,7.150905120911638,1.0810902341030317,37.425435925931694,26.988951771158007,-1.7145828481756187,11.781741608834865,2.033284181515837,-34.99365372167496,-11.5822127644656,28.45889628399053,11.450357773598142,5.963610116453613,29.832083372434195,2.933420006886166,-33.82649174873646,-13.495287544904528,-8.028005046037935,-32.20758214401797,-3.4641102614027766,33.68741759681296,11.976095349592935,9.86797952331773,45.98263543991882,31.80848379488718,-2.083248485059844,7.533713856895316,-1.1345541856656167,-30.41461141813945,2.1005809170266687,41.44377067903556,6.439906110231513,-28.187764893774176,-26.49398143721208,-54.27639363908533,-73.17855687517726,-28.962806845461003,0.8954336187573637,75.91498885182929,82.89518002706541,74.67102042259785,58.59437135307648,66.70296923211573,73.70200713965124,59.46063213936562,57.652118295972144,68.99396777053113,66.79754789806371,74.18695422151207,102.85488844997124,111.2632016691404,96.81928439488584,90.78948440197551,77.72160955595044,48.94850581592213,41.752407079859516,53.435132458433436,50.12475212849597,48.9217157074234,64.37729715612237,64.44845587748834,52.46105138564085,58.47242645462275,62.146440149691344,49.58743127861305,52.948683924196274,65.54776145814226,54.804851532567675,43.409540297067196,49.289776744594924,40.58334661689657,21.734908528307542,24.577902808621133,27.359467491271122,13.512919429725448,16.46196376202013,32.59802616988168,28.98639908018594,26.51888635771843,42.577030326557484,42.4505616835907,26.57994774654732,28.828295552201183,32.31113014351064,20.453191320229337,24.661190307098774,40.0108420961068,31.236486233589645,19.0573794174187,25.214408773375066,19.307385160954503,3.257274005424404,10.654721194198702,21.210385009128252,13.369362017129305,17.477180608391382,31.41765299603604,23.08059640308955,14.825132223519002,26.627044224330664,24.680115803139742,9.96680403644973,16.160868060342562,22.745390513835982,8.148911850080463,2.1092132419673666,5.676305087621189,-5.026074790358635,-3.6203754225376135,24.798171684453933,35.930282634580486,20.511635588348966,10.858667015952044,-2.402133180954474,-26.40722004143145,-26.065854540126985,-8.384295956609522,-11.824759608769149,-19.430097008192735,-12.93021232105135,-20.631521240146384,-36.07719589246744,-26.618805381248144,-14.244547082325619,-20.360604717781307,-17.620003067600617,-8.447324078562323,-19.76672002349527,-26.787386700802042,-10.378432873356441,-5.251542564899577,-13.27904907072098,-4.327465293722094,0.9947322496543058,-15.691571824924239,-21.312450917536278,-15.507067300231046,-27.795306730101238,-34.28772554601484,-13.233922276474482,0.3866564820627063,-0.8861772575342988,6.228825023608805,-2.1251753642314117,-38.84326706261438,-57.37699117160048,-47.34013884944558,-41.09711738218006,-29.003085937118747,-4.73551707510123,-6.480498651806371,-28.28873956050226,-27.38078773626519,-18.082121674551633,-22.091557262166774,-14.449041121171835,-2.6540893103098258,-17.738861746038854,-30.963624305645993,-16.704362601835804,-7.59588144035127,-8.935481366521131,3.042810080238832,6.390470729262411,-12.11271139689446,-16.529270810377497,-8.614130472106652,-19.63680020734888,-26.55419523906152,-8.617543654793238,1.345760938103515,-1.0884271763375168,8.258626184227786,8.763163949985595,-10.711902186753122,-12.07539971216131,2.1317202869500758,-5.10592918947083,-15.375870180201954,-5.304170882197411,-1.9273310048544743,-6.913312616302197,3.7597249263861707,7.082145148475635,-10.8667143096486,-9.818501823684556,11.732073406291395,13.081667769003023,3.2889727009128245,0.8542130233786411,-16.9737732070828,-39.57276181023828,-31.960452093002235,-19.3742980051869,-29.102199178702943,-31.391666854192614,-20.9960231847328,-24.283779097147644,-23.17574129723043,-3.4162412864575096,0.007553524978316739,-11.802757963565824,-2.441736550830175,10.997491695643024,5.264343919319051,6.768292460495342,15.558472046186367,5.468433434085351,-0.19762968244587764,17.01044638655172,23.464409020453587,17.232556709646293,29.239782467652482,42.38101288342844,35.307838404244336,32.810639353345486,35.83719967361718,20.26135348658268,8.30677576450579,19.5418151648848,21.652120132275343,8.279313198196993,5.03780187617307,-5.479047385912036,-37.285360452052466,-53.29262879403405,-46.41986174972993,-45.07451848400743,-36.012903839356945,-9.260708423790241,-1.4960528168850207,-12.709731336004364,-6.771363484633721,1.8898683536328833,-7.49952908630325,-7.499315115501554,2.436566207707047,-6.365222075155913,-12.195424619586879,4.603151945010658,6.213685427223924,-13.571653889220656,-18.514931020482194,-18.55436663429413,-28.50231171047234,-18.679301934898746,2.5793660466108363,-3.9638702069556597,-16.99505866788834,-9.913296153652478,-10.96387940608265,-20.547408435115493,-8.672123916413998,1.920535564786023,-9.590587494925797,-9.434485586287465,3.3648851391078525,-3.1994012722725476,-8.630479456346984,6.438701408471102,7.392315357274121,-7.661737783190902,-6.512224648153795,-7.27048470102803,-27.053298593655693,-32.84244299492953,-25.50057950356257,-36.875935804877,-47.425808485451405,-38.035772593689,-38.30264190511205,-46.48503917197683,-33.08298152336972,-20.496671027642,-29.360145704274863,-26.576086785584376,-8.495333925876748,-3.7533160187699792,6.311405246649698,34.80175866816659,43.494869128954896,32.09840596597586,36.075007926070626,40.686502578624456,30.017902924967903,34.30990059302807,49.700555566756854,42.97361771496922,32.301323242092806,36.868534891188716,30.32384737310649,17.578961896131744,27.21473377250488,33.80278631130651,14.460468781866682,2.128321584625925,5.943151058890705,3.4613200011201664,10.348663255510742,33.52218887899185,34.98966802118102,17.93468612487397,20.83356153209889,28.1242777275249,16.177300896876574,9.602911387879086,9.328681395173948,-7.256606500106669,-12.901990165842822,11.625190104715887,26.90321750207506,23.288609676552788,29.13104900615978,30.40454945441137,14.193763688523738,14.140488433938666,28.18916602415409,21.183506520369733,12.91270350289993,26.921830632599036,31.032554830550367,18.31511910459942,15.798636888691943,6.942027454566724,-19.710250168073195,-24.195181463496375,-4.805561579116094,-1.628870295361604,-4.8201446536466275,4.764094359368328,0.040649095875009866,-17.667791590739085,-16.88366340578679,-16.266385102176223,-35.0661127580357,-40.00502332313734,-26.19951803531821,-23.868677741965897,-18.991708518230208,2.9344170818979105,7.653011146249558,-7.800813650319815,-8.996958333913373,-6.697645368598494,-17.30226732694277,-12.104907064337624,6.269941248356556,0.5800439084210849,-14.547624784875314,-12.946437822975241,-16.503152520423843,-26.283062864064323,-15.882077532554023,-7.938865373315884,-27.37670716274074,-43.443284169975826,-46.079196351105395,-58.85279884480023,-64.42880073514158,-46.3639600943237,-39.019042480707455,-49.54611917518525,-47.38738071736894,-43.48736089873563,-52.72339226266709,-44.647928603622624,-21.40247714758916,-21.009555970416734,-28.855949313280675,-18.905856372286493,-12.193774982769678,-6.082331650514428,26.605344404057927,59.66398701371701,66.66103067409159,77.04062661589532,94.10740715939885,87.64684988318895,75.65377850360831,77.73903005169551,64.5435996456444,40.03383198931165,39.36781271164102,42.526017678490874,27.420965647612192,25.212865025400486,36.15668809756775,27.57693152877458,19.721643550597665,34.18130202736117,37.21909206004166,26.38596985764667,36.17968390937218,47.69362209668363,37.15256317294181,35.763451388312546,45.436627679910046,32.238261741332536,16.389109390926837,25.755828882609233,30.36522065508801,20.446065364947387,22.02595290381476,17.255545869962226,-10.96165806682686,-23.07068668938107,-9.858440794114138,-7.93797030852714,-11.102474650860685,-3.070717021016265,-11.172233088997476,-32.80760149935198,-30.664287826937738,-18.880715232216307,-22.374415374426484,-15.80002236661199,3.3978053951681364,3.1403365396259555,-2.5089972177584436,8.554670571732899,8.224690856230474,-9.699719898051468,-15.452412782200682,-21.922691663731094,-47.31419099206427,-59.48330740564603,-51.807862915213164,-56.57996217626738,-64.0899009214375,-57.86423310940052,-65.51118110747974,-84.6926148285395,-80.78427489748591,-71.62184622582073,-82.80390478126832,-88.56139394973789,-84.88290681729863,-93.88050956003201,-88.3200906618509,-46.43050708850004,-8.005511906950098,9.28638625269515,25.46697920179958,26.414232754193687,6.314186685667157,8.445436670455043,36.11412990227527,46.525646078747556,43.82288159462427,47.01471711962819,35.71194440513525,17.838150408968417,28.394641886555405,46.377975160984896,42.40748761070489,40.9143176452342,44.90469652946361,25.767010706154785,4.298706732642579,6.463071604944538,5.655477096534812,-1.8757419518043434,10.121030974942585,19.35870619298404,2.8402049114748458,-7.17747860713045,-3.345362775729244,-12.828452925038768,-17.27025348995724,1.8032164744150911,10.578999848317231,4.529448618589495,13.118409495662997,16.94577953804116,-2.8009241400972726,-9.60896628236283,4.120095141144272,7.779454833080595,13.478817489945078,33.24680656071452,31.353638780991275,7.208892415313002,0.08528381802896279,1.5488467417321954,-6.137985401528201,2.777339754566476,21.688967229896566,11.01277682052186,-10.90000584532569,-11.744707916394827,-11.65037227258641,-13.042033150989091,6.7648623775497905,19.184569608655643,-0.7628294078429292,-13.730520977306192,-3.5336419241825334,1.4049136503605029,8.591614325903237,28.24842035740232,25.691616566773284,1.8539007009186763,-0.49009197897218293,9.083456585116492,4.149157680392351,6.828604577854241,18.79132979889307,10.96160942262695,1.177368914727296,9.770925137967037,7.194000802099653,-7.26473525875788,-0.43545220378518135,10.960136960293337,1.6465313728466429,-4.146065937646883,-1.3346745485826648,-12.074491608056785,-15.944293739101287,2.5686982797519944,7.197044721294935,-4.784187377901984,3.384979531730668,16.635056841560115,8.290800854159645,3.3722148627670805,5.850795095070033,-11.207188484979163,-25.39256951069963,-12.457132101547774,-6.783720210540833,-17.351146260751143,-11.714760658338168,-4.04837282436359,-17.753745192737924,-23.661957538514535,-14.96929625463574,-21.22550222538586,-26.116956434297137,-7.109863125126385,5.05585153661697,3.2122466531385125,16.30687169772602,26.03416740095619,10.184929047745484,3.4013174415027017,16.221573365627478,18.87273956834093,22.589090426205075,40.536037190796776,37.95827295283221,14.81040230861069,11.36343603196467,16.711785057665583,5.655290034967754,0.23391655702592418,1.6868104577062575,-17.39852975716038,-35.43980672625356,-26.401819073928294,-17.908804461174768,-17.711611160648452,-1.2345396862349016,13.502889650783539,5.2166531200458195,3.081494533036636,14.647222246522295,13.378866876198458,12.997002977142598,29.884052446885406,33.68636873725904,20.49469888078668,19.592630725923986,16.07265945010423,-8.195250294260525,-22.068111656869668,-20.463412546176002,-33.48737415587794,-44.88998761446507,-32.39536914784424,-26.84273127095732,-36.65973746593343,-32.9301049565332,-29.479138538399617,-43.03159529324336,-38.30725899039071,-11.824025418736424,-3.4231050935765786,-3.517753396154539,10.781115596405698,14.268397337619602,5.565877112850417,15.10426222748316,24.849957956585587,13.128398359061553,10.054505284222413,18.324600256254218,6.438891198563621,-7.004984738970232,2.901920304518022,7.9167856675756365,-0.0026267947137785796,2.414898828381237,-2.8368134673739247,-29.08183906464643,-36.49104366489521,-17.952495923605923,-10.97428159274664,-10.696720264174958,-0.8780409386047721,-5.809042604085593,-20.487288998381732,-9.275100060881059,7.9094248304589225,0.4528750574899245,-5.16438050601475,2.1249852563778093,-0.748702521165578,2.899142271685916,27.607650064068682,33.94540904693227,14.216134674700793,7.128853571007677,6.746756906021258,-7.192634811694575,-9.387811646456024,1.53278202957806,-6.387752788143587,-15.55558714889216,-0.26814699919142004,13.165131014936996,21.283975386094227,54.055843705485266,93.39223870622354,113.56731899511492,140.29393247757585,176.28710648028695,182.9140435076768,160.3415474710894,124.51364201911971,61.53373588156586,-6.625074561199948,-28.841318449454015,-21.543728300120033,-26.934812660372224,-31.321085743956488,-25.923625283574605,-32.05339851120804,-35.479275311541585,-24.93990312569698,-37.92470636060162,-74.99673217665479,-89.45447682248292,-85.22925658553731,-90.63506949807076,-89.90631115270406,-82.0246518510856,-95.3786219213764,-111.44018782772284,-102.49973032976693,-95.85911136355776,-102.1960166292895,-93.36999997759084,-83.03042124765591,-94.12802948313156,-95.16262849438081,-74.68232698574285,-64.48292037372819,-55.960198214706274,-29.847951611812285,-14.882355120249054,-16.88226776622643,-5.999002377634067,0.4485879152059711,-24.741094094078413,-50.97216829899683,-60.94535647353002,-80.06129990730481,-99.3377975198818,-99.8411862098596,-110.74856177115942,-138.93694480910537,-147.94506688063487,-145.5229266860928,-159.73086057428145,-166.3202641256606,-150.62793747071578,-141.1276622924645,-132.28407057413227,-103.68587418370208,-85.31878913318486,-90.32440754933313,-82.53624851410115,-64.42376763637242,-62.16016747977457,-51.21001363782487,-17.971205079934485,4.531757353785549,21.29265925560117,58.31738873813158,88.4395861315715,96.11807359781216,112.86322063783537,132.46810671211745,130.32736053602005,134.7495327855539,160.50167004284538,176.7079402804307,191.81360682165803,232.35440448120852,270.45367050286,288.6216509799161,311.4058699145212,326.5989289692079,312.1501706042486,299.6250016011451,301.36600334415846,286.98351973070277,267.56033621842823,266.9291156550604,257.86550648234174,229.84453533010858,211.81428274759224,194.91666372074403,159.2337638994773,132.64995260399928,122.81925002259761,97.5711901492866,71.24817789900656,76.68762076825827,89.08087463888188,88.34966706051651,94.82954591854985,97.85739009836973,79.37425392636725,72.27005119613993,88.43367359473703,90.37232606341769,77.43222497890099,73.12544170511204,59.0785926776382,29.800392499336446,18.047146447962252,15.671387301026186,-4.7401510821048864,-20.3447322311102,-18.97709734373628,-29.75944026129133,-45.679961906014334,-43.85526354319557,-51.26777105246328,-78.96123625725102,-89.27825150362575,-82.72831460405979,-87.1226257583257,-86.69949126812963,-75.42657698499714,-83.92359078748775,-100.20033263897847,-92.06048713498504,-84.12030554342591,-99.18746739209813,-113.62661526012793,-129.61029456489553,-163.88566332051312,-181.32460879046866,-160.651188713235,-139.39845517768123,-126.82004074759456,-102.93714101690341,-92.62751486341537,-112.40069583978637,-127.19759658147467,-132.43970096601603,-149.05695157027026,-149.22441035793958,-118.45419022405372,-102.2380412641692,-111.30326512918467,-114.15258018726247,-118.33297475230671,-130.55677251606988,-123.15425105504698,-112.14632449935547,-135.45956166637652,-165.55559017604878,-170.34913598855917,-171.50604431112959,-170.98835824691372,-150.60157051601223,-135.90940440582938,-140.2899748887597,-128.15350106472653,-100.88233945240401,-92.83591562241594,-89.49663947153684,-73.63829812169536,-70.76430279702898,-74.28235293815584,-54.22884380714437,-34.75613800589939,-37.03308622418444,-31.481223665832744,-19.28089006683186,-27.393037626512157,-33.129403362508526,-20.10991193283903,-19.28351988334808,-25.486524754061918,-8.536883074894636,6.711825517929899,-1.0766605588664628,-4.076210601439874,-5.120420956925576,-25.914989876741224,-35.06125530478903,-14.10315402504278,0.4855577006139764,5.166752575214176,23.099503346504953,30.467617596089337,13.879069833577223,8.479540737711826,15.18026226817196,11.165848302025362,21.248573090073098,57.118219371097446,79.79447714913937,85.5937678941475,99.75699156021028,105.26219807335707,95.28353165364305,102.74544505963887,118.68687917258974,111.19368356628814,102.74774826817327,110.77787361657988,106.91367807494363,95.83731758385456,102.63232367049268,103.348310912858,85.68295123291573,84.31883146101514,97.00812274473361,94.75053872582038,95.33963970350882,110.96453864514639,110.50389931901917,93.42915984805913,79.45029858343933,43.68897872234333,-23.374308123244052,-77.83953146798935,-105.22028938836432,-121.59950283596524,-112.46870355129697,-80.0786912791653,-64.38096166382066,-62.50928436399634,-45.81138341911347,-34.67784416952087,-45.18938546761167,-47.71946859544424,-41.94455269202722,-50.38818651738966,-50.13358676177269,-27.87801248615679,-17.269952527046843,-17.144678515074204,1.8878142499679713,21.33259651875862,24.93181604517313,41.266664347939574,64.33531420599563,60.02339232428381,47.92507087501752,50.15902430223777,41.50261978692493,23.329325506457067,17.96203576537853,0.7776671881205912,-38.3922578980719,-53.982392925309234,-37.1229781093108,-19.957671765630096,6.158189248844273,47.76774482106281,67.15548569337251,64.47584351350656,74.55532110554648,83.70101840705875,77.28749681387096,88.28829689800045,116.87718177408334,129.65112767965383,141.45028508739358,168.67343821121682,178.44145401087758,167.6568908096544,168.45043349549957,169.7227534980077,157.11534236658377,156.69198781734445,159.78289098437943,130.65493731744405,92.49075751808941,75.28018533504996,54.40505052882183,25.188257734193698,11.227415058543112,-7.389367834832705,-45.00955176066022,-64.92152398097123,-65.89916634815152,-84.78114107316911,-106.89621873048968,-109.28987496409889,-116.85514582819461,-127.42691398780599,-112.14408460381483,-95.22737593163055,-100.37366997541484,-97.2437858700001,-83.73176828271833,-89.69624888855068,-96.211577131323,-83.69377643049123,-81.46363902465582,-86.91320755126688,-68.43907684116371,-49.465550230477504,-55.232280865190596,-57.71280880970415,-53.877317979324545,-67.04691957632491,-73.40893659391503,-56.234963053158296,-50.462148229239446,-56.67871602973113,-41.55764230262944,-21.80351053011976,-18.46966085481384,-6.913896550994415,8.898807063180726,1.5052454031609175,-3.0067066412926247,17.061253220938,28.85413035328798,30.01465935190876,48.878933637826854,64.58042771364694,57.77869579441091,58.44278707533166,67.95524033341351,62.045021219584875,63.90217556082479,88.85925397731214,99.9458954255957,91.86677240968214,92.5964541402811,88.31995596148442,68.07771746271254,60.92931695631668,60.06836090994359,33.78167490656386,2.148555142344657,-13.127724410564344,-32.15071556644083,-46.118676941161986,-28.80645898203954,-8.782786363722145,-10.55675571869082,-7.323848220335847,0.7889958100214347,-8.607296959344126,-8.664421063516064,18.3913591966526,37.146751763961305,42.91029275405728,59.62855455631356,66.00419829983075,49.322110553907535,45.500468912845655,54.08961701815137,43.302687046963484,30.744179742345132,35.45182573818398,32.37164430205016,24.84745358038368,37.43478727646184,44.177273293405726,25.346528609833918,14.216481645097069,15.615429296081082,4.491809931641827,-0.24761872844606325,13.931001593633079,10.465999807179031,-12.170803851039196,-20.10188263265351,-25.30693631113278,-41.68346072130493,-41.04946489852085,-30.79362789766617,-45.800073762635634,-64.45634248107696,-61.77981499210965,-64.27984213190638,-73.16459020979633,-62.51346582435194,-54.086934235993304,-68.41941266956776,-77.06082228497957,-78.12931816515979,-95.88280571219883,-106.0477923537989,-88.37530766767901,-78.6892213882376,-86.12006418116337,-83.03574070892428,-83.74268087484366,-102.28942402262214,-105.46601584778007,-93.50888608147206,-100.51627381390978,-110.22016770116684,-103.3075920955382,-109.9980663631528,-129.25137725438606,-124.36569320888154,-108.66106354664213,-105.84141717861182,-95.81409332187117,-84.88888123131186,-103.00891759315085,-122.74201929706233,-114.0906511112573,-104.22970261876554,-97.91395627666009,-70.58544026684613,-44.95887290239419,-40.99679159363196,-27.699473583397726,-5.753087878976093,-6.206983952310901,-7.681539765908506,10.914167942695984,17.480973112215835,9.915085708797468,19.87228477636456,31.46685066484347,26.289894385772087,31.495091319462652,43.14025838358191,29.320505949066273,11.563239751695733,14.54960829336694,11.804404897036488,1.8051725992288592,10.634026708390556,17.174278284885144,4.223334604259984,4.902897077499242,20.323499905766496,20.66917947766619,23.081961887136828,41.675451136082,44.73108537747081,36.02666596646789,49.06303123776308,64.45546774549149,59.905872142026155,61.400960960011446,69.12597615244357,60.00002075552207,56.625397445073645,70.14558181387713,62.00874380285401,33.878217719150015,24.63148341692431,26.829362275182397,27.96903724587127,49.82870213715579,80.02736067833328,88.57154337099979,99.01639740668097,128.99978856728555,146.7354432379949,148.91542868999875,159.77875922551263,164.78860643880796,155.77159828009474,162.639453823642,179.59583766416782,175.86909456705217,168.39015942853908,173.40940637207842,166.98931290165723,156.10039718817026,167.2593699654334,174.42031019422663,154.44976308879882,133.400723806001,112.2866490873827,72.80334914879005,44.91676932819749,46.12827532102383,39.74030620258951,21.283305154045618,16.993075377596263,7.619273874694596,-22.00493444716568,-39.16677637651864,-41.46342202317593,-54.980338581505556,-58.88878066598004,-37.24920479103455,-27.443571860662537,-36.33728376441009,-34.40732300658738,-34.96131302583705,-50.11432774064954,-47.48698547621582,-30.4245822003755,-32.676126372590744,-36.87862365489258,-25.000369346381724,-26.28981953075837,-37.936187811597236,-27.84841764131619,-15.638927600417574,-22.448070886712223,-21.15918290267032,-16.156329507935776,-39.575492562676416,-67.20762559070126,-70.15965932771542,-71.63131746118572,-72.71966577260133,-51.7811444289153,-39.234535271754595,-60.819637567349226,-82.00408565097545,-91.40702309738442,-111.3003973972694,-123.09316484813776,-113.38765159232446,-116.86378555588475,-133.2447470125804,-129.19052147884088,-123.71311790813466,-139.27506563413525,-145.93942448963858,-141.55653625135386,-155.71347202630778,-168.47092830534714,-160.18241319884174,-161.8395253984217,-172.77267555339395,-161.74974826079855,-150.4736156197162,-161.66867707710702,-164.63634437221765,-156.52025696884093,-165.8932122343003,-173.9400311080465,-163.3036451641578,-162.62221857911604,-165.57803002802416,-140.32075013179517,-112.0064704152976,-105.71624828137253,-93.60219782886719,-71.62874033248949,-59.192626122311005,-32.4590191101246,18.263766434139253,50.913524233085326,61.76379104055172,82.1982337733995,95.0686526523472,82.85605003832511,74.76888899625632,70.81152322846411,48.64282479008443,36.162634766494364,49.84893712338525,49.718862491080756,30.277431467213404,23.105617472710012,15.307609610105324,-5.38187691418336,-8.007055765666296,2.2241384419241363,-7.850662419534527,-17.918808504243927,-9.773135497510564,-17.035206734345838,-40.48381634042716,-46.604303675270025,-40.38059226578068,-13.039923849945112,78.27862714040864,208.97517243983415,308.7088059712103,363.8657476753723,385.2535438639682,372.60485389056595,363.9918275005902,393.36052561806525,416.9356510839167,395.2809038952701,359.4162796070575,325.35128888164417,278.3378884908635,243.63046622634076,239.32065649915722,233.26854163940723,225.91829809073175,243.13796957639667,250.57910047636292,216.83470073995835,176.84052839335024,142.94901109478755,92.51509431538341,47.99243732419386,27.03898731799011,-6.357176713720456,-52.35917478931052,-74.64329547340108,-90.9559929301188,-119.71409182610303,-121.99562275929378,-94.96996450270211,-79.42973145088388,-62.74739465449118,-26.589613602299607,-8.849620857260767,-13.120872701719454,-0.725643847272921,10.956298092035423,-2.5425433893027103,-3.833263111077954,14.879631738321326,16.219601355208983,17.399581880024357,45.04070406318528,66.1421712916299,79.16889268498251,125.41714028249653,183.49090962255616,215.93648745102502,246.7666186149025,276.8000450182427,271.27502326490725,255.98731701974984,259.7020877858821,241.3585926454694,191.39023275118944,150.30942151821972,107.03973101133232,44.72171643597629,3.345240282813773,-12.244958349863438,-37.10074026913525,-47.42724978929319,-16.749135175334715,12.446773481235834,23.61826231275088,44.17727650895893,50.99003346293604,21.269507889554802,-1.5973398811193902,-6.940205085166255,-32.83126912152871,-62.43565019769679,-68.95979763736929,-86.06903721290166,-116.46206479568448,-120.04172716613132,-118.79259723104548,-147.2083205223395,-173.13856644065305,-186.58386423004376,-218.62034250123705,-245.71477999791995,-241.0115382930041,-244.76187964220492,-265.9194974391473,-264.75907391007127,-258.54523834392586,-275.9019749598573,-282.9897864255957,-274.90214063073057,-289.01292099708576,-303.0512033577586,-287.2815658881259,-277.70923904819074,-281.3154558902513,-262.5097617445173,-244.41087645429258,-256.5221888775926,-261.6793528943183,-249.78286049444085,-254.34140250717195,-255.01355602479632,-227.12348217408908,-209.9024040550719,-210.7846401005657,-191.20457779494564,-171.24799743289276,-180.8675419719589,-183.03558118890163,-167.35300613006518,-170.13595928371564,-172.73669728012135,-148.4115332578745,-135.78001575605185,-143.3116490207894,-130.49394086786901,-114.6795054338238,-126.07412556704907,-128.22277860996383,-110.37754300574957,-110.55041157012597,-112.05816002370128,-87.01797255867731,-73.20893221384632,-80.42902052769463,-68.1526484018906,-53.90537314759635,-70.1558639969225,-80.29528476307036,-71.13375274409049,-79.09229642483989,-84.65432390818026,-57.495814258542595,-38.14858496443632,-41.15234390448675,-26.39515845004189,-8.02318890625396,-16.030707817000295,-14.522921620248646,4.962736883214808,-0.7355150408535103,-12.859089642006836,6.323571899251338,22.421157632112436,20.5067858565107,37.1732625226498,54.159742782737744,39.95776410674661,34.55882616325943,49.805123769227805,38.671210351301795,15.12774231863582,17.697239769580463,16.81976892505276,4.294318681856158,20.079928294286688,42.23583272771013,33.02458732418673,27.853827364356594,40.324951868766206,31.99499047078208,20.255067308973715,38.0410402652462,50.43630970778556,46.42892560643496,65.74523169986924,90.3513687321415,85.64438152626417,86.9061151795967,107.16583433786715,107.24524346812974,103.83512358054594,129.55361540314053,147.13697131814956,142.41852863668393,155.36416457032706,170.15570732935268,154.22115786729287,145.60526566757005,159.7092288759966,158.93264561563532,160.22338601005288,194.02255883674266,223.12195737778757,236.87135454193108,274.2951489443715,310.7381483309807,302.65526977827744,283.996636694493,276.18776837535455,248.6650495979643,222.0007559426357,229.94211055361478,230.94083100195897,206.6066780435603,202.73337452162536,206.71177870000665,175.10308640479747,138.57981740953727,118.75897944112775,83.29107997291342,49.374471235838996,48.05518450263768,38.299895921506334,4.604964362986637,-7.71743985319433,-7.582864273412596,-25.263033521464553,-25.7092697958968,0.15366578927626584,7.253689135418622,8.312925352492655,33.6803332408125,45.660942663676835,34.86289242100445,46.11526497947186,61.25863890024851,43.18146284071875,29.472771263939237,35.358027004803475,18.900842084010414,-4.708447476697671,0.5195474239620372,1.3914895656314492,-13.04606619843697,-3.1442003744291593,7.772074306470497,-18.814366490429485,-40.19935612259944,-34.28817005404595,-38.126762926755646,-36.313595778441396,-3.586965151353956,12.128612694539783,-3.435045059012685,-1.1413748524597378,7.648318226086933,-10.736031493424573,-18.16098352641653,-3.1988324299754947,-13.008855310249182,-30.72538969196008,-17.310266214591607,-10.605726421296662,-25.66689305813658,-17.15360431971237,0.2672274906879055,-10.87748806025473,-15.953204947127443,-4.072636663965083,-18.921079955007137,-39.823322323833956,-24.126104426296248,-7.512787789818129,-11.612613833179987,-2.5362142216420205,0.883956012218341,-33.740071106914684,-60.943726983642634,-59.71032808124775,-72.75967877614096,-86.46411023731213,-66.94612773004033,-54.97211324714898,-68.7297053365067,-65.82583174654536,-58.52414693032975,-77.04115344401964,-79.5032027857714,-54.582399204531114,-55.941508436769425,-71.43628646979727,-56.77116341954199,-42.79002141374487,-45.61084105355894,-26.76104607127327,-7.528370110183532,-27.139717548559066,-43.55008467531095,-34.640620227274425,-43.341907275068166,-57.71946616655097,-41.21558052760456,-30.595337884424385,-43.448506209866274,-37.74593256083443,-27.254158534889402,-44.57348574672712,-48.0542722563851,-26.131249099368766,-34.09465999426905,-62.74269937286641,-68.70800547538381,-76.62074590768738,-89.61577274138243,-60.11665558406389,-16.830454960661047,-16.833434539789835,-26.417677741987305,-19.565654168599586,-33.40662946800604,-49.75637979052721,-28.205028301809154,-10.76427274571974,-20.317964076526266,-10.045706598582324,8.561419544722032,-5.8171621875087185,-14.927548646368315,1.2842812472867848,-5.917717153506271,-25.7953018703491,-16.326682457143637,-12.409129225312913,-30.480120158172248,-23.32626955300992,-6.8070287293257525,-25.5395305602879,-41.1053574813115,-29.58263499888348,-33.99172052230992,-41.506857142180486,-15.037423618859757,1.142026061555233,-16.105538131794873,-17.402909499631637,-8.58363309526409,-24.935269728199213,-28.245906869144456,-3.4978681214756655,-3.44853005243351,-19.93229242472004,-11.930549996501302,-12.292413444509332,-33.037469229036105,-22.009597835267115,7.514645349135851,8.322047418098771,9.351217038197301,23.097096497104683,5.219157935105137,-20.94147483747288,-7.026589906396623,10.038217788156944,10.400213047940115,35.298757676090396,62.45538283823018,50.44542612468153,43.34493095019435,61.61276281455646,59.33095737500766,52.02651176278703,76.62336257626781,90.6722831609043,79.24287787695872,92.04331915508713,112.34411053640747,97.63575253090096,86.86022001076968,100.55335837660132,96.12007222722802,86.35305552902435,106.15308357365015,117.2610873949133,104.0971976792337,114.42413788367666,137.21677378763377,131.3802030853118,129.95626852855744,149.59915458841408,144.3671691328855,125.89156595907511,134.37987182257638,136.72103211205643,117.98639238872455,122.9402302771324,135.09766559343032,110.68540482947145,86.38246961562348,86.54144571488682,70.86384566054771,51.44531302870628,64.00111666604623,65.01388514425042,32.538066123578645,17.90920473866019,16.76712446939199,-6.887471668680572,-18.939642847019442,-11.049119883579914,-34.01262815008218,-65.08015514385362,-52.58089412867142,-34.399103010761635,-39.22375018686151,-30.959491096064454,-24.297876872960654,-51.133593611008386,-63.141024689038034,-41.533032488757755,-42.544034198293936,-56.78584434723063,-38.672652064090016,-24.533368806647957,-35.447809699940045,-24.626677754649922,-5.937832149125384,-21.897651823945452,-32.36026440729787,-17.91458604047982,-29.186557120719097,-51.341001030827044,-38.28868501785354,-30.30418891853975,-51.51869849739989,-55.38151964308179,-52.42498733321111,-77.62993701218603,-86.59582877764412,-64.05821508801077,-67.74743579841291,-90.3656469679789,-87.51406306211386,-86.13499688544815,-96.04986306472165,-73.80386027774233,-45.58148356970368,-61.64333352438928,-79.61997652490237,-68.87986609478635,-70.58756907536754,-75.37624609905303,-51.510388889505506,-42.289681351618235,-60.80017939793782,-51.87996922990658,-30.86319939801286,-47.23531945051449,-65.71587333434147,-62.69139602985311,-76.88941061355494,-88.88189672846849,-60.91194825219348,-40.901228629305635,-52.82964285322251,-46.98825966910623,-33.02550911685912,-52.036425302130006,-65.91918695706167,-53.94483737863845,-62.11063475667735,-76.03668659148062,-54.974543747180675,-41.580209596585355,-56.733813926580474,-48.42288136835383,-25.66509833465171,-32.57122483065027,-38.25707486646465,-27.02008852773897,-39.43810504459622,-51.83883512194369,-21.463570172435738,3.914908737230361,-5.561941408221306,-4.884728232979028,1.6222176217012918,-15.357689736776539,-16.4878594673622,5.562985650587816,-5.255463758250286,-31.326885191542488,-21.075904748302335,-5.489463574404743,-3.1160785468007,24.04932031643966,50.358063486483864,33.13982791794183,18.15131071810335,28.585636796302097,18.756132395629344,2.8699244676088105,20.01672357956023,32.03149112577548,23.72220919813924,41.125793316556994,63.703451719967966,45.998584390358744,29.59328904367414,40.175938113950565,35.20596929644667,25.986152570260366,44.80678218326938,47.769068352722925,21.820923886283833,24.956408108975747,48.588071006729315,46.77997672462537,46.547109740503956,58.12705312290424,38.94541987700908,15.423325468210695,33.18175022020762,47.702625300311965,33.380559036150046,33.963234157864925,39.217944804010386,18.252929765034033,13.39840214209958,33.35440291682329,20.12864009628852,-10.809411776820392,-7.022207660670427,2.4918538545547197,-2.7918675180309567,11.905447619180743,22.304514980049838,-10.091074548323967,-32.26235167346363,-14.19592169579819,-8.789599715786709,-18.182627813545512,-9.81631417790784,-15.73030704516587,-39.89507803560523,-28.66239384423624,-4.239531442570454,-19.45353251705424,-40.162807484638975,-44.157168420733676,-68.43384307636913,-86.50917548373381,-54.53286916706377,-21.723502565876522,-16.05688690083411,5.562166216766814,22.9736313810022,-4.694797319352638,-27.655257710777878,-23.008490970739324,-43.23189736338579,-70.30039041314203,-51.62878111442418,-24.80619047683303,-15.333508185318289,16.301248625862193,40.79416096098645,6.257874057770717,-31.82339196587041,-30.397634405842002,-33.32787872022153,-33.00360543422256,3.7579094633128935,23.788101917246884,-9.231957964017994,-53.48635285867844,-79.50527509490249,-85.6005683491906,-68.67369346154109,-26.743201725832044,16.439374062249087,15.147841482510952,-13.850059009950698,-9.250171197255959,7.366564427129697,-8.603100333061132,-15.189927270433882,3.1952544569208943,-7.916875765462407,-31.96791886772899,-21.24634435279325,-16.273039802251862,-35.67980304793082,-24.976755443201334,-0.04312148170605745,-12.56387388454912,-23.061757251017816,-4.784528972458193,-9.57659872404598,-34.33502201907361,-34.59936441058012,-34.15481489124663,-42.40977068311876,-15.143766003830015,21.868227702568248,13.959484002280366,-1.9783320047117696,5.1927441070359786,-1.2910207250217987,-6.907966660067441,23.845388531885746,42.695393305269164,26.513426307956273,30.41339678894417,48.51223709770158,36.949455655192914,29.1361605692705,40.462410451596504,21.844876479616975,-5.0794034674321455,11.98203546559198,32.031484624019434,27.549531302209274,44.162301466526024,67.76496840476014,54.61255333554911,46.46197126789998,69.45865681020551,78.34145904223504,84.28463318515927,123.46477667683499,144.37348800619714,119.96750729004864,112.07723988564393,126.38597946033036,122.4127503036724,128.47756579841172,151.58347982558632,135.21584133989253,100.09281670661315,104.62160851048574,112.19703209966539,93.30371839225211,91.14966785205773,94.90501942364341,70.1189013458019,65.36981224872085,98.70744132967204,105.6594877763346,83.74766525412136,71.9022512653834,41.919946728145646,-5.81726023302949,-7.7961043652598,19.577509530432767,16.954334175978275,9.140515205609763,13.473743750054402,-9.698515647719388,-33.51897036321715,-10.53058219092075,11.111922958104433,-0.8248604562393052,-2.232428159788924,-0.15216816419642543,-25.709155745396032,-32.84410656615221,-5.885678433738453,-6.599101239550031,-30.27756841645898,-27.14034054550291,-22.420119399089824,-31.344087987310555,-12.047424481561773,11.224014914915298,-10.373296641578069,-30.738742356126075,-17.34166303636176,-17.408301709524032,-24.42134352995481,-0.5930013213943539,9.532940000346235,-16.150454032821642,-22.49418566021376,-16.363767295873103,-38.73619591820623,-48.05245586175451,-27.084769874894974,-37.01656761470167,-69.0887564956347,-68.7617098421516,-63.95022458175474,-71.47071630307903,-45.849527518307,-12.425343407584219,-23.346712173547083,-34.49918213961558,-20.35363891812308,-31.71618318511113,-53.80696106263318,-39.59857323955095,-28.383546820744336,-37.83691798905876,-16.82718316328879,11.31849649545105,-7.3857189489564785,-28.601127272010533,-21.88340543038592,-32.190824777463945,-43.42828787034467,-15.381462695346642,0.13813850304718178,-22.047252631802245,-24.130785386460097,-11.3609085914326,-24.468353392584017,-24.634749825519982,1.0883998424759564,-5.685686913691151,-30.96919187594161,-23.590959734276645,-17.424752098817766,-29.221513499107925,-10.967771726745307,13.212273036357972,-8.459033306019663,-32.22438065744718,-31.21103885067733,-51.611451127756865,-76.38257744631576,-62.98049111651193,-56.50639362283849,-75.23164736139924,-63.05516721836156,-34.988694833432184,-40.29596507105773,-40.60023292565515,-16.6692762443399,-20.783019102406183,-39.19776729892583,-27.872250171898934,-28.1402896656132,-55.356876572889874,-49.98281537317139,-25.082945951127726,-33.190129212585916,-41.27180807028239,-30.052877117147133,-44.47818422651483,-63.10614246817866,-39.56933135279338,-19.105780911933405,-26.642508966467158,-12.263840541154813,10.006376344519065,-4.635101861604609,-16.16267248273713,-3.3210773391662416,-12.55239468970532,-28.745979928631687,-10.784414023895145,1.7627174032691522,-8.242411181328867,7.472671083656044,30.834177086672515,15.708389575410848,1.5652594865096359,12.910144756400689,8.747000589969954,3.4865137068063143,29.755483599925387,39.37079625856326,14.730230956179247,13.078938697943677,27.595175544791946,17.160138443056383,16.439531261505525,35.28256495917064,18.047658979049633,-16.95397552555336,-14.699913806645117,-5.186428652502137,-7.543398129043942,16.849527297837557,39.7862100818031,13.612044446573323,-12.615795808091185,-5.4274006475977785,-8.353160439777874,-13.505865848482776,11.046864919644406,20.18422471438638,1.0477274522644535,12.117662241235315,37.57282734059615,25.65128066911452,11.251758110801724,16.487414742493158,2.0032110057386143,-9.226236845005756,20.57445241791207,35.61036002811152,10.833306520072192,8.049637726496965,27.30805072217714,26.524146850827346,32.42396881029956,47.591332277084895,19.983769214175368,-19.536512401449052,-8.779190278956786,14.565481623291728,15.774367426965316,27.79613666121131,32.87003931688143,-1.26685923393498,-20.536541413071856,-3.374397820771595,-8.37739454567001,-27.659765752632197,-16.841587848970136,-10.259751821769264,-20.833916357009297,-0.6661738000232837,25.25933390119905,7.754601707403359,-8.889471458551595,2.5088240184081023,-2.243454528983695,-9.740987815601915,17.70955552493738,34.69249493777497,19.093185740130167,22.436408688265022,34.58876883123324,15.263272591636511,6.84794598703011,27.878982322324486,24.939169000772523,10.572582033592418,25.84554205189456,27.832175817823135,1.077172191699514,3.129006337458872,21.30491838227539,8.723494585152865,2.7162020090353813,19.333838180579463,6.870484236570183,-14.529520291220251,4.863631133692081,20.318688016701643,4.2924638452287285,6.335660055230095,15.775039547082574,-7.307072279441433,-19.269241763464265,-2.0166956024236935,-9.972732902294991,-29.58264263782146,-15.370564543432037,-5.218292651873296,-16.683507931586217,-2.409962029624239,18.40341615050064,2.5197422313873616,-7.449562507837102,7.844240663665773,-0.08505866743200574,-15.88691684194353,0.6480180700199831,10.452130245885217,1.1125476716516092,21.958636998385522,50.445875698703446,38.47050119096253,24.79798805144589,30.982320279302133,18.119901237024997,8.088448540245444,35.42272072009324,48.57920652186414,27.957935475161335,27.91492499235939,38.86601702683778,22.204034272848787,15.96224529154616,31.663442673491573,19.35080477422672,1.3140252823393581,23.15669371719877,39.01825486519968,24.34947038040676,27.005171579522596,34.845189558151795,11.35464178176842,-0.7073730908868353,11.606476800579333,-5.041288380792207,-31.415807763839954,-20.833522011007403,-13.009256048372166,-26.370180256803582,-15.571906040893307,0.17845363484890697,-16.255493829303326,-18.825755138220515,4.765045394191009,-1.7610914684489085,-21.401385786238837,-9.864135538727297,-7.026237021972529,-25.0472917972647,-10.37442302978113,16.492041560265093,8.550717798630183,6.969558597781706,25.953534528193583,11.335349727078684,-14.977898231399813,-2.5325550997105806,7.182330814434092,-4.7360696906212745,10.75367679721015,31.35438313077421,12.194202805671019,0.3526454437868902,14.788618886119108,1.609376850553117,-21.53759407502386,-9.15489490272159,-2.9363715782961854,-18.325362619745533,-2.969107974799101,22.690238059798922,11.17015294438232,5.372431547856169,25.522856406277636,18.317890931595535,-4.318187299917208,1.6575016715287232,0.6522985895558651,-19.11719566549477,-4.9926212760218664,22.831500197355098,14.316152122547155,6.751075420060749,17.894796777078792,2.0408905567054676,-18.19914845190725,-1.2675627575173127,4.425168446304661,-21.114294647053388,-27.237240445122225,-30.233039655954002,-65.64091704602623,-81.15010011557365,-62.07538972747695,-71.73067475060344,-95.96975198118102,-85.82074024696676,-80.51327501837906,-93.49045946379508,-69.7825148725058,-33.17296554312339,-35.63531627168287,-30.266222585769686,7.033728318996992,21.094866078315356,24.814155371529356,58.69058422829233,73.0627291201499,52.90656483079491,63.18656291273837,89.99084468251647,80.16305231573897,66.78454969799384,61.47482712674387,16.54502667911857,-33.26344732613956,-31.317465461651796,-26.485151425887953,-47.77579988096307,-45.187705555391524,-29.787391386062993,-35.810044076458595,-16.159602953057963,35.6629222052237,52.23861602182633,47.47216698443649,70.80733376309284,85.34139535846651,77.26065864635422,97.05787691710253,121.57423245814459,103.75209103292057,86.97760917104445,87.23495866327741,53.18738278459871,9.131204400535657,4.539756590585453,-1.8331989497374104,-28.107727375575486,-28.5771614039054,-28.5152689896734,-71.16903564820466,-104.70014356425675,-104.31417788898148,-119.55378371166829,-132.79839051004413,-104.39534643176411,-84.30151429066677,-91.20357683434318,-71.12960153792719,-45.24369175090361,-61.10703780382812,-70.89875681395658,-52.09442759064517,-57.281974666888644,-69.06488548457205,-43.85694205101267,-28.032750330724923,-39.407939903119264,-24.228549849903782,-3.4006874062939314,-21.894929691745844,-28.470382076016122,-2.936039555257995,-7.232548241613305,-33.05781016836739,-36.859422983954325,-52.035536562190416,-78.29709738709421,-55.21796313605184,-15.60676247733215,-24.05785519891955,-38.39556993514126,-29.816314555630242,-43.314480913007124,-57.99674140566522,-32.07421524949892,-14.350995817967062,-18.0087483521445,13.9063937840917,51.354417551256866,38.30187561563824,26.30642986845791,46.18083242118247,48.233535306562146,45.1821520011768,70.96245287893052,73.07473043648163,42.75642231994013,51.26390285641417,76.89848793711646,52.08233092131955,13.95221799687699,-5.571486905963426,-43.521762995153544,-68.71470042969248,-33.687640172660764,-2.0523254077452453,-8.807926891814999,7.7823497758236035,36.09744906152427,22.05837178813923,9.811750260458744,22.447462454505974,8.415001295296827,-0.7649549353904135,48.548964693961125,93.01908850635185,96.19463162839507,113.54128326786875,128.02879831014818,93.71162889370258,70.10455306908797,87.30840326071265,83.62606743352102,72.54763094691809,99.04233120152625,102.50042864904387,61.20136609071316,56.01909256724771,80.74812540333383,71.75181538269965,64.5635894938266,79.36834775934811,60.04252361943911,34.125311664134216,57.35872346424361,66.01058762043229,23.78012949971293,1.8550269666654382,-0.03692505892318465,-28.389571551106513,-33.59740631307616,0.09426458329103404,-2.509285785594458,-27.201317945655735,-16.228611434384415,-16.603466255358633,-41.859859852473214,-14.855377198549352,43.086273334817875,55.0262796589098,54.341744672387044,65.81982950417374,38.85979603261606,7.907233793473912,33.107086020513094,47.08751272245501,7.878836851460681,-12.495536705055182,-10.00895533801964,-32.94383667407163,-38.76576978894164,-16.301591841781132,-40.76437120341298,-87.8559002934457,-83.77870851797411,-79.0483817816084,-113.02796655916671,-125.73959645959988,-126.24606983272756,-158.98180229672747,-168.3294632441237,-137.8308244836729,-142.6737696628876,-162.52608379276754,-127.99935672345771,-83.95440030181587,-63.677958675429316,-16.309302880195247,29.031225145418492,13.930007938745433,-0.6484636402162542,20.802502937420194,18.652729263767498,12.083330927493067,49.45265119716986,67.14132023811433,40.28047503783496,43.87543944307845,67.8515935618461,58.89282450156627,65.5684523852832,106.9500504648123,114.73031652580946,102.21129697307656,114.76178399814191,89.71491871274142,6.07572737090041,-47.59995878431492,-65.0755798233829,-96.39469475607409,-99.41755245561728,-67.38848924884911,-82.31865083892308,-127.47661491485523,-143.8023956613479,-191.39207682136183,-292.6231158529596,-360.31389631604463,-390.83772017502923,-420.03024243365184,-385.0073000711476,-285.82330367656226,-230.10970866303063,-215.6425337053547,-179.66689450793473,-165.76998848842322,-182.49029373848668,-150.53408729554153,-97.96447589625072,-94.30558436290575,-79.49798800489005,-22.877178930761108,0.67178097761139,8.118532276771536,59.05790407181227,93.44167654338978,88.7376621511195,128.59423425382192,195.62929169951212,216.67847160122497,236.06020912799562,272.8077723797713,259.269039673608,238.00311243723922,287.06687965208357,333.8476617538454,319.89396763384207,299.9474815863636,262.2936894549715,173.6165932878628,119.92286302061623,128.14345599394923,97.63192725292038,31.14538814023909,1.9754853140827653,-29.57869414082055,-78.81593483549224,-70.22455268873269,-36.42141077606742,-52.61977743010621,-56.17174703027592,-11.214694681296276,7.280590449339712,16.033112663926328,73.65384132170823,113.07674204646939,107.51974504952335,143.07155624382125,203.60442665273442,220.20666672962324,250.13495801374066,318.20536341045585,336.24125612119116,311.39462249002236,300.7524696878376,242.5911844880347,127.15665530317355,67.88113977326672,62.72569416160609,29.6955209370063,1.7300339552696125,-7.0767486530206805,-64.22431432954868,-120.2058647800373,-92.51674809174762,-56.896796555943276,-66.91290330308863,-56.557136414455925,-40.56398419646548,-66.09407250337031,-58.79770600723491,-0.27588068433844626,8.420180844275887,-23.184728967519856,-20.936224046365474,-29.13970941479087,-63.62737322421539,-48.73845542608912,-20.561354849252247,-53.05701626471286,-75.9988206721348,-51.440444784037915,-59.261781008246,-87.72870388048891,-82.03841146564557,-103.79401745080476,-161.7731657284894,-158.22899803273552,45.332098182374466,69.36507034057212,107.8271905492451,90.40284384952136,88.50500468713605,100.93761369081778,55.94433854857339,21.02092873381084,50.25252800057981,50.613743922682474,18.384045749087704,40.818065350727416,65.86737765619299,39.127596589910695,44.92751051396532,80.99515224830702,58.37590953401358,30.2204100588385,51.43206224049785,38.62191311681275,-0.3338451572464596,26.086259875764238,59.76529730410192,39.69128352255721,43.01939949606908,61.368491185756895,15.626754368320075,-21.06195825384521,12.67896586894356,21.338696942470044,-5.577224320777448,12.01124602859328,20.922266652960204,-19.125255337832083,-10.267107467291549,38.53348095528509,24.40172854788856,-2.9586928054613795,15.816200552101757,1.1653650877148252,-42.144727096221004,-29.144898150910834,-14.995786143228308,-45.54430202737899,-30.191751763775905,18.388581413074697,-1.0119922569311086,-36.63374740418524,-25.9022622986507,-39.8756843735579,-68.16435305140091,-33.44214521525039,-7.5576467283278665,-47.52567719629941,-57.69838225958209,-32.52817423662153,-55.74331495070376,-72.35196945036284,-35.314803055362624,-38.27534397039481,-77.7719485268573,-60.19282203879554,-35.991531986408575,-57.12371223282738,-41.70475305489184,-2.9110275568476602,-32.832730445936306,-67.60937260926819,-42.63752976811037,-43.43596917580703,-73.53550406504321,-48.810827775969074,-22.42858589889916,-44.65705426341263,-30.608905239072556,6.268030793092363,-31.773434950818128,-83.43989615167987,-76.93550657012739,-83.92902749215891,-98.80529765568268,-47.922957978998596,-7.572179195941162,-36.76294599210554,-39.61619123684551,-11.420810125833349,-34.53689737604121,-53.7022148653746,-25.404498532924205,-37.44686564707843,-73.18585984310926,-38.83312856560771,2.721554524110008,-13.398489080576969,-11.700413036969024,6.228531480791585,-29.053722167173834,-50.0047358211062,-10.027316918063978,-7.585845517168998,-45.50780704894436,-34.09091134248921,-17.342405797333,-38.719703510135524,-19.405742693100535,23.11288592598078,0.666159163935566,-27.084395018754066,-5.504876543059115,-13.912856422900287,-44.71342886540634,-16.00791650505989,15.444449193479464,-0.4763683242618111,15.34529940745767,48.592882408605576,12.678346463398293,-28.471432413349078,-10.978900936337627,-8.973393730832138,-21.385524482578216,16.83693148201384,34.65181292258381,-12.574211232227501,-23.074582022028725,6.660065599145124,-12.033737692526726,-38.38223314888739,-34.13245967589742,-70.13416423326433,-115.96824585391722,-84.19902695665562,-45.5325169434858,-66.6252849253112,-73.8787620516907,-64.17457663426734,-98.62564777671466,-114.7037074225214,-78.10664154161563,-86.66526170896688,-136.5620518783441,-136.97271155834127,-127.00197189214046,-146.84806027410184,-127.06410280771638,-92.23475461855801,-125.78606224939566,-162.83302026563226,-146.54707616391374,-151.33225329696162,-170.1675179275243,-133.11631049618342,-101.03825239840259,-114.11699636525992,-90.01339777092649,-44.17265343472269,-56.79079025045227,-69.6701346946827,-40.51976832545219,-49.61853325694593,-82.35754952408267,-59.45423150459045,-36.745590250754134,-55.07804855566073,-38.5686536657978,-5.369695481596221,-31.394329213248994,-56.064485175770955,-35.212985057435624,-44.68775446495792,-73.44927391966598,-51.18954167130098,-32.99390611226846,-55.45393328173981,-43.82403861990606,-14.07949398112208,-37.641273699857535,-56.13271614709674,-30.581544178350217,-38.68733481091453,-67.76537613847368,-46.063435380282314,-29.309962127676606,-51.951012984497915,-36.263249481877075,-3.504141904034988,-31.044046985278598,-55.478269578342776,-30.420103222382878,-32.19518134029782,-49.52803244613352,-15.52656910574804,6.667274520843961,-17.008461672681328,2.2913481523213743,50.910779761761304,42.91980567562417,25.15370460721349,37.563075028712234,13.714526448658601,-17.150049972783787,24.78830428229279,70.78807448957846,61.82151307447153,68.29772572433946,86.52657601385008,55.272026724028976,37.249123363064186,67.99526349368476,58.17957858504816,18.47446376444298,32.85034757794518,48.619281899049675,21.421055669271055,27.96324199000732,53.5885167019383,21.770897693778668,-3.2304936493792207,22.978936092902586,13.587081503917062,-18.80394692631663,7.827352050426207,30.620427850579205,3.276495144815911,12.608145308535544,49.704347913328405,35.893903902453175,27.750992865784152,59.70857012037399,44.79349680242916,5.332361838745264,32.949787183093186,69.13850967671478,61.40014375263051,83.92022691907995,120.60978282065842,94.69008850171353,72.68333164896941,98.02214210489984,80.93002994181657,37.06088051056313,57.163131430137526,85.09815964885401,73.01874770726101,96.33678836565018,130.31309812492452,89.52171594452304,46.40584334798655,63.5145015945154,61.780468223629995,45.35129728497684,84.46539036410421,108.81395577998101,70.93603256333337,65.39839864038598,89.79580803395365,62.54625170689223,41.80485352347978,71.3837159972573,61.87754798154609,22.75011132136215,39.707709420339604,57.65572811470188,35.42452698416108,56.70926063635296,98.73681690322648,70.80291453816108,35.63116872053151,45.70786401033025,25.00424925962398,-5.9183383775112794,33.40978977607412,70.97316053107991,50.707364228519225,53.758820071901205,71.19384931290347,31.100490663172845,6.436354954020018,44.22734936336511,44.83228194094441,6.851368749495901,16.487666611964713,27.045933415703526,1.8464046716941755,23.95997516735718,65.60393319384356,27.603025405216467,-23.14610459869906,-16.848232091589367,-25.127154645214098,-41.67605343639128,-2.7335017492188847,13.767773436195746,-32.90330142135287,-36.075572535126575,1.273371058068367,-12.440865916214355,-30.36559694231165,-11.869407614754873,-29.871176151315662,-56.37114180801239,-12.34609557044992,23.279696088979232,-8.214019325490124,-20.489487034181124,-11.391000984247803,-46.52992940774219,-64.25184588603668,-32.13076957741498,-41.966994448921334,-78.73542521887103,-57.81030439867842,-37.120058759337255,-61.61508620284523,-52.296592222727824,-24.291924943610248,-53.506797655967496,-75.10751389635645,-46.480403254066346,-53.73362065952305,-84.85403586004777,-61.95201925861649,-44.671292080365944,-73.0455263019248,-64.7226033950656,-35.63900495285359,-62.46307950629744,-81.01583291417002,-48.92671884421138,-50.085143517049076,-72.41376948843529,-43.31679837952149,-23.444287488967387,-46.95590144539178,-29.804758168769744,9.606445759921112,-8.35949324688067,-23.684055502552884,7.134329138140018,3.45904234845481,-26.749403309989955,-12.749564407239152,-5.658169259622309,-29.57237470585042,-0.1686604446626081,53.99408228054018,37.18879237465204,1.2783595351438457,3.148508788408746,-11.438672702361405,-22.83798799194446,23.116834243325542,46.41830622370961,8.26154172665579,3.392596798655388,27.49653033594445,5.2660571423443905,-10.774408107228005,14.066562975782901,3.8030576146208404,-21.221403980225844,8.784151811484199,27.01407069991282,-3.7339611549114533,1.5680510329589357,31.524624013951083,14.769254264884356,8.192877371594168,45.18625379724843,44.78663050970307,20.10825179293601,41.37357409494023,53.580793502484376,28.505429364564595,47.31554020751739,85.71349898648592,62.84266824483974,39.742725612274015,60.68178529276582,52.089710328755714,28.65197158695875,51.600209889913444,52.948364434038915,5.954455367900383,6.075896918062111,38.91467768320869,22.693347484309303,8.28729167868478,26.941512109466963,3.0773333402074172,-34.208513275658454,-7.801171535386217,13.755966570334442,-11.45690843525733,-2.692860669351184,22.998947610083384,-4.703303014143232,-21.207544512441682,6.683625034484088,-6.598087697550353,-43.08131223329075,-25.04658711836697,-9.63494190332351,-32.223531089562776,-16.320004485187805,12.561838153614108,-20.994118745584004,-47.333344558331014,-21.617400926857435,-24.45297036100778,-45.016111463788896,-17.433509626966607,-3.949056338927726,-33.53599151947546,-17.56037382616075,23.91566244081345,5.642126864507835,-18.061286298501045,-4.607868486806913,-23.70024451442537,-53.53964805125082,-23.950905936065706,-2.573638285152758,-31.156673654370188,-27.811411841296582,-3.662594575308052,-27.990691934060223,-41.80670818457048,-14.486742990685974,-26.720051816286528,-55.294302714819224,-25.867501108705465,-2.2178741201800767,-22.707868035894364,-10.333594404180085,14.992155479560946,-16.62260343063455,-36.97599587362603,-8.617279544513154,-19.303551994453727,-53.15825154715936,-30.54336476576237,-11.981598997318255,-36.46638134131738,-22.279509255895803,10.094245492671131,-17.286981743156872,-38.68097837809508,-11.133852257361019,-16.315895087861538,-38.8403327979913,-6.758060647615098,13.435261411989233,-15.219962683425209,-6.358716262542453,24.040242032856728,3.3539815108557836,-6.876324322416266,22.451527696157967,6.4913419510335615,-30.901538272190315,-12.060266161796058,1.7522203559874423,-22.74146763360332,-4.296661167311401,34.22977830803786,15.86966297187744,-0.3924904596395091,18.437805301921962,-5.267302097692697,-43.41228097214661,-16.514884957595857,8.716237692934197,-14.9807310991327,-11.309214472817652,7.55790287391629,-21.858115249256162,-29.702309188131508,16.33390535984081,19.397223886940786,-8.000709227738824,15.986684281964294,32.79697171831472,6.632257846561288,20.998471036717525,51.6203404617987,19.86531074944393,-3.671993491373033,21.88583122610215,8.72000575249794,-25.36491856852524,-1.8808303479660538,15.533702471100087,-10.748255036977266,4.022182415668649,40.58481673904776,19.337278177244958,0.6998229901952273,22.2350378632018,3.7877700997648667,-30.722732215129348,-2.015614715183098,23.34917983779956,1.6233810557189035,13.823404402852063,44.91113051545274,23.92436018448832,13.706749766869887,45.12891998363094,29.77772255590775,-10.977189160823176,8.122292541440036,28.645639154658042,7.494607499623971,20.595087604686668,48.36054946490944,18.60782875131334,-0.9476564490924746,28.38656019762749,21.222677339495554,-6.405923172935383,19.988067827497844,35.73581534208219,2.0907200676486575,4.9572369842288575,31.179970748142374,6.3389276457022135,-6.121697694659582,29.992529944223612,24.856954112628415,-4.773424316395657,20.1653838361608,32.08705171049588,-9.216816793653027,-11.830986428465575,14.906142812349161,-4.444851778834002,-14.367663370121234,12.315269938934684,-11.346284050466265,-59.02079181951196,-40.390865077466884,-11.916452608364125,-19.857658717537117,3.1425784469243414,30.449413010451853,-7.377637523376542,-34.064000316208485,-5.755325911324567,-8.967303909499218,-33.2587839720857,-8.367479880657191,7.141332756834498,-14.278598302307152,8.148567102815234,43.4388016397734,12.06331780617635,-17.185804764336638,0.04399909055238105,-11.017118800946045,-31.822749669149076,-0.6964166209924478,10.696370553589642,-26.615197973175505,-19.08986253586424,18.9641860543845,9.97029363477882,3.7741309476165803,22.983250152989488,-9.805056015693799,-57.10948663197219,-32.639247666547185,0.07467380387803058,-7.763498932561836,7.573669024490853,21.694424943287284,-25.220414263442443,-51.731586088690264,-15.157305383283479,-3.440268672089543,-10.364874819936325,24.179491376646393,32.0156875258164,-15.1332065584401,-22.50140780604166,0.7893794572391446,-15.095466364751074,-11.32480911455984,36.442648290765206,34.786332149476515,-3.5440517862713534,-1.009303185601766,-0.9574163330899164,-19.838011333829158,18.90552998574213,74.21166530555463,54.219268063724044,16.373990075796634,13.503698666346537,-6.121144199834765,-15.926103590032225,33.962451664334814,55.507417967991955,10.689492524315316,-0.9116664313955334,22.13797402262435,12.491633591606112,18.91666373503565,55.11501038825709,32.46163215110883,-16.758775914921443,-3.4531227768096144,14.546638121691117,-2.788031935341209,15.731716995881545,42.40205893535245,6.651260171628648,-19.526870307757882,3.982236090455883,-3.200576539576092,-24.153767731038847,6.198927996317298,20.45291807444495,-13.980086572997692,-14.43146035787469,2.1955161314955634,-28.859300485515888,-40.57117148895052,-3.289941503729853,-5.278822387813303,-30.530690039978474,-8.306099677933277,0.630198643730649,-30.180940899701312,-17.240046393961393,11.290540244180892,-19.294527024364765,-38.320791735622365,-9.381391147801184,-16.570499896171192,-40.012388571843196,-10.033961093582695,6.534552013674501,-20.91516046264504,-7.029487981587204,24.611801697895658,-1.2625465023280071,-18.645731148198916,6.684567639941909,-9.825744502828954,-46.54478897475197,-26.495861483861887,-9.879647028127877,-29.801881936089078,-8.229751393352606,25.899108250335914,-6.334660527243511,-37.01190495503677,-22.499895159882286,-40.48241934995328,-71.34361409850572,-45.46540428487643,-30.463556766582133,-59.981014228661465,-47.84956929154846,-13.778643793423145,-33.36975148585717,-44.586459980810766,-15.208241580511203,-28.132137285137023,-59.226879858746805,-33.15816837023634,-14.731484224431764,-36.67707051750949,-16.557746014415052,19.61170208914604,-5.047696821716796,-24.8213359520862,-3.132019508669787,-19.214034876977223,-46.35541929420525,-9.799158746847612,20.158215100284696,4.689714859958606,24.147261919166144,54.516316691492754,24.499795498619257,4.944607381739141,32.34711216196808,23.237091161257702,-2.24453355370391,26.21510693870487,42.00502886698723,13.073209022046639,23.53268500446279,51.63777378738877,24.397246960651046,6.1459181009761314,29.61625768911465,13.627897302898624,-16.972435810489483,12.244261655651862,34.91523059878408,13.692610613302708,26.867230894333154,52.346155225572474,21.9914942226495,4.916975970894289,34.47820741416717,25.917138227571243,-2.338118147224705,19.771556697732535,30.391900177449187,2.0420123817941374,17.971788163275434,54.172164422160556,35.76692299511392,21.750160461862404,41.038322182646674,17.18317720517451,-19.77838863317544,3.3046511377985155,19.773905828539725,-4.744166629769715,9.018493083538042,39.26332573419452,17.89500008813901,8.956425701538022,38.42820180646472,21.340794192116924,-16.522118015972374,0.7040023016496164,11.130728676363074,-15.15587582720641,2.9407304971891435,39.73515819311724,20.985624582980677,10.21428751918651,39.97765627887733,30.290307943142732,4.151077582950077,31.124850192303672,43.58915585531898,8.184077212514397,8.489367631776425,25.566786370928433,-10.519035467763254,-35.6955143121971,-18.156830141513225,-38.00767231975689,-69.16478384110353,-38.14046944120918,-12.962015164368243,-30.50219760144736,-11.427316064314352,19.916751782856746,-8.73989727152566,-29.991654787844542,-9.816090047583579,-29.348880776651114,-62.03544099644731,-32.39949379683841,-7.4707146693429625,-25.625032321398233,-9.224081654192,21.670840756188635,2.105410271444711,1.1090927025768043,47.80337238851353,51.06810642276932,28.75768045106944,59.1213381874934,86.37849231310707,84.50710248328346,138.02673245413297,216.7135896907112,233.09512564804197,236.63797985972846,242.96812931674486,160.77533875251638,28.157933639844963,-46.469372500298995,-93.26522147765708,-130.94840016233277,-90.66039106458229,-25.22763528797607,-33.417362262350046,-53.84869508979797,-36.23035883271983,-45.69050762100991,-58.65469172531572,-13.599747323262662,13.73883763411119,-12.392652505768003,-5.484884727817011,18.41739080519227,-10.820658572786742,-29.93487375194892,-4.132645200710929,-11.079113022701645,-32.0695055559464,-3.2937452264363145,8.958636055609363,-24.72931857370266,-18.365772861673655,13.317846157695493,-0.244402586969807,-5.669744258005313,22.754306121893073,8.992758503392725,-22.01463798320583,0.23969256612221024,15.898329298490905,-9.335185553169945,-5.272971002724744,10.153416341648152,-19.65904616190081,-31.669882793453574,-0.06733911855686792,-7.265316816610436,-43.56285127778545,-44.462285153359616,-52.877452216197014,-85.47256885523548,-71.41725507208898,-37.77660466591145,-55.36828422204354,-74.36898137942207,-63.98170391053995,-86.08125679667607,-122.13163672426627,-116.58357410804832,-119.91600378879801,-151.94874436201815,-143.8266602182735,-113.97681691941304,-123.32610629589485,-127.810315625688,-104.80212409202534,-112.93270952897873,-129.9985364989097,-101.88175801396275,-80.21700809036057,-91.22429734500727,-77.96098372846983,-59.3286758779727,-83.0757607489173,-95.81829293697994,-73.0564906235046,-73.8740642419076,-84.76367134422688,-61.53434514049125,-49.82251068155854,-63.926256223712834,-45.267058200684076,-15.295653136184768,-25.763202946597605,-33.40864474463116,-18.905094437129947,-32.48871405386193,-50.29204304991508,-25.604291360859747,-5.3915700877982555,-8.664315548171455,16.127582645636597,47.057493121915456,37.706593584559734,31.862931589335663,46.22644651907807,31.019994049857193,12.035393965403344,38.68700867896828,65.33585129755726,66.8965333992507,85.27102502200731,98.05744783995216,70.36083847771322,59.02202460797584,83.7281650174563,84.79015665999901,73.40430696185558,92.96523655832009,105.72395067522173,100.311521049341,127.72913308208595,163.34749345727653,158.7208642633353,157.99000002105953,178.95570560128368,166.29417981300486,135.5865610481559,134.060421761473,127.77521085167453,106.7622637464109,116.56941972958393,128.37745296284075,103.34672976827426,99.11416944326245,137.23848369979876,159.10092349471947,167.96382430934915,190.3512952010254,184.29613718184254,154.4042124301966,164.70945294628754,187.2654672423937,163.60610599583293,131.6799698439798,115.64071938794417,81.11450164723192,59.404158888123206,85.68160674470309,96.54702889467885,67.1629942114286,55.382627243691616,53.86427047115774,28.6753721379416,20.472424093721763,31.82145898365566,6.354643056432027,-26.93603507747431,-18.72059565562686,-15.820981611739077,-34.652100547612115,-22.035833206246366,2.123564194848674,-4.695059136067383,-1.7301508112099633,16.434439756966235,-6.773816879338769,-40.56052924952162,-30.256077732506647,-24.44291678694938,-46.06679484132698,-42.41465243482942,-34.643568582010744,-66.37576205710229,-82.30277213850547,-60.8102369299387,-64.55378020830621,-81.84227651636098,-71.20614371125042,-81.57065693511424,-122.05153541831551,-121.0070701489164,-93.1670613196471,-96.10228927749412,-97.32951233854996,-84.4968005787475,-106.96328294709926,-134.4462575737352,-119.61099783249733,-117.77657446876168,-150.46397148232768,-156.23445274586967,-147.4731284498678,-168.51687236655312,-174.28576570779,-149.19043209178193,-152.43138473620866,-167.11614780684442,-149.28844220946473,-152.10545203311807,-193.46571852710596,-201.08239683517556,-178.3616949908954,-174.84611301312373,-159.87943456640488,-130.53544973317463,-146.33476165112458,-176.74118552961087,-161.48390966866333,-142.53278828414355,-138.60737123099028,-99.29272346387941,-55.14709295511723,-57.05840146901359,-55.33203224836101,-33.772128121798346,-44.61813524363523,-56.9916539435779,-26.226039658717276,-8.919165577662655,-21.751131729132954,-2.858323607933686,28.14402537928563,22.730483806972483,26.876612979253846,51.13485602311747,33.33627940982609,6.135788937206787,32.6428988154075,62.139252821320575,63.972140154378266,82.92551446188351,88.4086358699374,41.537406996647775,18.383274717423035,50.19969896877092,63.34769871286676,56.00603859257462,65.96001527575672,48.34904840238744,3.2807228414369884,6.9790721470685115,33.597053187733906,17.41380818998708,2.6361861032435887,11.975268269597155,-8.260715754924645,-32.30865046251811,-15.319297968374563,-19.655569391186585,-62.46361140559398,-61.78688673753104,-26.374063901578456,-18.616670444452055,-5.40898897435849,16.434586332751465,-20.398814612459695,-66.86344305934186,-39.3660589527931,-2.066519008009889,-4.153096220470596,11.358920036562429,27.839633871435392,2.425837731383348,0.6644753893691968,32.30042842594346,9.005961383354563,-40.96623283944656,-34.7084396975262,-15.70766883078464,-15.814398278888767,14.155148629715699,37.21724944594353,3.214014655443254,-9.235919703580073,29.664012233855203,39.226224125964016,31.882832502488284,63.46108737867354,81.16414389001491,70.843203224588,103.29707257985834,143.0491831496611,122.2831109718326,100.77119202762829,104.82470728451374,71.65556508337593,39.55936459511295,72.82262072881899,103.42030394415798,95.16116400170046,111.10860909439934,130.74891765795894,108.05400648907596,112.00343135112163,156.95008909372416,149.19424573760492,106.31888267948744,105.85352977545813,106.17420665466764,86.46386830836332,108.57298852166805,131.72999252643731,90.92053555095997,62.26576320485568,81.40445650741931,67.87858886928954,38.39662980396287,54.74637076982877,58.94125072418653,35.073162619685675,60.23713877205057,96.28984495930816,72.19092989208926,58.27553160950595,88.89936750806564,90.1543349482853,80.41543524399816,108.51169243086841,103.74084423144028,52.99382186531772,50.06983388116767,74.0501334523818,55.50305974880304,49.543348637969736,72.7583662882324,47.17911147038036,5.099750071640342,10.905475397907988,-0.04247257011634176,-41.83447136026517,-32.77214665095363,-7.389093843411164,-32.68569296454217,-47.57507810422595,-35.767889978385384,-70.22071879519848,-113.79424572300456,-104.42440292782527,-108.00518124466309,-144.7524750683662,-146.88169474357923,-147.74518125159798,-192.86878495472573,-205.4684708136001,-168.87307016803277,-165.31474593906523,-177.82168069009663,-157.30327265894138,-158.4324891226742,-186.8475599601132,-170.5865322024909,-143.53854214181533,-163.7520548365766,-175.01682847457099,-166.94957571659347,-207.8041713762339,-261.0617718603943,-264.81435624051045,-266.07973637456513,-272.1329099471814,-227.4972777968569,-178.52837220667004,-179.4675988755612,-169.14032719810393,-134.0824368649322,-135.02814584479273,-137.51292408704853,-95.80949405253473,-65.73552821482062,-50.66571524596985,7.484752039031754,67.22260365989355,84.7457545806347,122.14351773723914,187.3467672425254,217.82413674840774,238.3877283786041,282.47000614582043,298.67580720487086,295.3485801904968,336.8014377609593,385.12359910007063,392.3644667038525,407.6562343755304,432.3399430939018,412.0797484260564,386.7626654188119,397.9712321874896,390.3277550855131,363.4136422316725,375.2854119903714,388.70518657415147,363.195146477573,350.52039440858925,346.8810734065573,297.77983243412484,248.0414155066895,243.9439124826877,236.19556527452593,221.46792524016251,241.83690829358392,250.08828727490345,210.4888011502456,184.83299127340848,180.05503973769225,149.0727937712011,128.41774329696867,141.67135791287365,127.4486432016182,93.20828288852098,97.51930705462877,101.22192000993051,67.34611214725491,48.95750604786538,46.35736476170695,15.32577706236615,-2.593931501986439,15.456860546554566,2.070869743885238,-42.15635901116463,-57.186261586875375,-69.01992992505805,-105.07820707848218,-118.36562321006615,-118.38855291642707,-152.18049131946225,-179.31326084170087,-175.80505327378668,-200.13685306188125,-244.651680705406,-252.7673389840279,-252.71577421777477,-270.08626544934486,-266.12349797049126,-262.89564355461494,-306.26692690361256,-342.14258981740966,-333.17703937439944,-334.25600263493135,-346.32716106518893,-328.79315709750273,-323.70080234708206,-354.59462653805633,-361.2090492960991,-345.09496401754006,-354.777371479429,-357.96996955114844,-337.1358881087908,-349.87043672642835,-381.14648487844113,-365.6992726085819,-332.93243020842885,-322.81838308490023,-305.93271900097517,-295.5380819898251,-325.8729308646555,-343.9167395559938,-320.24951101128636,-314.01966724301735,-324.0767555896982,-300.6097044555106,-269.5994578722732,-249.26024811807815,-203.71884181007948,-163.2683919594206,-174.3710898420075,-184.37590906749864,-155.71313692311736,-133.31073815228206,-121.43680825112726,-96.35339806015224,-95.47004680453263,-120.76372884560004,-104.18237972523409,-55.62949318022913,-38.039276655330056,-30.558999207579475,-8.402624206817112,-6.447543596556921,-2.857111800348555,45.14174874052598,85.49315174150925,86.81406693436138,106.1693592304498,141.85981430221588,147.279090624852,155.5844888778642,186.05785049749974,188.2288341416991,181.23885040571162,220.41882578746694,261.2854075116451,263.6401435790979,271.8069274061247,282.7914366071288,260.0596329901788,253.50588329353957,292.47875811666705,309.022235102314,295.0668258926714,306.5058644585665,317.5090074433127,303.0170282247784,318.44255444253037,352.1705084711486,338.9995488384387,318.7919789876977,336.87439251477906,336.53560547836565,311.13371326007643,315.6008070476631,314.4780712524539,275.8661283641017,264.8540264280384,274.89215458783116,231.4324386388576,174.9873170825307,162.06086435957474,139.49640107330657,103.05485475910211,109.49576411817824,108.53984002052266,52.808653522564114,19.172853805092707,20.52505245572878,-18.831991227725222,-69.11302447252454,-83.41982001426612,-122.96180372748219,-181.2258088249639,-172.52052278858076,-137.89590620185237,-149.47483178859696,-156.79972796233557,-149.85055084817787,-187.49163809982426,-215.3772163558914,-176.05272546205367,-152.2560463203411,-170.52620638259842,-158.41492652821304,-149.60102203581704,-195.45682834522964,-218.4540302348245,-199.8800990493984,-215.33130592620975,-228.63209047709304,-192.29789167827468,-192.38097676235571,-244.56036392921848,-253.56154117609069,-238.01686573396964,-256.7564882828025,-252.52094433140957,-222.3101319369867,-248.41269187435313,-287.5739855249412,-268.20795110465497,-256.3648036082143,-274.9769687931314,-255.42150864549404,-233.57988981805045,-260.39974874304573,-259.3888715549592,-217.21156215931012,-219.69363048109028,-232.99179130366207,-192.01396295932906,-161.85252129678787,-158.62589951364322,-114.9500677010553,-80.09965050807858,-108.72780267202998,-107.60888935333733,-47.062517706115386,-21.692525364677,-26.345056260676436,-4.067340002392331,6.034310499130929,10.566174061410777,79.99903668216314,154.54624954355154,152.35508739078858,145.89865579560612,179.690070692858,190.5271281607851,191.4622607907146,217.31367604645826,210.14682802368,185.7058441700977,233.15818517992426,300.32160173098407,301.1920090568379,290.1150739932789,295.4697272865171,269.69190560679766,259.74423693190147,306.6973081578743,321.7802668000619,288.4449239411863,294.86141968574907,315.74184957962166,290.782807243778,279.9058565491914,296.87936361593995,271.18894433123563,242.34126078151667,264.92387766350237,261.14382547536945,213.7171711252687,208.85767868353386,222.50740045184125,195.9163944827672,185.9378526611976,200.84934441083027,167.44549164311601,122.20067493411943,120.01804300378961,93.9679175135888,37.98597020614354,38.67238035898514,65.74293728471352,54.34978039254737,53.655564793162064,65.7567895697523,25.79152324514882,-12.52318601788259,12.756662639254168,27.689017806979045,8.215407536499347,21.264187211383984,35.46562134930792,7.833403965019386,9.662546867938158,43.21479923643126,22.899295560843424,-19.260704419872482,-22.81935910428953,-38.75627366929024,-65.90132557692363,-36.11121104169801,-0.3061621434086952,-21.953607581351548,-39.64383982890068,-39.67353423624354,-77.8773495948819,-107.31486922341236,-81.71138974104846,-69.6578590787806,-83.70545441751686,-67.58233630343925,-58.44185613981155,-89.55598879889486,-92.08471810871484,-62.5125554824005,-66.77242331507878,-73.77350326032406,-47.677129817655626,-46.81206332992383,-67.61217367935834,-48.09596449375695,-26.760676136418688,-42.2668785207414,-35.66778003226122,-7.807281638620914,-18.39053766744146,-29.094586095792046,0.3463463580723438,10.717330425000924,-5.500326715805513,5.289885220356951,10.553295926289985,-18.33175733884406,-15.130749388000316,24.789545135873873,37.80890104157484,47.48683120069504,83.39465370164959,89.63486387467364,68.52870962100228,81.42008189022152,99.48865183331382,87.28662903541766,92.45544611893114,106.99747831093318,77.39784523928384,49.93466398640022,66.39724849541086,69.42126537341987,51.914501719467914,60.08127968328535,60.865200378831005,33.84839395079585,39.47986996522052,66.55295681060835,47.82356315166804,13.536632687758518,4.842205135275218,-15.039134691189313,-33.8789055525514,-3.1795518921277814,27.974908769854594,12.361834475327704,-0.2402497094751097,-4.584115150883445,-45.9241752153458,-79.95818702673715,-65.69055743578228,-60.80659975519224,-74.48653037956028,-58.47730912398515,-49.14699934128163,-77.53081060904088,-81.30530140026522,-60.57863421339041,-79.52634520741603,-107.9166993238595,-106.82837037202547,-122.20701195433227,-143.05678919945174,-114.17421496606171,-88.01742817847375,-115.18790219989143,-135.39348215827448,-134.3652829685532,-158.68777370173063,-167.88174709153384,-134.6662109112981,-136.0407102251706,-170.6459580902595,-157.86626042821268,-129.1543261832707,-136.67627366949685,-134.04677360264145,-125.99573030684734,-163.91847240424153,-188.35483159572377,-150.56590106300786,-126.69115310511678,-139.71883257809225,-134.43298731344393,-137.0265044262486,-168.24122318368748,-155.23717266176277,-105.14411704713015,-100.91605114486175,-115.9675570235384,-106.71263617219438,-124.76062291877312,-158.64666783438327,-136.27363869349182,-97.50239396692498,-93.07540665618252,-72.8673923335795,-44.310774380740625,-70.33102488763498,-98.82698620411341,-70.36840367739156,-45.71356387926326,-46.281469383303346,-23.767919107231563,-12.429428166688343,-42.73056852498514,-42.24150720453081,-5.658402721694371,-7.388244985762919,-17.898408017889924,10.97089140603264,22.821403456424505,12.36020167273972,39.44235786760288,62.81758616797626,40.020253709875405,40.71603573108833,72.97754212611054,66.80219975883965,52.22078533122628,69.02964853505217,56.93906127952711,24.397487975796484,48.28570713713545,84.64832380639957,72.10337773610884,66.83756795736761,78.01092964762614,47.89400543880164,22.835717715378003,50.01337161985586,58.57744259036177,38.5290087041879,57.617614252809936,77.9375228911267,53.83158355862972,51.84075048095495,76.28189567883632,58.2268505752336,37.10932644868257,57.96734792537876,53.540696181123536,20.729341816688795,27.698917869601228,33.42778909057645,-3.2525129233118406,-6.474025354366624,31.76699890314356,37.025586504267295,37.78485310804077,69.36988984237284,62.575471127900144,21.87464922701656,29.098150642837332,51.82319060848611,38.760082561529714,44.48252582997391,68.97602703199144,48.27431169460871,25.019002404993376,44.79859846001788,41.96674031188065,13.639402549155122,29.189984139378836,49.27214759776302,23.58519330032652,10.953367526484177,15.319297236623422,-22.489830855654034,-55.86133607508339,-39.71907087338346,-40.9180147942057,-62.01866707612465,-34.31143319656221,3.8971991739545704,4.265969637418293,21.69720829322088,53.86107476977361,39.14364860834772,-23.08622968851648,-3.7290133823702405,-15.564435981379155,-45.89680359341821,-7.9932248552552245,23.618366574430617,-5.90433504729851,1.8522924878132017,37.851845823761565,10.153185917251697,-13.515497923002364,19.513171428513203,13.120894584718544,-21.805723704378458,5.382479876623865,26.796114122848035,-6.641031133855691,5.571805881132269,52.748710851538156,36.73376600994556,17.399149603335495,45.136992759229216,29.262367317230996,-11.388265509081062,16.126104487601538,39.79563955325405,7.430175238725532,18.41350866925479,61.77818822739041,42.9423467407235,23.151325500367264,46.34196164332032,18.65774847585941,-32.593950026268715,-4.744247555365858,30.1678973853585,12.751707652211874,32.51404971718899,69.74088975339906,32.74043786788062,-0.5390777641437863,28.270036136568002,21.668010998503128,-11.998972514570157,15.454921617193108,36.436063872200364,8.221657281036727,33.53657315211747,90.99919149384438,73.24253195772042,43.80033722382835,61.12455023923481,41.024669170074745,4.618322978832159,40.089072699381916,68.89506368266244,35.408272419440536,38.65003410802273,70.16667977840044,41.030214866042115,21.60835645645733,62.36950202657445,60.642378878830485,21.55967039961456,37.352973762630754,50.13561928140652,20.60417766796897,45.54200539407982,98.22394298018017,72.32415768090607,35.576344918399144,50.995111746256626,36.10751957036347,6.49659442354662,41.94753852677801,63.8487623573621,25.22891452515925,31.20034129800664,71.1448008259659,48.311919071054476,24.93247686733841,50.546557613354366,33.38602644395858,-6.402447102013991,24.07085037980481,49.653732315583945,17.080116954527707,26.665315758267667,64.52357613752189,35.721466347375696,11.760919831415217,46.01959598403139,39.17138071231588,1.4544472441069622,22.07952346026517,32.3595632147474,-7.973869865890965,9.02287948692078,64.84309032302193,51.49831161547901,27.508381646112642,45.441086522219074,21.299925598071113,-19.653818502835648,11.872506366206956,37.434759184133206,4.926061896701375,15.214792358094646,54.85963435706889,26.414333737784524,-4.980255079229932,15.133518037857193,-2.1617013904999745,-37.81857490212627,-1.4257920753403397,28.742111608786324,-4.039874623747654,1.9083409215514724,38.48596441757278,11.704417780558398,-12.654813915968479,16.14875976118511,3.238201835066741,-35.435780439098345,-7.141516272356551,16.261044835940375,-18.529094093347076,-12.147784209112242,25.49009322859144,1.5024991258811387,-18.333419474552862,12.4391636732925,-5.117271894473468,-50.886219694190075,-24.061124616521248,5.755083698306156,-18.72444536180132,-5.919490988490544,28.72571562090657,-3.1597948126226107,-27.113424436174146,6.386732208493683,-4.923025579021502,-47.87108051654271,-24.03609760152502,2.650780095260404,-21.607817691621058,-8.158637845143048,24.623620978391145,-11.306006370027117,-38.85704902929519,-5.02076463563596,-9.421626391230124,-42.295882304165126,-16.257810477354354,0.31507179824675946,-35.77735355255871,-24.579753894008697,18.086618059181845,0.2417708348557852,-12.714130430023424,19.902341113295357,-0.2142306574598969,-50.154075929665446,-30.780153626735597,-7.0471353484729145,-29.036705980832643,-9.64773812660816,29.61634107642488,1.1685766278144953,-23.05641051885568,6.624324265910833,-2.9371716796428142,-40.17182211299574,-19.682458692192462,-3.301000043505806,-32.12365508634248,-16.818386942809667,21.9567766829864,-4.919547620660694,-34.54530440189227,-21.068292384027615,-44.29245384637181,-79.03540020584167,-43.2830966170407,-7.822300852660458,-20.93558411018556,-2.298839840204968,28.449320771980226,-3.4320640626500243,-26.193324544148258,3.227764150820793,-1.848851817419308,-26.622270093030796,3.791224933993348,24.440566213925738,-1.9208465644793318,11.26977527331649,46.118564921518725,23.22921058233134,4.344245403318411,28.767862272365576,14.480465502498712,-21.264322173731966,-3.7583335542654535,6.129840701122935,-24.246978489330154,-7.955862564811191,36.09749021752568,22.461270114840488,1.8916802678839302,14.372227937707194,-7.345106048648518,-36.43254682361615,-2.366983559282069,21.316237653982515,-12.05627914626643,-17.9687703382571,1.1357425735069118,-19.307983799698132,-25.97199883196382,2.490252898716884,-19.14980177580483,-65.06633299001103,-50.56392675911755,-28.020525242228466,-36.58458264598694,-12.062067270381313,18.020977098536818,-14.618772069096979,-41.966979022843425,-20.476296798557833,-22.60186348458639,-35.716274307273444,-0.025365254395506298,20.16375451650291,-9.150256698798803,-7.176178082815532,16.656165878153928,-0.9128220476519839,-4.779757727974305,28.327931924460536,13.877147972534779,-30.426121495350202,-25.103930546694457,-13.479051291428899,-23.605005009866147,10.026678364847271,52.7408466180992,27.340371967647307,-1.4984847797447491,12.096508634218623,-0.7134130923015487,-21.993117600278698,12.000510888617573,36.021588886048875,14.74934705743817,25.75266428117742,52.53850044638407,30.599162085007528,22.005248326945775,54.94343868107101,43.644364354043205,2.380651342768301,7.276433763170425,14.716944403646954,0.45736595810671865,32.49046671560458,75.13802362282364,50.1760972082465,21.92202740220748,36.499716562371724,27.55030831158242,11.554477074300857,44.628159924919416,60.40696018492051,30.636882651872128,37.53392334161372,63.87984327851312,39.34607593571292,19.383631174279486,34.54322451004338,12.981954924501048,-18.64994047433031,6.940265525200475,21.90579779797877,-7.93705115715419,-3.0682819004955375,19.341385930918808,-4.511637033696834,-13.402732773131387,17.084287849559722,4.209747312660216,-29.063169299687708,-10.015895362212017,1.0100998489349902,-26.53466163484047,-12.758690082638314,19.700551200602046,-2.3339874576396866,-18.754576328507852,2.0098357981172263,-17.006710359177244,-50.012603688939,-24.650537297648242,-3.8126458505199627,-20.44596524234845,0.5399850915977886,31.755249346609524,-0.5012297897314468,-33.462244896014106,-27.835332858101097,-51.105724427158705,-77.50630973739602,-44.95953282453226,-26.768282728278294,-57.29013979910564,-50.47017231696165,-19.387022587537018,-33.428518082096474,-38.32629870384559,-9.808207241802364,-25.2581555824698,-55.49414343559261,-25.327625257661904,2.9350852296587275,-8.468351684105594,10.267292317493782,34.61713090812063,-1.0226505006515296,-29.52352137605855,-13.205014130417542,-23.59830698376234,-39.802325963140724,-3.593555227500195,13.60639528607454,-18.45143772330141,-15.960118379080205,7.887036956937044,-7.1806097769941015,-5.599232710533679,26.6507648708781,8.417468150578175,-28.191924722475466,-7.921666449664636,9.642313015300212,-7.275922694875247,10.732825443970905,37.91978515905802,12.86984861749374,-0.005045592259177667,24.279590775585085,6.597343267506108,-27.361503353466848,-6.223759063266668,11.311943064445787,-6.078446319412761,9.946469859960063,32.2467338753265,-0.36628517042181485,-20.170210036977245,4.3301987239434965,-0.10639862701537961,-14.747777454325451,13.403769435892269,18.94006375044036,-16.864350288078466,-8.70475453073751,24.78634946222111,14.886095325855251,7.694435582995922,19.935701768806744,-10.180950600622635,-37.24958006292592,4.786637804902355,38.185878258098924,18.7697120774023,14.853954228520566,16.27986306480203,-15.284648983145164,-10.68804513109251,36.186284540386836,29.79901670635784,-7.352281734919854,-3.5354825848849583,-8.032272805178431,-35.34981589437546,-14.423917033729044,18.70013685597273,-1.0309694652462582,-10.183059452835348,13.850629554786199,-4.223739936493994,-36.87627719121437,-19.19992861957315,-8.287063293354796,-23.558969251548895,4.471642248501171,37.946208794587335,9.949374544119776,-11.314007151911714,9.097404114550157,5.3033433258849545,-1.425205147740031,34.207973799350945,38.42750439752945,-9.140109490953364,-20.031002734573022,-5.394759430893471,-24.999564771755587,-29.176762445203746,-5.101035882451834,-27.776305780789546,-66.636966901214,-51.692006724769726,-37.543861425794084,-50.422802848538716,-26.20385592301312,4.021814217558941,-19.299716585251616,-31.90142647587571,-8.092866363938962,-18.300184579962608,-37.861799182382654,-10.748059490933164,0.412105961614467,-25.625316918191,-13.84577640811932,11.64697993937827,-10.101288534791989,-18.49210824642879,9.079552283851559,-2.220280424027214,-26.432915905790587,-2.0783124472391084,7.904963050424907,-19.352040362072117,-7.154645091102683,20.633240928577425,0.7878420532358348,-9.419282824428741,12.86604218557999,-0.8296602702571665,-21.51095418934448,7.1235176413411345,15.427566780045826,-21.31251359595122,-20.231009466206828,4.439415232757961,-6.857609734830483,-3.0099796538107997,24.79719654243077,-0.5399613291385652,-38.43559975702702,-13.393554838741098,10.496209711736192,0.79675623906701,24.204739351908803,50.79882729488515,25.303987650502933,19.42675085729863,53.52068129501422,43.73771548157241,14.707872963371585,32.484061812234515,39.133435282969586,15.293368271674474,35.29056025861338,64.7403566335027,35.76739325928999,17.317460597202825,40.404094419481396,27.711225696892733,1.5701438159201615,23.964516641507814,32.596598305023264,6.195187136815914,21.75310117904531,47.40162052903691,12.974462627272954,-15.108129194661286,-1.080758714860675,-15.413842692199573,-35.831908792269274,-7.791125242802021,-2.8049002318448615,-41.55273653026838,-33.62280052424928,3.063518052168874,0.7748223180739071,9.769304117807787,40.71256021986809,15.75015818512178,-25.8956972561025,-7.725372355560662,8.202406530616358,-8.905633991876268,8.961640883633867,30.860227117094535,-1.7682239745621935,-18.760870369227074,3.6267158173962404,-12.254716652458486,-38.11891026916625,-10.462821116199448,4.538199679345189,-21.524447887475795,-15.67510680629801,1.8472719894213263,-19.004111646977265,-11.212246052366096,38.00561342591397,35.80827197992669,-3.031793330615047,-10.263511040025149,-23.514568415643353,-43.12972358785562,1.4140651965121656,57.93903606563422,43.572130173461005,16.435119826503666,11.080055468045503,-26.334522910612414,-56.599356741984174,-23.09301863813552,2.193983311850939,-6.7426029672577705,21.20390546098807,51.594598330096176,18.74525471834838,-9.899652496713156,0.5232121574478334,-11.827442796768127,-18.430142790060597,29.033306871912863,52.24220418361166,22.573839000850842,20.568116409901474,33.95837803948428,12.600184251451765,15.719744343704312,54.44534070537622,46.001587796850686,14.182641521047943,24.083185791147393,24.485002830602856,2.026902064768775,27.15578977653714,61.442995977145195,37.65302574429782,19.419159194425212,33.17316305779927,10.712429081790084,-15.527652233981113,13.521477452826305,27.948207529460106,3.457121588744613,14.906307959225105,31.319346854671405,-7.2531840401486996,-27.48655770441661,-1.2994214414481249,-8.997993266728656,-30.78246951428365,-8.959457306782838,-7.476970412058135,-42.656012216416485,-27.04918244724436,15.64424526326718,12.412280661184093,14.694398535520202,40.08782114516819,14.088870043425496,-27.046294634246017,-11.746989985107575,-1.4708683420960624,-20.64693644551288,1.85622335973334,33.33260249205761,11.003107910986287,-3.25321059774145,9.685781166608571,-19.532911585753972,-53.37443989129925,-30.049295305743758,-18.109678757383158,-42.16952419848293,-28.82742148360303,-5.27193532762163,-28.512445417946285,-34.586339351970736,-5.647795155000713,-17.84855541788962,-44.271895813528516,-25.269948941447623,-19.309977540911284,-42.36398393492942,-21.102433574413002,12.852097615311523,-6.238659380757873,-22.38352815342706,-12.398453733374016,-36.25306789858138,-58.29373960725654,-27.469747926344194,-15.759787043217438,-42.867303771069075,-32.32141220320078,-8.756796479716268,-25.543843494955837,-21.765234454284844,13.371962805043646,4.16636565101244,-18.876916056762564,0.05376363300481479,0.5421191142222015,-26.26766746654476,-4.583655837209658,31.20467480250869,18.05638930593171,11.007062581033663,25.638663450153476,0.9156739655434372,-24.21477455453585,4.7395551304222145,22.944773364906293,10.512772511778893,33.04217924260622,62.413494651927515,49.4236486146458,54.042252304751614,86.9787317821666,77.95929240523829,60.114688546063924,88.87889114096811,101.69287757049749,79.73245414028602,87.9655198351206,96.07877846879887,56.27627623857909,33.942488573280045,43.95774935627351,16.991130467856223,-13.988173339200465,6.4823757833857005,12.618834029187926,-18.163000431009664,-17.481096190079807,-8.909469663165108,-34.78552351857647,-27.01366674048549,22.721211066962145,32.73455936395527,25.427805409061804,50.19145592710625,48.95918195721866,15.520667471213276,21.182548910562378,31.11722115086718,-7.989187180794129,-32.072274664171985,-28.185202501937326,-67.24763015834927,-113.2325988333877,-107.36186648473694,-109.29902012674349,-129.3083581782306,-99.81136889542034,-69.2330122069866,-102.80461121893632,-126.33338864958444,-109.09346045020735,-120.09624831680111,-131.462203664765,-95.17357192260201,-87.36271947055259,-124.11229820226008,-116.70024181538795,-87.25141667779685,-96.30337600989859,-83.57061899560897,-39.6392808509885,-51.641902318299515,-88.91679508571794,-76.70125358587035,-66.84303082038011,-75.05045636883992,-30.419412739139492,21.786829762686857,7.305270184017301,-6.009377804333192,12.987382105853904,-3.8075849851481216,-23.139285984296578,12.550596451656197,29.584275876606966,3.105465444336586,12.443759317123828,32.76013778406826,6.009365572302196,0.001193348632322122,33.041015766530165,22.635177974195976,-2.069538457625802,22.814364959783845,30.892712879681063,4.608249610556097,26.824814445064067,63.855825113704064,46.149169718554305,38.011195165901356,57.90783016214332,27.72126018475612,-13.102009227878117,6.839308784681071,20.981821786766098,6.747649478950998,39.20352418672929,78.44834915720011,55.218758342676594,39.68277020941852,58.20739220735314,36.54539089431074,7.980997628502731,34.62901606388986,48.086893411473056,27.868483523243107,51.472150115032385,83.5640005331173,55.81903716414723,35.16487321883463,48.88757263448353,27.409035714940636,6.66922568012059,45.57155503250439,66.3701394851058,40.34003564594319,46.35271942598482,