79.00757803480235,81.24542072757762,100.0383820487377,51.927491258342144,11.53012595934367,27.250905017951155,8.79004313193308,-25.79477985641042,4.989753196432176,26.307879637252693,-7.3484768211646845,-0.8007807005149612,29.69789801751752,-1.324596266269225,-25.586391867830496,0.009027086784005434,-15.48807052804922,-50.474226510820564,-18.318791200647436,8.928590254393805,-17.58913006841623,-7.158093700170424,26.537769052752807,2.2687688377310913,-13.004816083435468,19.759316256044563,5.994088625105716,-32.635870937893216,-4.5944423944661335,22.996442527193985,2.790285654437204,20.857514551437326,54.68000980576054,22.075663065936368,-1.286523706226573,30.535566957119144,23.85883915881738,-4.960255896440449,25.84996308612675,44.01999499848728,6.881275738761969,11.069923583717818,41.044751384094255,10.782655449146873,-12.401604945753071,13.73683810880891,-3.7130047450026993,-43.13067811352659,-14.579905263328001,12.039598812472999,-11.157215101458375,5.337830183851992,39.64080314144338,4.505177778506944,-26.464884610195362,-4.263878041748221,-21.147693389049003,-60.502950720474495,-37.713749529642726,-22.360228227600924,-56.92744368090683,-45.696737658142936,-7.074877913711179,-31.660195733558847,-53.195707593962105,-25.65921178878757,-40.270138333649484,-79.39613724995573,-55.712524178122464,-35.3363472301306,-62.25920413434491,-46.78508158622482,-10.528060530333926,-42.16817816439356,-72.10400671853752,-49.79694194783961,-61.32463339719303,-89.87294268826088,-55.94175736530829,-31.978437180093742,-62.197471039650864,-52.83430234775714,-20.270511898728504,-50.32902220471838,-74.80634625397089,-47.39057825383237,-55.71878428256573,-80.12225520783316,-40.08510158880297,-10.37348571329374,-36.61191680486402,-25.25720224212266,9.971769012379525,-11.152580573359236,-22.290393095958827,12.30100518722537,-0.6173017376052652,-38.22306555820444,-13.550979927856531,7.007294620032953,-16.98020753411591,3.713103112325438,47.27431546845286,30.084081369030297,20.459625865246252,57.80045468614213,49.92553559872625,18.4093961284792,48.66006501584716,71.17728336317978,42.5563922896299,53.95023958706996,87.48575874253511,59.49186667485165,38.05256966870203,64.51219674761612,46.94628686735766,7.569638412457524,32.96820900812728,51.830511063683595,19.24990434288688,25.3070095558675,50.04218795353859,12.579722317551552,-14.460674955844915,9.351578687757087,-9.53581377102576,-47.800306120196296,-18.68804284864794,4.832863062754184,-23.070947397021406,-13.168768778977185,11.978819252354128,-29.078104234263172,-58.38441994695023,-28.946642772752472,-34.98303555425687,-60.942236325393964,-26.050009095114838,-4.153897676483042,-38.6862999487811,-32.72948770038748,-1.0211025434274017,-26.96434657097962,-41.75753029497824,-5.538780139255612,-12.533661610261813,-42.80193830184016,-11.63524525001151,11.161224565919557,-16.835198827954,-3.7214462073138925,31.108430240565873,3.292310034976717,-17.746839296910952,10.025962039861946,-4.433576958570457,-37.67607907104247,-2.1309076454034326,30.962865273355256,13.763832801757776,33.26022672976554,68.1354399354546,36.08553028107133,11.096241116985073,38.43031483924284,25.6147167620651,-9.620540982909684,17.067874388156703,37.85202143407541,9.227829011049906,19.49911057066683,47.96248998226139,11.974147138014407,-15.162358847087638,13.139262639019092,4.374480557078776,-27.494730788112882,-2.3995416399386222,10.596468204153439,-28.049439657232263,-22.822067768008267,10.193464810587717,-13.136415054242585,-26.622179219133038,8.067439630887824,-3.9163314990477147,-42.87850474312042,-21.32446940471518,-5.746681597936721,-36.935426644572665,-23.757410096845472,10.344565588354017,-21.312932533956303,-47.00045130539501,-21.710551665145722,-35.99000945421693,-68.08339356875695,-33.975161581537776,-8.6340438623928,-38.475466052376724,-29.98016642782874,0.18314008800580517,-30.40582514039309,-50.59021965498076,-19.50481347837127,-31.967644436057338,-66.19985012316636,-34.22119491000106,-6.879679961539612,-30.795084344948453,-18.75699736966244,7.972071656543095,-29.150007755361813,-52.223563711932954,-16.11822427728071,-15.296001372802458,-34.9696779487007,3.389232115057279,28.344444091993914,2.057859952506467,20.915215225205976,64.9790257847167,46.65134749352502,31.304964162806783,58.53168418005627,40.00701718824683,3.728854924755076,36.53164245210556,64.24735559134241,40.84146426961702,54.84292512091614,84.29342778783361,49.56798341819125,25.282096125972352,53.86912746587925,45.313163999954014,19.344063382961203,53.00127216745982,71.61993491047366,35.03012167644707,39.028680346382316,67.5558490823173,39.01339198919289,20.062585680892298,46.229597673377064,25.172552735777337,-19.159508615371188,-2.0891518585576083,8.327445836057924,-25.194539519301962,-12.058933265396298,22.301039745428834,-7.3417779877647575,-31.36756317697911,-8.034520408293826,-24.285651569298803,-56.246274274062166,-22.78572422386351,3.3754141019738353,-20.722770707412906,-6.92500089580539,21.660198108306368,-15.514969408327193,-42.09936747713537,-12.89049122732111,-21.12320687444643,-52.9615723797576,-30.88399190011694,-21.361902929185206,-55.319419904787964,-37.254817042882934,6.391986329945356,-14.367347410911568,-31.946914620046734,-3.0487341998183,-13.061967358901928,-38.83782636499202,-2.131896226773641,23.421331219166902,-2.1223357107422753,12.405053160057244,45.36451834373666,16.489008130406503,-1.2058039100406954,31.93399802311409,22.256566361421168,-10.342569474371127,15.465634173816833,29.43109854314471,-5.553769574857586,3.9374421905157213,34.17989440460608,0.9442295547919421,-22.82082952506234,4.609350295996306,-9.082605798468611,-41.35710688816127,-7.7882571764490045,19.146471752462126,-5.665250174408412,6.050442787049583,33.623978616968984,-1.8687860010607231,-25.69443834374482,3.3812210030000287,-9.160230757749693,-44.120300114205534,-16.687607823845205,5.455829802849932,-20.074221961401598,-7.459548162113661,19.125370240175464,-18.333142088224342,-40.407628895423954,-3.3394767592906156,-3.9706592585391736,-28.90532546915643,-0.17879209820440067,13.420226077869934,-21.251937671763148,-8.515657081992321,26.561749904950958,-3.486471171225382,-29.296960010234645,-8.569546568445757,-26.71554960524574,-57.54685361536639,-21.42186245100423,4.746789913979314,-22.89693092305847,-12.533045808741683,18.370815980349054,-7.498358171380369,-18.378587382336423,20.15948200831597,10.744456900424384,-23.685568088718227,4.591357287077734,28.997716888278493,10.521580590382452,34.5620495417339,70.11363588825587,33.53192223960878,2.7090059899031695,24.434885464815704,10.130738554222454,-20.31330600672527,9.815049857296565,27.88497554825675,-2.2498015231648267,12.074711001357528,47.19934733530243,20.128413215668644,0.23395948192393234,26.0949907870665,9.129422096701388,-26.123712144768305,0.9074439602820306,18.16328498811333,-12.23855613117726,1.7846594833950977,35.982835598480676,6.322956734527024,-16.611087976055597,6.079809429221923,-15.254230276430746,-52.394036899984215,-20.78495802907645,3.6692117434624607,-23.456663964224216,-11.84882070210413,18.20069577779909,-11.467981874174635,-28.176141224453108,5.37626341030985,-4.3728052952671135,-35.90665041846511,-7.124913821227109,11.959473473588405,-17.559895856600313,-5.212586258850646,27.697756268518056,2.2346754262729576,-11.392727020832725,21.534676766836547,8.509139452906402,-25.642940732232297,2.4292121490208167,24.067995840606713,3.070701368506505,26.72540527260678,64.47037343117329,33.238977068347396,7.455027303572226,29.44046517547607,14.614778344133558,-11.377246575632189,25.057247745761302,45.44207023494809,12.790500409434513,22.4039783856208,54.13947348747973,27.606208862476823,11.360600787134981,40.637280738025595,24.86257836520365,-10.39753308688656,16.994808416947784,34.60243583753114,3.5180940182911478,15.324813295099089,46.60745604815383,16.16887283958925,-3.945307879674134,24.785661723290417,11.94172050946129,-20.438780461207337,4.44071974353626,14.567089555192887,-22.89992809472393,-13.0247766630418,20.277562839190363,-6.7614987232839106,-26.701251285028157,-2.9487984708907486,-21.31212303125305,-53.564377236664996,-21.0946635463741,0.39351780923011326,-30.456907644411345,-24.288597802046816,0.7991548130375321,-28.963350366614016,-42.46222454083505,-7.107570013671005,-18.381758128670455,-54.36488442297457,-31.71136602396193,-15.883980998761873,-41.68591294878279,-23.675561977223836,9.220599706417199,-21.24581379004109,-40.14146375473493,-10.070102603246745,-22.556253079963803,-54.7955146203778,-27.795968919177767,-10.077616045453382,-33.80210464077248,-11.176988077714274,26.730001885876973,-1.4185425890993422,-21.07431170017755,7.647363388367268,-3.653405081295803,-31.19361326292638,1.2597756665347717,18.54048025127932,-14.438098981645284,-1.731083026804006,34.42631288838344,11.538063044968546,-2.166066579098171,26.70270099601114,6.958754326754221,-31.913240851129117,-4.749107947387445,16.824666919332124,-6.169697283477168,13.918515413641828,50.04283333240692,22.51582157458093,4.20607398671714,31.0678569306655,13.242307288325257,-21.498287382890332,7.8626884729727635,28.46856229882911,3.7312198082385617,21.487213952895146,51.82189663408917,15.30150628564077,-11.752483034453473,9.949728397420477,-6.480123350993136,-35.33924880106486,-3.116184613507322,13.807241965145552,-18.307348633255636,-6.852911706635879,22.889120008813784,-7.632505945677597,-26.726366469248816,-0.45051527534382174,-17.09744105961335,-48.40491443901389,-16.94398660977851,3.379575534689035,-23.020881588306843,-7.65205342774153,22.659907051498138,-10.573547955377002,-33.290671333711295,-6.514467230572713,-17.780771739425642,-42.82084998766722,-6.944064317106081,15.434422500320865,-9.502579190762342,9.610727358034652,46.28397293097615,20.212267007605675,1.6294708145318202,24.827231471499285,3.57979323074389,-30.954180029939973,-0.5072513640404068,19.076192065356523,-8.580574696226464,5.102967337669222,33.95666582765487,3.379691278498594,-11.659572756292073,21.370483551669672,9.451244580069437,-21.872338071102302,6.63690150753148,24.132197811363866,-2.2417562797596595,16.43182980048154,50.768874455370955,21.6678863384682,3.26386718196281,31.07480637819675,15.07669504511219,-18.174445374258905,9.746675806053668,26.060772940607574,-4.153095877680201,8.145685983878964,36.28679894137264,3.5885123139514015,-16.016045961997605,11.068537928875426,-6.180949113923571,-41.54394566042194,-16.563838388530485,-1.9855685163258436,-30.544195580965322,-13.110242449495386,22.44096695266256,-3.2505635184688764,-19.059576651733686,8.323977386971073,-9.765942798945755,-42.755905955740666,-10.736445168476447,11.088405427167421,-14.528780866390434,-0.12384071721765544,28.19358172413453,-2.0385822097052113,-14.843848943332038,20.24192438712079,9.14285578088172,-22.965458952633625,1.3389715243988416,12.390764937721073,-18.069787458344827,1.5145452712998022,40.389825491206444,16.32821840802218,0.0868509204874004,24.07089760986786,0.19762832847939116,-37.77859810822555,-8.688561624721626,11.255956611109406,-14.63936039553164,2.623548332761974,34.975759476875474,5.296395194806832,-11.526101472791785,18.3525406003791,3.621465617437881,-29.094972681096746,-1.6378919195176813,12.828689818581628,-19.880319643700894,-8.768344328661964,22.15870079884191,-3.211742716821581,-14.528764347161006,17.38182029359741,-0.004266614528535939,-38.31019404103241,-15.113743654453305,1.3862303483150886,-22.78857604220267,-2.9742192652411408,29.741763084309984,-3.0440647318454133,-26.991777364248758,-5.60402472552175,-27.026042285431238,-63.67402652185272,-36.2273271783818,-16.676574273720842,-40.54647537721692,-20.320610043015307,15.061313043742206,-12.738414561815533,-28.054019228479046,5.7490253566179526,-1.9316820446641874,-27.10770505271348,4.7035380613796,19.7516410013203,-12.607361907493672,1.308360578897993,34.69917062101381,7.244702587353133,-10.072329780837888,16.440529243681187,-0.11410709461033441,-29.74389063257715,2.7092183873860627,19.995225472110484,-11.708209797648728,0.52112664339524,32.45133090074734,7.869355917257593,-2.0949004553768606,30.21259601646246,12.875608096486486,-22.741185164309428,2.6763531496370447,17.20262562962887,-9.37502935711781,10.391238988437678,43.54088047717519,12.175364464108817,-8.645888493449224,16.228743274535674,1.2896742711723022,-24.059847668587924,12.398139332547427,32.415528284884736,2.8538510653472873,14.552253101625034,40.49249624150908,4.7881746447917575,-18.129590123358735,5.896814647801548,-11.034475354893514,-41.789974954666164,-13.210440814167503,0.6723482085323953,-28.74376017345454,-9.232133680210353,29.040140435270693,3.7723019889349683,-15.685239197362105,5.829594026387948,-13.582482870923458,-40.58871807404137,-1.8511507242508607,20.3816482927728,-10.13404417785575,-0.016086055602036353,27.81554808169704,-0.18293265968088335,-11.031026895185896,23.534805276823043,11.942370307016006,-16.38777731718806,14.910840900462258,32.1225079408589,3.994883005570724,20.13626815202616,51.45610278824436,20.204345843985998,-0.24776405139528945,24.178974794100185,7.1173987359722215,-21.072556810964144,13.27788464949631,31.10072695803095,-1.8336511732398897,6.68630755085157,32.59991105927028,2.030359965600212,-12.684658314917884,16.805120700162767,-0.37007492750794313,-33.94188032131093,-6.358666285645498,9.204623125676411,-18.560555096496792,-1.5452976712419133,28.877938249518337,-3.801445614043761,-23.172281158559507,4.6393653686018475,-9.672059960339666,-38.50403316375796,-9.08905491256418,2.6555421347988704,-30.279143229683534,-12.934064611974005,23.218156713112293,-5.174044655523243,-27.409418939403608,-7.564304562490399,-26.713834114875954,-51.46750700515487,-11.13387924850839,10.24967936094618,-21.458592681450575,-9.867624132258321,24.405188091986492,6.447013689566971,-0.03912138803960108,26.13521552436729,-2.033207353690649,-45.36131499633416,-19.380197480649283,4.640402886194604,-10.064019002186606,16.34348653384086,50.858899288847674,22.00956778992292,7.201982548931213,37.202383723864266,23.54340302430181,-4.867693481705205,23.868758000089905,34.85336287509943,0.38388577633477894,11.264501914597433,37.450424767817175,3.821040576486034,-15.984645001380942,7.548176236225343,-12.386587627128845,-41.939860885207196,-6.800619257572945,13.730562771896581,-13.474790525935132,1.4533667632883542,30.83151223621097,1.8217636552536973,-11.150499708270702,19.605882190794517,2.5240570675389886,-31.536210713078827,-4.422447243794199,11.777162913894728,-13.760068075893853,4.75196517637899,34.21840635975105,-0.3187421714067007,-21.390816091947556,5.441857238814398,-5.897399008077276,-27.3454210032116,8.313233563146941,21.626721811275797,-14.19119675339015,-3.845627913000845,25.873288133231167,-1.3112105489965735,-16.753124785535686,5.531311455714842,-19.258556946117277,-52.31847695482775,-16.54203283383785,8.585451235736452,-12.310328127128587,7.445695801176612,38.60021452599938,7.984105467895091,-10.146779689991089,14.382669104227281,-5.043936671871526,-35.3904706674873,-2.372653614595535,15.765820841752959,-12.861128798051126,3.1739810123869905,36.49536137563141,11.647952090700231,0.44152247178920084,31.236116109704604,14.803685133197643,-17.808141258060875,9.270164977908616,22.57742758652794,-7.190850678038647,9.882004713158722,44.285894972304504,18.21350267267359,1.5705770046497043,24.221392876781888,0.284640927442835,-36.87069255202812,-10.865816140623224,3.796669277099565,-23.51423784818735,-5.851699460948465,24.46513191385192,-5.553765994170707,-19.128320991442347,11.2308428452586,-5.515348733501124,-37.41009818613361,-9.294249142125777,5.040044478829351,-22.676938325898597,-5.842361971265147,22.298194560699017,-11.069488481891302,-27.629207748816658,3.1183080838189436,-10.583366596120902,-40.0963387548197,-9.685464240576486,7.9294251158897335,-16.415298578228104,4.616368246392,37.61144497433331,7.21471444049577,-9.895515828981003,17.30239023851265,0.07013761555076492,-31.337170534877515,-4.089572405516472,8.19211452217763,-19.72622310053412,1.5518373674958017,37.29347571131305,8.890457920995452,-10.57935778279608,11.501104187100445,-8.65556589007545,-37.40487525364933,-1.5371232221413074,18.840309118800743,-9.384654327665803,4.853129650912752,33.51991175325444,1.7891878547319315,-16.18757955090407,10.073441875337494,-7.139846746614875,-37.46690281855279,-7.932432621161224,6.656832213015374,-22.632146434511206,-6.413705047754425,25.53520194198474,-1.285902507592688,-13.149625036811624,18.455088675402518,3.329575396339113,-29.070908299002955,-5.298548676645698,1.416938112383331,-33.54050817430601,-17.515640268011026,18.034131335103005,-5.395150209361743,-18.02127089784442,7.901640113927456,-13.063888548333981,-46.35860075954387,-16.858987671281106,0.5111692499895373,-25.729903390225907,-9.859919953682477,18.688555167250414,-10.303332171081287,-21.53379122586432,12.489901052147935,1.873306644317072,-23.88321825983196,8.319552002955469,25.159593471191172,-0.4848729240755141,19.69972096016222,52.562503775286146,23.4511312547633,7.561609365994618,33.37068955380141,13.518311430245953,-17.81411282471719,13.84581742887622,32.131225302235386,6.332097267585931,23.06991684548797,50.362253100553815,16.35249960910154,-0.6980238354534652,29.371705643507738,16.184596736378005,-11.410073588111455,19.190747937815647,32.673043438175895,0.361641566658804,12.350985108876019,38.15567323988544,3.255948819224635,-15.933662417809925,12.043540171114614,-1.8645427508238424,-29.130722356857095,1.407749614816023,13.943052056438068,-18.811941875296437,-5.019027385283243,26.155059834419273,-1.6198293321990072,-18.271619210524896,4.282558657520825,-18.470889088074664,-51.28387767192563,-19.56479032070157,-0.42862241809390955,-26.281531089813807,-10.708045575882103,16.178919186022526,-15.205776169259158,-28.213526695816718,2.0492457885136055,-15.67698263721588,-49.373936571838314,-24.348653980076747,-11.409056124727469,-35.02225208411633,-9.725250698703087,26.75005974107118,-2.5354099868945,-22.590343321723303,-0.6080064685743789,-18.54929870946115,-42.60244305222801,-3.507091452623097,17.624675605582627,-10.557826932762667,2.358795689463758,29.3478243687592,-0.18189613192096488,-11.282030431969032,22.4119239394122,10.333503403019673,-15.313856038316397,19.58636626622829,36.83353654122088,5.250588652468515,15.249062285214446,38.489198590588195,3.423402303838447,-13.51499276495928,16.002453929602602,1.8008375778416639,-25.766481392841442,5.714507153879264,19.30037580396383,-14.156932142470861,-3.6819192219231223,23.393159905896233,-3.64438965672535,-11.70303023162392,22.41529937738415,7.15869774287529,-25.820989157539557,-1.5199247707020653,7.929113260079555,-23.73191348824863,-8.223843412207867,21.548665689473925,-8.954613232681426,-24.682200390354758,2.5226373752806985,-16.968600520074204,-50.55692660138929,-22.29024454337509,-6.570093630889547,-32.165330601547765,-11.447809767476578,21.468224887766738,-7.938766964221546,-22.92131386959481,5.294595174678259,-12.865718154652994,-45.57262364988963,-17.691785765718393,-1.476893210751516,-23.753365383328973,1.7963899818217648,39.69939778098359,14.278779427234292,1.0376917890941162,29.750696163075474,12.674799695993437,-17.964337149510595,11.293048302129742,25.94584807620958,-0.5000413296963977,19.888508365895547,52.462071914505984,22.099069671463948,3.2317150487889528,24.971229235688416,3.041045677616637,-27.39257538829748,5.7967448041694105,25.358910726943506,1.8227970066816859,22.183348191679368,55.18197114633111,29.28953923677152,17.84902868383554,44.94527125838654,22.408109350057504,-14.938889817569125,7.462230308054668,17.691497579479012,-9.411119876323928,11.484727953295735,44.75590909496434,16.481729371099718,-0.1277452629837006,21.469595876717875,-3.5784131959663856,-39.394659235174906,-12.107888605995965,4.226602543871258,-18.920498258845427,2.447958234452752,34.24108500356124,4.031037084218626,-13.775375959967715,8.76983455535832,-13.764692366777865,-46.209608221860975,-15.317513635215352,0.8791492525364953,-28.565981630495976,-17.250669038250585,4.631229218536128,-29.931565765412646,-42.60306673120235,-9.058654568392472,-22.734550716681383,-52.798853620015485,-23.95564669637027,-8.241413252810183,-31.44603003986622,-6.932747031870052,29.354246444294652,3.043929812786466,-10.659035191200633,15.048145500517201,-7.951322854824307,-46.26835089517906,-24.98523251437633,-14.425930363933803,-37.715473933103446,-7.892103411130897,37.19430995796087,18.428335873569672,6.064388814942353,28.347686290297684,3.5566817934291297,-31.15629148719865,-2.0757766095437837,14.19944763125734,-13.863075683304412,-0.10592290057240206,27.331665864852166,0.30326826164677456,-7.5199526429577235,26.27357735592074,10.174732702187063,-24.312824936531914,-1.04376156704879,11.491626777264855,-12.417745058523016,11.315900219472825,48.16228513399866,25.640984511161488,17.365202712875615,46.78176920541303,24.004750985962936,-14.3740296933392,10.16484917751937,25.686570571226888,4.778693739862863,29.56901910549881,60.35472705416081,24.651570014405973,2.273346257296734,22.46395540997732,-2.3203782547483645,-37.11560231803643,-7.072480218129302,11.29214072815202,-12.518469588211472,7.1997792078163645,36.83996379399941,4.230904121060078,-13.804639896585927,10.369140378151844,-12.723117282553343,-50.416511890784925,-26.094791828350353,-10.88769011828854,-32.97055061092923,-8.488299292487763,26.991376677294767,-0.9666660219865939,-17.80983733502355,5.369850745907865,-16.305398625270936,-47.55955939424029,-15.481952792591557,3.2891587121292933,-20.302558924449986,-0.7784392230987862,28.87165950666491,-0.781542744127357,-13.4295542742499,15.370199661859582,-2.5378214514279076,-32.21568804567041,-1.988203451401958,11.092517652182812,-19.561555612811418,-4.087982963989601,27.872917237908656,5.588566609879583,1.0103202856848568,33.941704419619064,12.43158559186475,-25.974750912097296,-1.175525867392171,13.543422394537346,-12.610862153840584,4.418905259618903,32.96305808105456,3.208685593682466,-10.068855872694328,18.556097426410478,-0.8544939777803435,-36.48221291990115,-11.784302047708604,3.3779554599134642,-18.702669619843597,4.671213877476106,36.886914838480905,5.415326765052834,-11.205063878917855,16.860883949423425,1.3860701627199514,-27.510659594802892,-0.8983608124414353,6.014286802598466,-28.166395772142263,-10.015822343179076,26.922325968690707,4.45883875749773,-6.4401023045254595,20.05178661792465,-3.965773814673538,-42.647742187436506,-17.84488687741052,-2.2465432551287607,-24.69579835622086,-0.7722876422387355,31.95320783114696,-0.9049129766761688,-18.346334768173076,12.49173095781495,1.281587281367111,-24.555244467906576,5.338564186062058,17.095276595308576,-12.025404318793262,8.408177571283488,43.012772191027516,16.817487636424865,5.799307222106169,37.89598124473557,24.51691414157787,-4.725196549725927,19.545854396850473,24.46512992130515,-11.577304745056434,2.1785949026503033,32.911674474083554,6.338052688251256,-4.8613032488672445,24.43923338444866,6.189423754573786,-26.499317027092957,-2.025949983612353,5.367874536128632,-27.80563074179875,-12.686439089316591,16.09512195243581,-15.007804187002806,-31.50046766495703,-6.357497986216849,-24.770367207515203,-53.43179200655604,-25.01710372449333,-16.76629896577816,-50.2972770914356,-33.497269567498435,0.426128498655455,-23.345162940079952,-34.24853217222575,-8.627223459851782,-30.32840109176744,-60.545333323347336,-27.042037073794962,-7.4882988634968966,-29.432861393046835,-7.239975057506761,24.298763125414254,-4.239646486656046,-14.305759641490866,20.57864025570013,11.123275724797043,-12.615876180254224,17.232911018090604,26.52560012209424,-3.3240623479620552,19.822907418350525,58.51993926300037,34.23760967352325,19.663395189834915,43.58267011236206,23.794704912375927,-2.9260641719951526,31.921856156810485,46.43578830328163,13.54332908342738,25.42410929720767,51.690403377514485,19.590457867136692,2.4307147017709307,26.6347568701252,7.871606733378254,-17.413049749118475,21.175590202261176,42.75441705405024,16.186795322932863,28.498100502740712,50.37111930106136,14.995261885467286,-0.5000884104555195,28.577752949630252,11.766558222553618,-21.153562751232585,-0.47844177661992404,1.2033024578726468,-36.366984089205495,-21.783891196814317,10.931081574732344,-13.634750405705825,-24.691388014487337,0.6243167284863915,-23.93991750619122,-60.93356135708777,-36.21118709089862,-22.71156202965895,-45.57266045726127,-21.235440598663555,13.276882622322969,-13.651099950034613,-26.063235965567102,3.713135537062044,-10.438282005225032,-37.8580840687935,-9.130794489471034,3.540201219959152,-22.815602341136525,-1.7961432894170635,30.307380332526495,0.8126999139720112,-13.36425117761404,15.525240876074504,0.8889846642545383,-24.802021653217725,7.2715528014973465,22.405107491294963,-2.164563286404629,19.801281306766143,50.69052354034664,18.475513902091812,1.55442916247058,27.88337826690321,9.825239881184418,-20.130348137379023,8.883381193877582,23.53293877909342,0.22887647786831522,23.500492346854422,54.866126123524,22.381694068535605,5.124879570781463,32.41723351276868,16.113030766519806,-15.454405205985871,5.821878598912525,9.692872706363335,-21.763006207986443,-0.6156290410278924,33.887461094273455,5.065176598749902,-12.687651373535338,10.985259440072236,-6.799125154655709,-35.869357618362294,-11.852766453899031,-9.410792412780493,-46.71907698742971,-30.454268791314888,6.107021281530752,-14.829247295758284,-26.543940591991838,-4.81266363904958,-29.426161672720458,-59.074459725329845,-22.583944579810673,0.026943437208898136,-21.245202774652473,-3.214096110589411,21.02929084685703,-11.958920894929504,-21.69032224316867,13.713649350576404,1.750297268017281,-26.777415052481523,-2.9063592406215832,1.8815466715088092,-29.298814771146805,-8.453149765091581,23.94735146779705,-6.394406206660879,-22.688544614146824,3.1668383780156297,-12.418692707443357,-34.863165284960914,1.8540717073169262,17.4533460621201,-12.503112397145363,3.493626462366578,34.56681449948964,9.325691797328554,-0.43280557429698907,27.068972203023947,5.203157869583398,-28.700972088476075,-1.9077191828810633,9.274400024642548,-21.132648861964995,-5.249586950764291,24.539423000779195,-0.6465432863273612,-7.308134116248499,23.067948330797922,1.3433533899231112,-34.17599681637272,-9.349500715514953,2.713768618336251,-22.022247865788657,-0.1180831868878709,30.89553077992147,1.8292184045564497,-10.242661316069148,17.67530240194256,-2.8596865731245362,-36.351450642921336,-9.954739439398425,4.497130363207675,-16.495900209573268,7.998941673216798,37.3723136691749,1.2647682458291136,-21.504940978737967,-0.7499590301751606,-18.15584536084254,-42.350681940862415,-10.12453421158374,3.2871088476111248,-22.409895274831314,-0.7706227295732138,31.685449974911258,4.829418620431923,-6.1046802889187015,22.315886640824317,4.473619304672484,-24.066770750296385,4.380934604549328,13.140741997317907,-18.13717233288436,1.0377749479554907,34.687209194609856,8.669309481782292,-4.10089575779683,20.31221223510154,-2.4157782729648734,-33.85762658114604,-3.1811741236287947,11.764665244000039,-14.526912442776366,5.136431724714546,37.42449268663384,13.436929838413928,5.889142946232037,34.597257472927325,14.297512179684926,-16.758240533520393,11.035210038245205,20.975395269043798,-11.071316561025931,2.171356146191627,28.791650457357633,0.7285597356672717,-9.829896817972516,17.648467141069915,-2.7846353972214963,-34.72848575732645,-7.092088664948415,5.135857288720115,-22.55849420170688,-3.052880422891519,30.489594746071543,7.9567639822572485,0.46639113626813455,27.438130603408577,3.81495842761373,-30.629937404104503,-3.301081800421155,11.250519935669058,-11.631787138018742,11.084181610833635,42.56871620962789,15.12114984803975,4.33172291982695,30.81147451326481,7.678900582215375,-27.747416162971398,-3.633969472908973,7.068992184217157,-18.054674534530516,5.225837852205023,38.947137434523384,12.990707418935202,2.8526446410504986,30.837988897097038,10.795764548482154,-20.2586499283881,7.460139610908339,18.420568941666687,-10.51212373091018,4.61743304176534,27.88021651877847,-4.548554611092236,-13.94178798847259,18.444658371370764,1.7833137131104806,-30.310716592753877,-8.476141411230245,-2.7392249959297765,-30.389793509088697,-7.524297617948628,24.136866695928216,-7.0036550278674525,-22.68530393547468,3.9359938106086805,-12.12627347508943,-35.925400670392236,-0.5356845139861193,14.810055529208341,-13.774129837229745,1.7365319417460228,27.02164773141996,-5.652780838948782,-18.753645846448386,10.430792784859085,-6.71992411004989,-34.386369555093964,-0.6304155912158329,17.729181298902404,-7.004530463143366,9.717766471647236,34.76793732679503,2.412740236898518,-9.985479873571437,17.541674639284018,-5.52625468349577,-40.40441615055357,-10.273528146959098,11.853612604437028,-2.6446933926241947,20.759800166651658,40.67466641998979,-2.6220756906283285,-20.208188586718748,13.12839765433202,3.4830868483104354,-21.979695858960927,5.326144833830272,18.662078379700986,1.1591948080588157,32.44821027344566,64.87724667900576,24.72857953218964,-4.523618591412314,12.10147930755864,-7.032901812794112,-31.729857211954993,-2.4418739396913445,2.416217329925675,-32.83042121873009,-15.429693987869864,19.225404315796624,-1.1416319229175613,-8.346897115746422,12.734050986294097,-21.17362715949666,-60.86273409075536,-25.366838961140957,11.021901404924876,14.82213374708276,52.40071311581844,74.22395294297661,20.596813379890605,-11.203653868824475,11.365759632889684,-2.7336937296205903,-28.004583484013732,-3.904261154163997,-4.518255500386067,-42.19407828571756,-24.811264260923892,8.137857006616557,-18.134003880005146,-30.0845808359416,-3.638810111818403,-22.058858122183384,-49.12094903611079,-18.35118359256231,-5.463332515514573,-29.711885600947756,-3.568439129123508,34.820070129563675,14.37657518289714,8.80201939250422,37.69239971830484,15.38289111770487,-19.413485577039832,1.1127444377349889,1.506774728135607,-34.156757081506655,-14.690989737620473,22.836346425695915,4.831248940908992,1.020886006873443,29.11330510631285,1.549602752423862,-41.78294241354409,-24.076249927846877,-14.752222819257574,-35.1630692683538,-3.758644765452164,36.730337306174576,15.446563168065698,9.84350839164185,42.58027666612105,27.055261238000877,-3.319818514909816,16.249912540819796,14.626688051038245,-20.14680181793019,-1.2688527879335574,26.838319139951388,-8.767867629053846,-29.31229872342833,-7.583895966901694,-25.60834020805966,-48.05450410176659,-11.942862651607841,8.510787243994526,78.06151173403032,86.55027760078606,77.90473691135023,60.81458274340716,64.80892334825677,64.82145540487177,51.23425575280361,59.92536129213239,79.45320123893833,76.3966280409109,75.4587106941803,90.16946762578026,87.60651301815125,76.71133343683414,85.19001293899684,83.92778924262335,60.15782736241803,52.502436074414504,55.69127238627138,40.790147441523565,35.71183155354813,53.89368069632914,57.34943894859623,50.99406270253101,62.067230145496445,62.28240188245424,40.84809230194599,37.84499369897383,48.10786846343561,41.63503996377497,42.19139947475325,59.099050548806375,54.53739197107073,36.309596832836,35.82261758646675,28.948068904140552,6.399420955467044,6.533238173815066,21.04711459274747,18.26373425181969,21.6286356856073,39.77279458197966,35.80663039335806,20.550732337409144,27.887337496423164,33.41826407675159,22.459886247395296,26.286332054294764,34.92501668366755,20.522062744536612,12.937260579146471,27.166509269417638,27.262068015318263,18.287572068261476,28.283804318280946,32.20129379275638,18.45103641125484,22.130033908860955,35.20135458984063,27.622192828815493,25.070725834018077,39.62964759262325,34.4389366708926,16.93838029691364,19.42212981250566,18.317939790056595,1.1325139325629658,3.0128082436419272,15.709974981889394,7.440654445756698,3.25748517182084,17.34658022947173,14.729316897613723,2.033094099590389,10.342068133052878,14.084270235226809,-3.089964411319145,-7.155879573004647,-3.255778262223151,-18.920586024836183,-26.072008513991484,-10.617683228567678,-9.640422291166304,-18.897457852837274,-10.425054566506912,-9.285465094505598,-26.486711183783466,-25.327531116531723,-12.08848832319566,-17.723769041675943,-19.61978974209623,-5.377740186932575,-8.936867330574087,-21.833057893991352,-12.089998955673408,-5.6186692463770305,-19.561760384801946,-20.588724673723945,-13.850135989634826,-26.58389585619016,-30.15024471378549,-9.69602004681772,-3.8045969090780254,-11.553343529413917,-6.592533534347822,-13.210559608389735,-38.785047349836994,-41.611395551421715,-27.355262445657047,-29.973463953928658,-29.256372320460414,-14.987199302098697,-20.02607845874073,-31.105277209313336,-15.68060738207359,-3.9065190434841677,-15.321093867285219,-16.890026267864677,-13.352265549914016,-28.883726894245292,-31.513215236266092,-6.910383053242864,4.294992650956856,2.514923655264847,12.978073333815317,8.884323675751078,-18.05386861744909,-24.345769767820414,-12.523095931082597,-14.401694526793477,-10.179860746939703,7.812908883336022,2.831370391305973,-13.356092782105593,-3.999537179100362,6.084941583770312,-1.5543837714870037,3.625337998254999,12.6002062237882,-3.427050156388363,-14.137313998402849,-1.7912632908537054,-1.5475411565808952,-9.395194235130383,3.017981504999023,10.148783909500265,-3.1495816274532125,-3.115992151239306,4.13092462922695,-11.450774618304056,-22.47365801334731,-11.304558680390862,-14.09447467945845,-28.370506434260875,-24.82504870094133,-26.762251940428346,-44.43826949192009,-39.36697034909552,-19.371046820059256,-20.194957913235484,-20.71788007040677,-5.355166020097606,-3.81307247992555,-8.465982258154916,6.66765809818133,12.663436306340941,-5.073630072738497,-8.733168768896348,0.6957830798896474,-4.160442552892761,-0.9517713458756312,20.674163615991066,24.54619617570927,16.303773681993555,27.348809411334354,35.420631995774,25.748870579727896,31.191453771937226,45.44315323051797,36.398206005977734,27.395607371491657,35.27745663259083,27.090595293485073,7.057553243787261,3.938472624813078,-5.828450462920537,-34.35194601306194,-45.070184679489905,-41.65388938673836,-52.86447195449782,-54.74980271040298,-34.11330954825061,-25.68961519775641,-23.692052705336177,-0.9118351501439275,12.141149005687605,-2.2403522346606355,-7.9762300234293155,-6.0900420289304495,-19.68059486744375,-20.828608764676304,0.33125393865828023,2.4314387209225368,-12.768591372653603,-14.16113288065278,-20.529356239501894,-40.811718920326086,-38.520028091066386,-20.43939188704377,-20.010476577465745,-16.742229273690608,1.0508053826041737,-0.4256452286462209,-12.193375654379862,-2.5793699880019414,3.3384754622582022,-9.383359321135178,-7.140972852850769,4.353519695980882,-3.206138082880308,-5.403623280844478,9.681650356457851,6.486602572974141,-8.056845172286009,-2.2084515781224447,-0.3220341425690324,-18.582477125855128,-24.442035900189385,-23.079688349210926,-40.84193331542492,-49.46739607763328,-34.38990932778226,-32.962300832122715,-41.798924800613115,-31.059157612053042,-25.042885302225386,-36.7873443204095,-28.577594718648502,-5.204462503450606,0.7086781443956567,11.2745424704418,37.977720953512616,43.2660234124573,34.80636718033901,47.121003257514545,55.92096884536833,44.25322759444077,45.1586226406046,53.53227115779855,41.6307086588157,35.47725562146306,47.68484587181765,41.386316077770715,23.17142919282208,25.299286275903597,24.177876875176036,5.569177865770058,2.741630032643873,10.225236665796121,2.9181891962109585,7.8865691721871585,33.74123546293782,37.47715052827877,21.118749433387833,19.43551356948646,16.317915720543937,0.23561131623869525,2.4502368642823655,13.21132577482907,0.8876378654834989,-6.495347460214174,10.733781134495525,17.039305463636346,11.865219364137724,22.107581118676876,24.912541764755385,8.314768638086566,8.939791816847986,23.43951737987226,20.514910578558506,19.363256606121862,31.713894439131646,23.997808393901657,3.2212442985511442,3.3023387869733667,3.9106297545427635,-11.04396355200863,-10.892339511509693,-0.8515967705159486,-9.132933220042302,-11.73224158869538,4.483213350998552,3.231327950058564,-12.068183033604225,-10.845375518831855,-14.41270519134661,-34.805392675427825,-36.44757644850477,-24.12663931502552,-28.155413655588656,-25.75607671242518,-4.51733065728623,-1.208142352154726,-11.526229058680286,-3.5048473663973687,0.7040793953388527,-13.861255871484666,-12.980074698710336,-0.8622446820622311,-8.396664552215384,-13.486431120285896,-1.3896260257670132,-5.74984219579734,-22.62597541746385,-22.1593101438216,-26.046861926169502,-47.370009191344366,-51.37860737757496,-42.51959238394834,-51.584294724806455,-56.66256668672836,-44.54568787540951,-49.14863592024558,-62.06755454779763,-50.309986198259445,-39.949839086407536,-48.56956738132725,-42.02837416008924,-26.82724013454896,-34.68563373428357,-39.736672009392024,-25.053628433312333,-23.823760230848162,-26.663560265534542,3.231200347004455,42.10949215023896,65.03766874505783,94.2072806264245,118.86980816471538,109.37438002770045,94.86635384315161,96.90698392479429,83.5746634717088,58.299625361610424,52.67445092052593,47.59999615224501,29.066183979953166,27.559886329593652,35.68125879572214,23.72442560421732,18.635009974042276,38.362864682720904,46.926062906463386,44.41477367242259,57.2606352068201,60.27512683564534,40.39197641292752,34.498272302494655,38.83456007746969,23.94001731016497,15.129848107411041,28.939998761425297,30.01005803254415,19.37088314608742,25.18986519056976,23.84664527455932,1.7783521356746128,-1.6916926619249382,12.713944490019198,9.664596050148766,5.175857486465245,13.447082474691841,3.0123761947032195,-17.34769325718998,-10.503751545481995,2.291739214052928,-0.17965392900809363,11.00703499522731,31.18680167013595,27.931525188343706,21.31719213648562,28.53539821924772,18.22206003749249,-5.387545533451964,-9.733098849972018,-17.287522675680727,-47.49821472846465,-65.92711620299801,-70.88033549802522,-90.04450999481864,-100.09120645667207,-86.46761926563036,-88.2366145125872,-106.07875686838082,-107.72658916352468,-111.75314997664705,-130.424397688886,-126.72031284460095,-105.48463061997145,-102.68327291038406,-97.07050225090754,-68.21822423784907,-45.927040932568985,-28.19293849695508,9.319799886004546,35.128994742676774,26.937791943806523,22.1105105025568,27.255058269342115,17.724926307221963,16.363259615962498,37.183722132592834,42.6566066717585,33.12347455146719,39.95647498345111,42.60770838174476,25.443893324948128,21.989822607241162,28.732265280030745,15.664760400566278,7.27551419949198,20.539318392551735,20.214534996538013,7.53774808664293,11.765928900552462,10.65547129672632,-9.758439575071927,-14.276989892535912,-6.1527440540864555,-14.543016632716943,-15.15842133663185,6.4476985664438935,12.885952485874803,4.553526404076926,11.072596272426193,12.841790170396763,-1.5972825387860459,2.176416252049918,17.037448022658033,8.480529190399285,-0.44330963122984546,10.723936360848565,10.656962262758672,1.5463900287979135,11.985851757841006,16.585334944282526,-2.3267942327697853,-8.220333372683742,-0.39115769540714895,-8.069148700007844,-9.589549303319057,8.922561380763508,10.431320010738265,-3.437463867093224,0.7967919409828585,4.933361093075702,-6.836525102171168,-4.141530064740126,7.866493714103036,0.3234892080326732,-1.332883864086303,19.855226911527062,25.800289984158113,13.660212609229285,14.014690947079396,9.792753445202123,-8.906164395100323,-5.0144518563076295,14.415065163645773,11.380536742343121,5.684388181010798,15.912625538824038,11.734124924165467,-1.2498083829835824,7.820245558805247,13.70636173895124,-3.586745946465813,-10.149257141676058,-4.200907359600361,-12.942748354491336,-13.83351666777217,8.488641205159063,16.747992477583278,9.829206917813181,18.60528279553018,22.531992872787185,5.258458437281986,0.7058641553632719,6.878244763871138,-6.774334547322484,-17.3956859424863,-6.418571518322579,-6.827725688644385,-18.202705988499325,-11.691768073154568,-8.92705006378624,-25.500924424728556,-26.605558301221087,-12.683788652350664,-14.549291597052138,-13.702800500878118,4.463735351242052,6.7503081878933076,-4.124760742307648,3.834433976816052,10.364486262018659,-0.5855497526917111,4.876341646409875,23.929549308959622,24.387335989846157,25.54709616033491,41.307840518107355,37.973618265683044,19.59578175779213,18.62804504913085,15.725440894770847,-4.571211015918411,-9.786335916650533,-2.846006974575566,-14.639593662300038,-23.01952486290064,-9.788066989704152,-7.727529816520392,-14.33433895729431,0.3644899903416299,11.456939416829021,0.9920430752754879,4.476760513998898,19.823650114113164,14.936072196657319,11.816801417303923,27.696467499205426,28.746060661965963,16.82705528873516,22.13961080451644,21.847474046815897,-1.915739819659482,-14.198514804834742,-13.052355532864663,-27.047963856962035,-35.59297139714381,-23.200634374436852,-24.998625015823336,-40.56550236550983,-36.761235992962554,-30.707260187768256,-37.67574356243128,-25.26590784953084,0.39411391544831886,2.6303386561611104,0.9305831244925725,14.731302583676893,14.521792961698333,5.639635685195748,18.93722671826729,28.8895023677335,14.896380644146397,10.97663701420118,18.953151407907495,10.309954495138268,5.041020421402658,17.52207145293181,13.44694507997688,-3.0304755442457347,3.0491256851205986,10.512669879044996,-2.40215126864999,-5.35391580066857,1.9477355466009572,-7.785528837546446,-12.17461828605967,3.4634368491537346,2.7840011947280496,-11.695640862726439,-5.274745717465226,2.453762333931186,-8.331186578543155,-7.81909871057372,2.970793939178207,-2.9317820468638134,-2.322959775772924,19.77203159477359,25.6433272102535,14.257961601770262,18.265859717359746,19.950556282038328,2.3256951775896555,-3.5403294775960816,1.1693159197856335,-10.381419431640987,-12.666052655477284,13.674494696223555,34.6216033080654,47.67162929156904,80.52199782529226,115.43071168856295,140.14330597360498,185.80510825963353,239.877707264776,250.80689309660346,219.57142124868818,166.08383195070505,83.58538130188789,2.8144338413193744,-28.008855081330722,-32.78958419131315,-48.94471457038503,-56.97896223705423,-53.34059822492621,-63.227196564646164,-71.27371177108648,-67.6458748275601,-87.78838985881588,-126.11312180029597,-138.28277745975294,-133.58986364612528,-135.9740457839819,-127.36564138181285,-114.04218973029444,-124.56002013318172,-134.14416905456648,-117.89361773644885,-106.04643920350986,-105.81380002624263,-92.23122238440467,-82.59539307851786,-92.41986900770709,-86.9263706519177,-61.2778319674631,-48.534395172495024,-38.16028232377914,-15.226805065131922,-10.943704730183036,-27.090822330149106,-30.86949648169407,-35.78217539869001,-60.79563935570439,-76.60014173490757,-80.26588743631217,-103.9932269450756,-132.5845801111955,-140.52973713906056,-151.170447734633,-168.6729418521009,-167.43688707779364,-167.3461278408404,-190.09093541668182,-201.05448677726383,-186.70280409146864,-174.9270799966755,-158.2421381865795,-123.05857394608287,-100.97465298328153,-98.86728637667375,-85.08553462724726,-69.48099341302645,-70.96397068408972,-57.60841928203875,-19.630840064862753,8.309176172569385,30.384443485806447,64.79489105670132,84.22205859672633,83.42435910938617,97.21157956082749,117.17209153771066,120.36786566243893,133.54445816023772,165.08692829579803,183.00967844608846,197.11902315988476,230.97891574216317,258.65650349452727,270.7732783395761,292.1242691213544,306.6058342135484,294.54794197835525,287.42045648132944,293.01064990094994,281.4256039158124,264.0887794883296,261.07356124406084,247.48208276147133,221.01083991042918,211.51340875682757,203.0132457275415,172.70634240811108,150.1317086960512,143.78225785656846,125.47813561042433,110.24419856684426,119.83396207412896,124.59829879395978,116.89191050470589,126.17155856577048,138.2720725331653,129.5303863819101,125.29337342159266,130.8282851063885,116.20462381769977,95.5613233569589,94.28766186494116,87.2335084257029,66.8488189937622,61.995249129920865,58.63363522547661,33.008679964939475,13.050115610473995,9.596682262799861,-3.875555587374201,-17.13198486010221,-12.48540533165753,-18.69749131481989,-42.8640384331738,-52.561513488508346,-54.829024558037325,-70.81738011803806,-77.4835170801759,-69.9426665489365,-79.03309332754456,-93.97688881102764,-90.34724125458393,-93.49203115605924,-115.04127332183816,-127.03447213924359,-137.21330987132464,-164.39418179606767,-176.78841407886068,-160.32384991950542,-148.9532930567612,-142.30922339931448,-119.9165606950314,-107.21436378708755,-118.08429784384492,-123.35342325458525,-126.26676176311435,-144.83941697921603,-147.69145133257942,-121.23395280077264,-105.65900364301007,-107.31527957776778,-102.92947805414043,-107.97698316253641,-127.06094536400518,-128.67864825740352,-124.27945340599717,-144.99919348104697,-164.94326642919782,-162.11752879115764,-162.11532056790332,-163.41338858235724,-145.77528332656163,-133.31303824192537,-136.61743284782204,-122.55505138885769,-97.20101992841708,-91.37020506347469,-86.42579383974805,-68.68326427958492,-65.16661678340729,-68.5858547801999,-53.07712806295217,-41.60403367193454,-46.78609437572137,-38.96842185548111,-25.790911730953333,-34.60093015758324,-41.3593720536985,-30.19902862218141,-28.761987492831153,-31.337924024815585,-15.651935662373557,-8.226092001892129,-21.16335139349493,-21.510485280369416,-13.33521543669649,-20.789892261151465,-20.521588805220084,-1.0501833148838102,7.6122588923502015,9.912985491538237,27.02521892931332,35.33694643437964,24.66532860561742,25.202205544436517,32.96753579397404,27.60863178790136,33.091581724423364,58.21480408055542,71.25288659391803,76.44263312314708,94.40568446392354,102.27745533336969,93.90144875451357,99.95240988757268,109.5431598352862,97.27011551127559,88.40749183532606,94.89630908193874,89.30614278762866,80.5713910912201,89.46397179415209,88.59565184663916,68.64678667209455,64.16276885574631,72.9352090629299,72.72486155243567,81.80459174186073,100.57243903942685,92.03640619822602,61.758906533907336,35.663900588020866,-4.349400337397322,-62.52782951790747,-103.82140553929054,-127.53932056680284,-149.31340280022545,-145.14640792023215,-112.39309524250913,-91.21117908070136,-82.67151719168152,-65.11783541224295,-58.94625393937695,-70.59817980201868,-66.69902481698564,-52.44185143211004,-53.522000611884756,-49.335823886194135,-30.76443327781921,-28.388655019409136,-33.44125633320874,-15.928758788814438,4.75064426364835,14.064615877995122,35.44641699786777,57.565205551109685,51.52556166687647,40.80817344472035,44.17769268614583,35.555097328760425,17.584599972973052,11.679723166767221,-4.829351567593746,-38.46031190524346,-47.62312234891665,-29.214551166779327,-12.224821732045193,14.041379947004973,51.68908150186459,65.92970840800243,64.27594000961543,79.26956513791477,92.84147338095511,90.87739397846238,102.91589085315923,126.28118259251288,134.9355393473228,148.56857812691104,178.15261211132628,189.2308802067614,182.41920370356524,186.20858481769716,183.44632454771383,162.15744302558588,153.74215577254947,154.27692961800136,134.21603904176212,113.14405334010124,105.52382669436662,81.40094003684399,45.939686930749616,29.262692843777693,12.220783758163762,-19.376496240300703,-35.50585649954387,-41.358006397816595,-66.11263685797284,-87.23784534993823,-87.32989629267323,-95.14859484942923,-105.82106975938704,-92.9812367027996,-81.8009305005159,-89.281911966665,-84.82782669397128,-71.9191708692492,-78.06824751844181,-81.31597435219258,-66.27382562531638,-64.05009236393111,-71.29611805158171,-59.12566154342797,-49.59778911029747,-60.351388008066195,-60.77222393751302,-51.65949983220982,-59.1498831888222,-62.07649658029118,-46.217794143035526,-43.654637850987,-52.03804208362907,-41.55777936238993,-29.573688371623632,-31.257223306027143,-20.653553481310304,-3.4892300586849077,-6.116072536978573,-6.1897816589328585,12.848308074035668,22.83610367950262,25.45785145857699,43.50026501426913,54.74055104258219,46.41006838185989,49.29919562492261,60.811787178470276,56.63483199314619,57.59339712177132,74.40741827033128,76.37332623583363,68.86023041511062,77.78351478040376,80.38798588985472,62.02162433346174,49.76966998431547,36.68703214259557,0.13159498403618386,-29.708677026092726,-32.588655752917525,-36.36017862147572,-39.92459438025736,-24.966482131454956,-18.79929702571294,-32.68444681585189,-30.469813740677974,-12.965423301568956,-6.902093957179424,4.72911720466014,28.58880290502464,31.73912638329168,21.99789938408938,31.26833954656429,41.57927720810718,38.962052842053694,48.02443559704105,57.925204647100095,41.408813822979845,25.307685248964624,29.595332073685636,27.27599994036084,20.408619996206532,30.81236261290263,35.06569729424678,19.9757348265299,15.676122032434833,18.439109933542014,2.7616433968901433,-9.754703234231165,-4.3211688469024185,-8.948713263863507,-19.655887889653098,-11.730694627748584,-8.427542077407255,-25.283599546229453,-31.777293821248648,-29.625181132179055,-43.63082759790236,-50.537176086022264,-36.134532208923765,-34.508909367489565,-44.737088486483856,-37.87222330744176,-33.63739044636692,-48.12965265581752,-51.78890814291208,-47.55561813857518,-62.581061111439155,-73.82554223920994,-63.621055587712306,-62.831789313066935,-71.00399311390719,-61.44604877843402,-54.93936094878546,-68.15447374594459,-72.23080309588215,-69.37671145187127,-84.92847454942023,-95.3765626943616,-84.47534958244044,-84.49063664910204,-94.45783868196384,-85.64319265185914,-77.83720838642208,-88.26858751888993,-88.82007377555391,-82.92078632920833,-96.3893783159631,-103.57634740566229,-86.1056496390677,-76.54849669974362,-75.58664990955783,-56.71741115069791,-40.335857239932885,-41.40424663268178,-29.78901164974502,-8.57119346495162,-5.820668867496731,-1.4852722728244678,18.508738982251895,22.036827341329214,12.378733344596164,21.59907945800599,32.214125870577085,27.34711823079857,32.983569646656726,41.5572848565011,24.296542022821754,7.178010311958115,11.578528757467785,9.149916900301474,1.467632487301005,12.60012503248332,17.866115603845074,2.0472193302792654,-0.8905187008040827,9.4234324810907,5.939915621613563,6.57596663930105,23.241613706011886,26.259519851320945,21.16590393166573,36.395156904697856,49.21490613595577,40.40177856740406,38.24817953974224,43.715154406339444,34.935533541854994,31.55510090711587,40.22192331770052,25.852345965256056,-3.242357035960973,-9.05382394320793,-2.362793604134548,3.956870535652864,29.061709080513726,58.120416882417565,64.09565160459152,72.7662468894325,100.33961148181191,116.06452127286707,119.78831563802444,134.36143357167947,141.7248614233027,134.89912347184014,145.03440049308273,164.28997285815134,163.71975691847746,163.35611685082347,176.2197007594712,174.1033944028086,162.08585990932625,164.04433333313844,157.28733721993152,130.3795587113877,114.74434144482785,105.8994884648371,77.9174794538704,51.99201606408043,41.40470723009629,19.642399767845973,-5.281982442338598,-7.879088206221925,-12.91189205536207,-36.48622477935723,-48.9697149821568,-52.61450274541447,-70.27957942180377,-77.55209290576266,-61.621891864451044,-55.90044266538968,-58.285715729929585,-43.2787548310982,-33.05857923055364,-41.041813539684775,-36.35744622488019,-22.699369590478348,-26.204291813373647,-25.71278002031797,-8.785296748998432,-6.453800120828367,-14.098046588309346,-3.0522854779959308,6.776712231103388,-0.47365087668310846,1.1896138065001538,4.781207496053877,-15.772277168252096,-33.473277455515856,-28.36160793531342,-31.117373147449825,-42.292871973610914,-37.58433359087394,-39.926679018935694,-63.74161728344005,-74.49427494463757,-72.08334719597268,-84.89629603951782,-93.62867116809974,-84.46818553616303,-89.91028527782481,-106.83814534307339,-104.17290981240204,-102.019160020874,-118.51375628245401,-124.16320424336345,-120.70692253482494,-134.9339850308013,-144.50855896664046,-133.41532098610696,-133.09405238791527,-141.34104118523868,-130.52459455721691,-122.78782356536854,-135.61355223588455,-139.93627429671972,-137.48386086167176,-152.319228432132,-162.1457662449215,-154.47736544776464,-157.21297514903043,-156.68393667829346,-122.88315689862279,-87.59115349595965,-76.12149306458656,-64.84056829059355,-55.916103552162966,-59.81042042794604,-40.67145819467011,9.05826118871957,42.83758025972736,56.34391053226939,75.78989659111267,81.51565412241082,62.43059700560646,50.64411253734366,43.73226605931928,20.269584873313676,6.741767724931432,14.916901798174132,9.099739914244667,-9.329785588934893,-13.582862365434845,-22.18558359894878,-45.122171896050126,-52.297922394927745,-49.617423780684575,-63.08274344772365,-72.15717612680953,-67.74217099446676,-83.29458797157315,-113.26079909176627,-124.83422131572004,-119.53103021801974,-77.37728319229524,40.78613396538678,195.09685919047695,312.37598521276897,380.0805661732687,405.87829533487655,397.8417455176939,402.2261776963686,439.56026314277784,454.65770254509465,418.1222264221254,367.8303714849433,317.98680016975436,261.45521530296554,230.0264836415413,239.94006498891986,261.15554880462696,289.06936357049574,327.64356928075705,329.14141992909714,272.662784811211,210.6521085196633,167.11122050134088,121.90317388021239,84.11779447368872,55.62051677938767,7.213418026660303,-44.33074213101105,-62.0636601135148,-69.74558540312904,-87.88215038063764,-86.4427976322061,-67.54759468318359,-61.95888367116898,-56.03999050960793,-41.21512487770964,-47.75754874183132,-64.44797269518037,-53.030847522671394,-32.57513218160148,-28.196466748440898,-18.271107362758805,-7.100583231890768,-21.50860845340383,-35.2731048457497,-26.475862473713498,-28.774135596833478,-45.66166854617785,-45.15945571791245,-37.472595553627045,-30.980025674472166,6.32462792377803,65.41133931359461,104.73532231891286,134.88544232671916,167.55467785902724,167.8803007065495,137.31616225260427,110.95570538811177,78.65456611838886,34.754952524691475,15.493868288040773,17.69727400791632,11.683904676115048,19.428359763850676,56.7870750815971,87.0631722736878,104.23267002771031,132.06696779376514,147.62778033098272,133.9034786175541,123.80495036953732,117.20101326629893,87.2822779482151,60.24650969301314,56.95809863812997,43.60949927516829,17.918942590885237,8.618627097159179,-4.644828130429877,-38.84749987713942,-61.43802669669732,-73.51359403970308,-104.98482729713996,-132.8743875313303,-136.93984795515888,-149.55949811599555,-170.63741130230343,-170.16572378298738,-170.1267403965936,-189.6657123351149,-197.638030297726,-197.06226648953077,-217.97964453798826,-235.2203548969555,-227.54627325658623,-226.79456866940973,-232.0465676980378,-216.04622374828693,-205.36228905181352,-218.8342756518256,-220.63708731917873,-209.61005738701667,-214.46625884178815,-212.21087635530205,-185.89992225208783,-171.85096285754577,-171.19078650649237,-153.61825144736113,-141.72961350013077,-154.66429736985125,-157.35338310195857,-147.72812576691481,-156.07493469825533,-161.50793212128474,-145.61273179797757,-143.2497031875551,-156.1485999151775,-150.7694607170653,-143.18043128638635,-151.78208699069586,-146.429105329672,-129.6884185069747,-135.87037226102066,-145.07263701391207,-133.55526371918668,-130.6784177200412,-138.74787504899456,-128.59024008370525,-120.17017406162553,-132.77019540934583,-134.56257645359113,-126.09534898618494,-138.76727920194617,-149.1567850778084,-132.5982507099519,-120.04648742044448,-116.43212333069067,-96.27934795687182,-82.60813871797009,-94.35794456878341,-95.38719005567883,-82.78903122137082,-89.79678712670166,-95.69901442076308,-75.7732098516862,-61.54082170086521,-59.10878796905173,-41.684919656362524,-30.149970169529073,-41.90557331004693,-37.920106938215845,-14.686229962450408,-13.105835845331312,-22.496756387992555,-19.41318673372868,-25.628507812249275,-32.68828644660734,-6.436935275495023,24.818682018607895,27.97386335971131,30.38326620849923,38.27836840060062,27.13222349499258,20.41405313397974,38.78471174395716,47.388073976709585,42.132201301180594,55.678472043917736,70.17754825332669,63.68333016355909,67.76252262464807,85.63964596724412,85.9562678608865,89.1283281020807,117.80846539742515,136.25293668189903,136.81426870441754,152.3905445398536,165.49079303685141,151.69610220732085,143.85111812071273,150.19903050146945,142.89774367423206,144.7622258335146,178.61099539506324,205.621296402072,215.45336807818762,239.6725710259325,260.28788011604195,252.89107869775376,248.70173495569335,253.72386265706461,238.7702717399993,223.29728268416514,226.46056529678282,212.20645347920015,179.51413979565,169.29472046662195,166.99370898368576,144.97585681071521,128.95287448470103,121.73929893907744,94.38015024637055,68.8827027456937,67.79464611190924,56.78638540370841,33.91897153581412,38.802640210283066,56.400404061018605,58.191853729347606,67.51220338314722,83.2369194424767,73.71883152036493,63.173492263036366,78.79120818194295,87.00356167481488,80.7769030263316,91.69098009538669,99.4468636910951,78.8490032086577,63.31183501345389,58.63688357552888,31.22155005880451,0.5739070273015736,-6.192463988561489,-20.008949151772143,-45.15047700819164,-46.460612388764616,-43.356564344487296,-64.10306519378197,-75.93977174789761,-69.98336482196237,-77.9953597050563,-81.35376221334268,-57.089394433083974,-43.29604509002109,-49.075340529092365,-38.56807822175796,-28.1591492351134,-42.807283661530654,-47.792233313461736,-37.20731384407898,-47.38766427832701,-58.924427115599855,-43.38870219333397,-33.633902719319146,-37.09091194209589,-19.802534554562207,-1.436679770856574,-11.242510872707928,-16.83332821538427,-8.288710130821965,-17.18031852383555,-24.296885651334865,-2.3799799355909013,12.760862357555785,7.269234083153334,13.19665816739249,15.640575525841061,-9.23542352024422,-25.454300497845644,-24.050840783076854,-41.90841377036343,-61.325134856673756,-50.82091793696307,-41.68299600655926,-44.754542402292145,-28.641459805759908,-14.214595648291462,-30.83458509838071,-41.45091528868031,-31.511184668872975,-34.46777628770592,-34.34733173213121,-5.763906925211339,12.335447458367577,6.510061933015098,13.570837077708806,20.271314944861174,1.2195777995578805,-7.661601485515959,3.396862685277731,-3.769510035616948,-14.248654087679116,0.3315403014562577,5.3696473296314275,-8.64645053377284,-1.667562152463792,12.246179921438157,1.6536924198449663,-3.159308626349423,4.960496306621577,-12.025600668909343,-34.44484762616418,-27.95260073096628,-25.40156694989183,-37.299962023149284,-25.36375987787304,-6.109176606637533,-11.88616676799108,-10.802692562293753,5.4424495305017695,-3.0414075177976185,-18.21168836444162,-4.437939211259278,4.8017206377688915,-4.020470229509752,8.036147643152214,25.636603559324353,14.853187457027932,9.371876138366844,20.726321005289023,8.249596923027177,-10.57606413740561,0.5178903668308363,6.256811529497902,-8.895387989111564,-5.950375610949635,1.7443385790673624,-15.714260426047925,-22.26086565207112,-7.624359542457442,-14.528326583168495,-27.59401313922421,-11.99072342703212,-1.892659687311088,-11.05750957410472,-0.19263881259418802,16.474932711160783,6.275760985706729,2.0613744671077727,14.198985963345871,2.2757221546275836,-17.351486787069557,-9.422806555570126,-5.726187308264122,-17.291780107873105,-4.885691687537765,14.87194499218123,6.7981136083562355,2.559227080485123,13.671572260980195,2.709915393655529,-11.750102212882611,4.2776861312776715,15.034261351144888,7.43220669724953,21.290249661886243,40.571456783968294,31.959309234292917,30.35539323472043,48.92338234104961,49.225409552152335,45.29610395466279,66.10405059692967,75.87113165873009,63.35945338401066,69.39147460032518,81.48152817930708,69.08925772962363,64.90734347230679,79.28755435922476,73.60623168177517,62.96623904314258,78.59505245141122,87.63622332920947,79.22873386279308,91.43349059507239,108.97408073052394,99.85223794049757,96.68696376061894,110.60997514114945,102.57489781727749,87.34572447388972,97.53546998361055,100.2915193126097,83.18177772605429,84.4874694193905,90.32041685977501,69.85842750672283,57.02816850352737,62.729814857505225,46.069729132471736,21.956010483994792,25.15409857416181,23.609007664346503,3.7206296446402236,1.2481025695205883,0.4347873825122469,-27.772453521236102,-45.76711662645502,-40.09849560624285,-50.62517535920911,-65.0982644851918,-54.48004551869309,-52.58198462393301,-69.25076367508619,-65.02545512729002,-54.74567439158024,-69.23570718365784,-74.7904711543421,-60.63128530650411,-65.03998029694085,-72.06611597602273,-51.22932294192091,-39.04806353176872,-48.149805608547915,-37.76273226453531,-21.10653418150681,-30.3591576782402,-33.72353389828108,-22.435552142813854,-36.57462333152898,-57.414771217696256,-48.32051969004703,-43.57290877928358,-57.68164200757847,-52.1460275910391,-43.49525425140564,-64.97302412902863,-79.33489703528521,-72.28285490486002,-83.79035959032639,-97.81737672838092,-81.74967115072457,-72.96662673047295,-85.02026368108548,-76.36474630421154,-61.4439112916492,-73.68050216188558,-77.53079048491033,-60.32632817739875,-64.57507557385358,-75.95138198943737,-59.72410378133738,-50.9766421081208,-62.572768754829596,-51.73637984996603,-34.38369766184926,-48.153207816087566,-58.323534472070484,-49.33554593284717,-60.293666946159135,-74.63289786523265,-57.511868451439256,-45.278260390720085,-54.33591067310096,-46.46464842166001,-35.87849253517706,-53.80676563240712,-63.11575857246172,-49.01333710547641,-52.79006253855793,-63.64888684947569,-50.85375395241269,-46.92892775241581,-59.92653767733449,-46.53263219903683,-22.91142999232719,-27.32839514535886,-30.587158496895434,-21.165132440705108,-34.013820066738376,-47.08020164546181,-25.4973812608051,-8.454196896122049,-14.02391044586585,-4.517917290007237,7.041007506796155,-6.693032172091513,-8.030139448290631,11.528167053363482,6.391023392150294,-9.192680430204238,1.1445565733062848,8.034239206379068,2.3869959496211655,21.305915359122974,43.57101969225608,32.99917587551243,23.392561334742627,28.037953164609537,11.149023354348078,-7.208141036372388,8.057299074479289,22.699522602013086,22.27788003920421,40.39064531301887,55.84416888832988,36.462249758856274,22.633980953988072,31.02570446466399,23.113341298837263,14.140049795256168,33.96954023449909,43.66727932345749,30.703070373897454,38.137322924146304,52.99062309091075,42.941878413356605,40.88088653615583,54.88288097801184,42.580977109340864,22.51552326031618,33.20714193495488,41.74200822347956,32.56640546603036,41.2138898704583,50.234125900183294,28.670461231568602,15.836726206836797,25.521946172238554,14.393920593634316,-4.213210715561465,4.701658333368712,8.41052417225757,-5.299941420364274,3.4766487565853232,18.264756851376614,3.027523889882855,-7.644109018509875,2.447079733567792,-5.605136776471429,-16.51694365154668,4.472276773777539,19.846809101352505,11.232719287781833,16.129270043857847,18.581231982157135,-12.99997637155017,-36.82891108491059,-33.9069018988078,-44.12340693627664,-51.55853442425162,-22.342834784691874,1.6381492692595225,-0.2714154399712516,9.720443143637498,14.68616182185825,-16.516722361468474,-37.38906015550227,-25.961254257409035,-27.044899680802654,-33.49954132266033,-13.879634734449743,-4.016580509734845,-15.430236493446486,-1.0572341883313037,22.6778101292876,10.50790821106691,-4.952073121695996,-2.7481604891416715,-19.09650966637223,-33.63206074984937,-7.0872808309485675,17.81587104554095,6.514154579907401,-11.841451081244966,-17.44548783472205,-11.745662071139131,5.885964202808564,35.95629687638952,59.65829730363576,45.69621979861172,18.80463667038239,30.35985154763605,49.659217799220364,32.31147229706677,16.689008234538584,20.0008017845877,3.519433692031553,-13.475628753951584,0.3471390697490673,0.6954397466148752,-23.47639358885656,-18.60634098812556,2.3129481600367745,-5.619357152353564,-12.777344956816314,-3.1285820046201773,-17.211717293496015,-39.2816713490232,-29.6721517149346,-21.650292372763527,-32.52588875171232,-23.441678170596283,-9.955048761544454,-25.913952803706337,-30.410227480692953,-7.011347496189906,-4.036050429289954,-12.247607468060721,4.796972215128124,12.310352386633394,-4.48858935361229,-0.31341512552440776,12.800196281810253,-2.6585582332994875,-11.498823516929503,1.0792141407352789,-10.872766822183847,-32.82662996691521,-22.086623871558846,-10.732340848511683,-15.47699843955016,4.329742159106916,31.14599075353919,23.310946156520384,15.129200504059149,25.612702300221166,15.50496063208725,1.2249980095231283,21.292673118554994,37.33222270637177,28.27783932012987,36.82286687274841,53.411589032269546,44.69251771295078,47.23800563917441,73.32213752815143,73.64004459461928,58.325509151792694,65.0662676787499,62.69779776831807,41.524725124521964,46.75898314286415,62.23954463602398,50.478377028950206,49.88428101028438,76.01545453436445,79.53030088294241,65.04322566881989,62.54680633602476,39.268299615639336,-5.256726381138872,-13.31628407110431,1.1877461670618983,-8.58103319862657,-13.729442062157526,0.4275071954830896,-6.9627521613795365,-19.72187327734184,-3.031687131466536,3.752411184900951,-13.294359317814692,-6.771991993981385,9.09760724332223,-6.490336860264982,-18.86023360965978,-9.911514960423776,-20.790671410102814,-35.64806180620471,-16.1972621866138,-1.1472400570686694,-9.303837751604853,2.5480632214715815,18.535654592478092,0.01960459986254648,-11.67456977236837,4.761595061396665,4.103520225128073,-3.588274639948007,16.609872628793934,26.45742915831675,10.4830780847417,15.332878959443937,26.82014694184801,4.82297417750696,-13.254029105385241,-8.488989284230096,-23.80876999052347,-43.491661549594944,-27.627578710666626,-12.999798052993718,-17.937380382988678,-0.9422159849757268,21.726104479347903,12.03871922484831,7.573779941642494,23.777225429248315,14.539877024147586,-6.201836604281231,1.7919116632862062,5.867330714556118,-6.548042433699297,9.466994363444655,35.83077677026675,27.976921825908875,18.768708107814053,25.592306739443053,9.1887697379855,-9.861152080843283,7.663595030464137,19.25387181569283,3.8517895640886683,7.903719232000636,23.106975965452072,14.059022804375038,14.208904682270374,32.97657804148199,21.251173567346722,-3.349557137348305,5.163849433714623,12.596099366395485,0.2549169090751455,10.903605425038627,27.838860128646587,8.869973710819231,-10.174550379231192,-11.671376018187726,-37.7502454784486,-68.51054181901985,-60.46811138951165,-49.86374603198289,-56.15624418551688,-39.801208587849956,-18.46007896219193,-30.977040687022324,-39.451059283599314,-24.469777206820762,-28.229272483748552,-38.76651417841178,-22.50369550961056,-18.069496652973417,-38.96236898856644,-36.56341130976774,-22.639189954205598,-35.63078080174311,-41.84843544038048,-26.85510092547964,-33.86680600954877,-48.394140112158794,-32.74249716292959,-22.132376286693198,-31.408092870879447,-17.1926013228552,4.313970231150522,-6.782924006566735,-15.340981171324643,-3.997361948717303,-13.278972632916318,-27.932867536310606,-12.760978590465086,-5.189257496673803,-18.165154208748845,-5.90413376294179,14.98561793994294,4.384441863443722,-1.5854877234751363,12.685418656662215,4.475218642392895,-8.656263694986146,10.01381476527063,19.456122178365817,3.643355589400157,9.347837485547373,22.518042088399135,5.422498692651037,-5.117984465799192,4.890036221065294,-9.229862123832083,-29.99694590607009,-16.288350282211862,-3.6106476506139593,-10.060612521301847,2.8401480600527833,16.211796148633574,-5.811833937132425,-20.48612982034904,-7.875049430460382,-12.0850550044029,-21.53168084548879,-2.5280532612809985,7.095766639056842,-5.038858911290791,7.446754283141711,27.315339692686226,13.708519353005398,3.4168177971558547,13.726903720935423,2.8153685590212856,-12.310597594161079,5.46144314102996,16.837502090241813,4.93018566010824,13.556476932675299,28.72898016556664,13.83785774238006,4.796703811922821,16.784434293517496,6.837208708658776,-10.972287690857744,0.2947435306615933,5.976450293397049,-8.322137273893775,-0.4284787979568385,12.98080621683089,-5.739418001580953,-19.110951023483498,-11.053084603221858,-24.155431323207786,-42.34944076213939,-29.25193826461345,-22.726181455210515,-36.55008814924217,-24.343604971337015,-0.9761862345229595,-5.888334836144497,-4.059904352498396,17.11035109789949,10.859970232082961,-6.095956353033168,7.345566997592349,14.529396197230021,-0.4513563330096373,7.699707713611753,24.527561495116302,12.517488556602508,9.032969266980984,27.24458106164285,18.655057300792564,-2.672241327940424,4.047591283181835,5.253907615598109,-11.889400223958301,-1.982034204128884,17.77675743492128,6.1339288097347335,-1.1662216276798585,11.788840611977895,1.4916263589388787,-16.18293813389258,-3.177394529862646,3.9405038410413233,-9.455272309328926,-0.3479047929333907,13.795977328114697,-4.051541655977401,-14.538445258521007,-1.2512117272956793,-7.355742003488451,-19.042095123280472,-3.696647570795135,0.9439201829739025,-14.69025639126682,-3.3379529119418967,17.307496158979706,6.387753459843752,-1.4160378029124456,8.138345670462591,-5.653157436250057,-22.388841684467057,-4.559111573124515,9.268262678380788,5.207290334685289,24.841824463920823,46.99522482326342,32.646362803693144,19.70012639086723,25.45466394698799,14.206285106399227,6.549470848463709,31.565415720447227,43.31992576433406,27.465497275225637,30.208068166632657,39.108254829240536,22.878244380039575,18.49959903201772,34.61787067419271,27.680367791812813,18.05727156052533,40.19594925837482,51.254562048401866,35.823200068634314,37.85963989967242,42.15325187895534,15.876812637088463,-1.7105031108899675,1.7109460669921877,-16.361000003097775,-35.16770692012504,-18.246546361441247,-7.538228737428014,-19.286133423992382,-10.547141188487,2.940859095190948,-10.792276129761037,-12.75342250763291,4.854557079567755,-6.149674586822635,-27.146212832911452,-18.35713733845451,-13.55788856229127,-21.846701089722625,-1.6058529974624616,21.905110660523135,8.386589813886555,-1.4828132196497603,9.646707667987583,1.7442154325943715,-6.012276780570805,18.49550664941302,29.88612289686889,12.536747783217194,13.563476822725573,19.358307931443814,-2.940853389452725,-11.446945342335464,5.7505825130541925,-1.3996997728707372,-18.352794108069848,-7.792760252848925,-6.340889103876023,-23.131170152499074,-9.848310581235307,14.162867698029272,6.830563853472176,4.33672847169373,19.54472064391181,6.87370099246325,-15.127205114708023,-7.054331033190807,-5.865926711639748,-22.29686980275614,-9.355248657729112,13.144463290258857,4.230280979668338,0.5879668660602293,13.902548852123703,0.0851013504875624,-18.624341885306684,-3.9674811938512065,0.4301987688904394,-21.550170491626915,-23.217493853388405,-20.492489016617295,-47.966162130217434,-63.556312196993794,-55.958176014308094,-75.47161587099579,-103.17228071504078,-95.07765196935941,-87.59240015059156,-95.46020415100277,-73.84235986805858,-42.50446854268545,-40.972995035955435,-27.47251046040848,11.792732303224126,24.639451338144475,24.22525563544108,49.036791178322645,62.50871059553998,56.79261212924937,81.63626429918835,112.02844224652517,97.6465225314324,73.89356060770098,58.78308921235579,15.373031819613487,-25.984026509972338,-22.164868460682413,-20.08814694329967,-39.927772292269054,-33.56681809624381,-15.47887413135968,-21.683156975876784,-10.604718124655225,27.690210370313494,39.78578459464996,41.987130938506375,73.4660817420033,93.46637487772897,88.1256294877644,105.02709656995988,126.19721496680438,112.20937645430996,101.44346651850533,104.83157440655658,74.1609712346929,31.05822544609663,21.313588408729053,9.704992553854371,-18.445106537004776,-20.822091373512325,-21.489808954404342,-61.018756171943494,-92.36964044017608,-93.97698327410004,-110.47117823854533,-123.51699135332545,-97.42058867108608,-78.21136447343576,-82.52820136252718,-64.73596270646038,-45.42912905463449,-62.23626335245859,-69.01905271828312,-48.207558114547105,-47.870948154897,-52.20326923930396,-27.205163533662365,-17.97831282080551,-35.288932051576424,-24.58992875763415,-1.9045427405271953,-8.44975406718672,-6.322918876760793,13.605945700694086,-1.3141083713757808,-31.09751481844591,-30.62703628070693,-37.51139382159875,-62.39254792461852,-52.86716023317422,-29.681373215924726,-40.21161562783401,-45.840007167396095,-31.05807514341911,-44.16920758251294,-62.63811267622611,-40.76119832786641,-19.780199924947794,-15.435707565567228,18.25585708057124,52.71594505315468,39.61693103907409,26.848764054683393,40.78971849162369,37.25225184625209,33.49924222408198,62.83382497537658,72.82779938025271,49.12679310090224,51.64444789558284,62.329888640851465,30.489615127273595,-2.97889753572679,-15.225161963868384,-48.381424271174026,-74.15531332834477,-46.39090786323081,-19.39998267667616,-21.669496208599856,-2.394808618336886,19.67057588631078,-1.0650428844129571,-14.493834548797484,3.6397359619525957,1.4345500217574587,-0.8732606683840849,40.67353168676383,71.70615429234061,67.79074713883885,85.3851072640579,105.88182225471809,80.726405756459,61.04009299331447,73.94391397238172,65.90059510961757,54.83806367607281,84.60371632905745,96.9427202963663,66.90470716463611,63.81718564666546,80.88578195031923,67.30312445115997,65.7094322691858,92.38030404569504,82.55094567763219,54.23896736577977,63.1321871270459,60.95152897394806,23.475877220586554,14.482357192433732,21.98919041835707,-4.385658752614692,-17.010291869199612,3.9231551317574134,-6.7526720610569395,-33.34087723324474,-20.506471768474277,-11.212337136420006,-22.92824312797832,7.144297980178889,56.481190215659744,61.838279965538845,65.16614704841146,88.95407986366665,72.59897377890296,36.89888066448661,41.065503441128534,39.01490350370689,7.958666883182882,10.343384119966592,26.370395563741173,-1.5683518032540587,-23.944362428377424,-16.01453424827396,-42.594956933045516,-86.07882665415178,-86.81148817343366,-91.25624549036357,-123.54972541790215,-121.86376579771684,-108.40890423564537,-142.99362785847188,-172.8929343980311,-164.59482414710072,-173.16141500537293,-178.5237804964941,-128.17599176926456,-79.18773084148114,-66.33581802864157,-32.52346441587643,6.966281198096093,0.4570218928543124,-2.4580850628926254,21.511419096298876,12.501171700972487,-5.060450268844815,25.628285231584293,47.75979556708145,29.29127075725328,31.37020492131634,43.27107905031034,25.812161837455296,39.901102956321374,99.37300541781019,117.63430407722177,96.50370501624712,88.50923380781947,51.64702045136718,-23.255866237058907,-61.58902825818068,-79.16580188577996,-129.2807079394791,-154.53054258461134,-128.4138553100304,-126.66148896039041,-154.73210194221252,-180.89188093699784,-262.8725751823969,-400.8040739793304,-488.05103760619414,-511.7169684893464,-519.2666559520918,-472.86012280436796,-377.8773426604773,-323.21457296920045,-294.24157308742264,-230.97698192273646,-183.85471118980368,-173.0923032066047,-129.64451638572615,-75.18649513082607,-66.79789029397655,-46.85306191195902,8.563419451122918,29.509002629559582,38.20268245845934,95.3070725077656,144.797312691327,158.8512376479551,203.6934017589324,257.9555624825835,263.4077942881731,277.73524536002833,326.16682500330046,338.04073689598766,335.7800412106027,379.01734514921145,404.5133378946478,377.126211410317,360.6646724058759,338.1420877309225,264.97039347244055,212.31117723236156,206.76238313570826,168.61909862738509,109.26010890647028,86.57677232936207,52.335207354239174,-6.146561519160031,-12.498447743653477,8.855570413303429,-7.93998103371692,-7.081970381673973,38.7644723215797,59.833157964571974,75.54634975256515,138.17381685632122,180.64805042941197,176.9613378127783,205.63035002757033,252.53650503742784,260.19136760117436,284.70321209333304,346.03108545177565,359.4346498413499,328.37341873320867,305.3639926013796,241.06737752947902,132.47325073086205,77.56628240602461,65.29871609625259,21.864453815389343,-14.2275710407153,-23.60118535250092,-69.0585357420982,-117.59648047651045,-105.84884927826846,-97.29779445614763,-120.37047114941059,-99.59101683157377,-55.37565623459177,-54.705223168021504,-46.61336361304759,-9.962913294467395,-15.392006474740299,-32.633078572505156,2.959818684172234,23.414300223212077,-5.0495569933131765,-7.455678779355587,0.33526681481271314,-34.90566177920643,-47.96393571403511,-19.84799678715131,-35.375988360896436,-75.3432350824347,-75.97230509661686,-92.29269404974346,-140.20953357406532,-138.74274278780794,-13.554232008187034,6.556940533893819,28.255169412238352,7.652357625025663,11.888562641305732,30.893748018491415,0.36995317474085176,-22.663771955136973,1.398250721009667,-3.632894607951406,-29.552459220866883,-4.946245040392483,17.894746001910946,-1.3414139779765595,11.321606578901521,45.24041398258734,27.664108592631354,10.494388918098583,33.615419989956344,24.05769238541351,-4.839584028912533,21.283719883597918,47.96448987104277,29.384588367406195,34.9097656212438,55.382322363196174,26.473760535564143,6.985410900769885,34.566527111805975,29.62345188228562,-0.029253962595950256,15.839866964954172,27.086628172246066,0.8687367928985648,11.61852231609599,42.662402713083864,21.264950682817677,2.1789039893529294,23.986209452192625,13.594682009492221,-13.781918304098525,13.719968862461386,39.49511261460303,22.146421124139344,32.82108881023455,56.63405014008187,26.61488938293465,4.554490343765814,30.255431248062838,26.926418726568507,4.674603813702742,28.95210305157331,41.91283227721054,7.748872771898535,3.7959389921373052,22.140396248449,-0.8903783149386388,-10.661903520759028,22.4581520838039,16.015572552123295,-17.172291762284367,0.30976745265140515,19.976963086960982,5.071572360274948,24.56041801828163,56.91225163133799,30.653282430041173,8.342952467152271,31.924883741758954,25.400184921892347,1.1050296589437636,27.528166699766704,47.871741916702625,26.340651416133916,37.16040547912004,62.07626382435873,28.758583066372076,-2.9411970893370842,10.795467979702648,-0.20439705540430886,-21.630395841474805,11.846772157758648,38.75329238370229,20.16595255213567,31.42241815178217,58.775761090780485,33.928607591361796,15.553743525408406,41.63814980318261,37.761180742144916,16.575278073159172,43.35494612398783,60.17870412588515,33.60197733121823,42.43053646907068,72.7155795808162,52.81611581798667,37.30731239780614,60.727865293882935,47.29951854013248,13.140135360648694,29.819329623326926,44.161693492667965,22.53512029545822,37.353259349155906,70.66146951965824,53.44083749502997,40.38351998890327,64.59943961928053,53.169846969551074,22.443824446612254,40.27025357620254,55.25030207623058,38.23710319884904,57.762216675583005,88.29952648231071,60.98149333199646,36.42186305582441,52.937794299043546,41.63454077528803,18.916840231403555,44.56594810449716,57.9281280347478,29.848895937071728,37.204865486235704,61.785903884009535,32.58005092594023,0.6185532015454509,0.3864992344456315,-30.238823681384055,-66.20239191373291,-42.62625733394959,-22.34921263800031,-46.66809643154839,-48.00302610248208,-36.83761263798124,-68.06956775264564,-84.5450940234292,-60.42449541636638,-72.66622337363296,-107.16435500496621,-98.93420677793482,-98.0442576929467,-130.97254355424005,-127.21191471677912,-105.82143838041262,-130.08528312631694,-145.29820556163256,-123.3808702645041,-134.20513311407052,-156.44902726856128,-126.23076826991382,-99.80887504661607,-107.4223131332847,-82.35547476089647,-46.3833139351301,-59.81893681424325,-66.3779779589855,-40.12514063425375,-50.58051926352252,-77.0245888648842,-57.08258686850053,-42.97721399653324,-60.77838049324223,-43.70928591694347,-14.60426112401999,-36.884443810220624,-56.385584632366516,-42.77176930019586,-57.70684683824151,-78.32397229219967,-50.23367700517022,-35.469676656585975,-62.74626709730494,-60.7358026504849,-41.294287787465706,-58.16674052191732,-61.14659406670491,-33.02845456808342,-45.92093907010598,-78.63828109524971,-65.50009954737843,-53.035783113175356,-65.99957826377285,-41.933851757096235,-7.747705268182939,-29.069314843716285,-51.1086228749127,-38.1264322156665,-48.502849201504645,-62.00121850484327,-26.27897799443917,-3.5163398132110917,-22.046340841928867,-9.997783516022057,17.67316963618226,3.7045273262169776,0.2475531593316722,28.15941778965859,18.506172066547347,-4.321054092643132,22.688777732172305,44.25573962469788,30.78677357191252,46.57123435774082,69.14181375688099,41.488970983121746,25.579796670754952,49.55402760841766,39.544258168194474,11.366936903962175,25.853750505021313,31.098930617198608,2.669872630202512,9.662406545923101,30.82281605153051,4.68999273817397,-11.038016737054308,12.26832680373309,2.06079580426458,-24.86036077790667,-6.902128352827822,3.8888229201540145,-15.188370375593486,5.703712814662611,41.32544036907832,25.99083455841574,16.018276274906274,41.863087802932604,35.948322604624536,18.75669323966971,49.299128480488235,67.49442111655401,46.23489779978523,60.84994228105829,92.55277585002449,74.92576721571491,61.62224535178861,82.3812593566519,69.34001106589292,45.21154713209884,72.97431918339495,91.34291793553915,67.50805880245247,74.52158553903115,96.64110217276655,71.32054222043593,53.69873718127086,73.24533358593695,61.44720000447664,40.1396423190165,70.94042537495514,89.82828996051731,61.51914874713643,60.99115891846692,76.68305571123304,49.3789271854998,37.174817095628185,65.34773570439134,54.28617896152373,23.737417032366032,44.006652803336436,58.429315298913906,35.3709287357228,47.56464193582899,72.54112636469777,43.06590418764344,21.19677177478318,41.30460625469802,29.719621581580995,4.816940896848672,29.862775129326657,44.65643059883683,20.462473231412147,34.28361470150058,65.17477202636533,41.15805436410332,17.939216683225265,31.289089165293266,13.987715902526284,-11.336452876612997,17.419342505892722,33.10391564446628,2.432221069738862,6.295541648051802,31.34967825341511,12.03220542562944,1.592138116934007,22.31131629535578,-2.467791100907858,-47.03220726707729,-37.77013964229315,-26.790548918666104,-42.94832815736245,-19.602698430895824,13.195457960136853,-14.384109118015346,-40.29337567909886,-25.00425279411454,-34.24972236234802,-50.384018735867535,-18.03496500516653,-1.082207019599887,-27.991729517937163,-22.687012001548716,-3.2100982887172336,-33.89740911672,-57.931100736662444,-43.742628104950995,-58.502386917569666,-81.70617212914584,-55.5110160001668,-41.508389539493,-67.759124090901,-59.985661568310874,-35.79039672802172,-57.903045183393395,-72.59917945019158,-54.129586576097005,-70.63832524154064,-96.39324907543644,-68.0133396198629,-46.61182773699392,-65.24607150239339,-57.28335164567416,-42.95183194703838,-75.19448405649037,-87.12623841302765,-51.98861805852393,-48.08418107157875,-62.510231305776074,-39.215415679353974,-30.833378852676535,-52.96703455809205,-32.2478055031028,4.700140026841623,-7.251725033900643,-13.855122881020172,10.132920817514629,-1.8787876077674799,-26.52672714041671,-5.901081540224906,4.38802924231887,-15.876176768904555,3.136886153045804,34.38736809145872,15.110686333577231,2.424603975132699,22.29699406400679,8.157991336739785,-15.130712200366665,10.884349134815935,26.92221306477638,6.986068921096644,19.577455820705953,41.625732182265,14.673155779373614,-1.0148175221581126,20.704051824579995,8.913854538125072,-14.684500443884712,9.343691978836087,23.769741474957414,3.7057990062953756,16.637859702019693,39.167138119415704,15.75999348884382,8.792704306782358,43.81408863656465,46.98049513324487,32.94115710470931,54.98906951732185,59.27425621341368,31.074139817917153,45.55263603084253,79.8115246348499,69.04058546225609,61.803773010578496,79.71248574942263,58.07069930201923,24.90095518956689,42.255439623704696,52.49292474312113,28.196836551089536,36.41863491105886,54.852993372892506,26.437922271915447,10.363002269323136,30.094652069225273,13.360094981125668,-17.40525899695118,-0.800259449271671,8.471250632961663,-11.679678448040162,6.058128364594051,32.50182184790283,5.387663972057506,-15.351188685145067,-1.267274095854054,-17.977204283870698,-41.4979130330859,-15.181419835958868,0.887977044090225,-19.6760222376029,-9.117795968976816,9.981806601453883,-19.386353959159933,-36.271779254743876,-13.73171253991536,-21.481446037857022,-39.05820362737303,-10.727281067727795,3.9189662263652334,-18.71493024281172,-7.966027346744626,13.520943785497764,-11.915024902185875,-24.31702930693565,0.2528993404090123,-9.538552695770925,-32.0114151869421,-11.055990685262099,-5.88745493113809,-36.2898448142856,-27.032109083335314,0.14301217846894865,-16.692454854762484,-25.073362731915868,-4.52348735828069,-21.344564565205943,-45.72096187874139,-17.947137362326124,-1.9504023132831159,-27.347908295708432,-23.04536255264432,-4.1768356573257055,-23.255360158333016,-25.337195683859406,2.72263916715095,-15.834249707816914,-52.99266797602085,-38.98146129997626,-24.574625459450118,-34.926171681440564,-9.648952165152977,17.992281915830382,-12.196934379062343,-35.18968901366513,-19.690910940806287,-31.67189613653211,-48.74864820299091,-17.887312442512066,-1.6250724914499073,-22.011682699171345,-6.973802003824494,19.07110848493682,-3.3762856848884404,-15.763567409861984,6.157750112705342,-5.1533432887207224,-24.827683602694695,2.348171087966012,13.651312827401753,-13.510851910795385,-4.47345076837725,19.934796634444787,0.927491768767494,-5.686550559287183,18.143474778586103,0.25932996217037463,-30.168422411217474,-9.33238569231729,3.1630235048569104,-18.179585798876502,-5.546189524291947,13.827841678492323,-15.02051477998726,-24.538288139378764,8.942446169447896,9.22598844916871,-3.372480895018896,25.39419822261036,33.41423698646141,2.754622563535671,10.366999837391084,31.559841380856707,6.338676151678637,-5.308240920047063,17.434996151583935,2.1548800920024096,-23.87126910827164,0.48854560829419746,14.970824739374144,-5.346850926203633,8.395374578518375,30.401628965755428,2.268473181665893,-13.085801173704292,10.766777168091581,1.587961268561962,-18.973960665728583,7.611689233425974,21.724934625372086,0.6962259943872091,16.475113652264383,43.85710001488746,22.29988451808904,9.654892588361873,28.212631328797844,10.487681253543498,-13.71566453933916,15.705129671033406,35.33645194662935,16.594153985773158,27.515497176495447,45.42731558180512,16.62533070087499,4.854186793721616,30.918811599482144,18.445843797717096,-8.2188556900111,12.97871878429583,23.31708755229707,0.7617130799674303,17.76137683964243,47.61192025035611,27.558012161971423,16.05554541879433,36.285313654158706,18.592227740680897,-7.803332920843886,19.638324300350117,38.59356048427666,19.75847200691493,30.397211267109675,47.08490945668571,13.61877334608392,-8.64950902731602,5.496285429741093,-12.819223598526372,-38.93004618752753,-13.956225889462251,1.3784084477249128,-20.479158912964643,-11.050813049329964,8.561271843025684,-16.594094143232315,-26.838706324229655,-1.2820609237215042,-12.076909731096336,-35.27459462011132,-12.633848660780682,-1.6725902946810698,-23.350767640239855,-9.5677524863126,14.014138432639779,-7.658974429841017,-16.28292978552764,5.651905494201518,-10.86402978872966,-37.29906447055024,-16.789712213767253,-8.436051354398161,-31.721877638409023,-17.61429735732306,7.826971506147952,-11.129833808052044,-17.344735053166417,4.360850178321623,-16.78464591241689,-49.63875628429842,-31.080664269752596,-16.638364491886023,-29.82866519248798,-10.131430640587823,11.790647566123937,-16.928129069365646,-31.62072095420476,-9.566055152170222,-19.515167992091147,-36.79673605293151,-8.564808038760342,5.10397201648882,-15.108057368336938,-2.8405301786280033,14.181064817577203,-15.174062373578428,-26.00069342125188,2.6498743247663157,-0.882142190716035,-15.467023799000993,10.150757817806065,17.790576812565426,-7.705934795727222,6.03846378767936,34.578651232867195,20.208116683995613,16.392694716139435,39.05996488707621,19.707745219214715,-12.287191043720346,3.6205271452324066,13.024514353915311,-2.9908471485163215,20.327025261489784,51.83454217247068,32.248766607293085,18.277744055971738,30.864678582743135,6.867188977973094,-21.640570826414624,2.9720810896473573,19.086872366069617,1.3181514929061642,14.412611778246381,33.17885032434078,4.880145022564349,-10.038235740779236,8.750799941272827,-6.436075666033659,-29.30989071078069,-5.557237430621157,5.171852912056571,-17.995939156148015,-8.285421750754818,9.8254822108958,-15.132739727192341,-24.072022204585355,0.42014927226803067,-9.665954422912328,-28.064398637352824,-2.17471841607359,8.138655039392091,-16.226900322959025,-7.617422048354028,8.715421569171241,-19.08184185876585,-29.490955216944887,-2.4911109203925648,-7.465356529609305,-20.859478149841173,8.040159024463376,17.260033925276538,-10.905665369852619,-2.753108465638885,19.681961851474394,1.144387768232022,-3.4880671150525373,19.625686503686467,0.15410240942959064,-30.690177250255914,-11.109736446162952,1.3647640620448578,-16.14302152161077,1.055192819570621,23.906223589954507,-3.3471622280908253,-18.842365082826053,-2.248194110326768,-23.858139877090252,-54.955771357131596,-35.89833256093303,-25.286270563138793,-43.79858443936246,-24.312471207278655,3.3410841877322763,-17.876931421714993,-26.260761607495986,-1.6337173658708082,-14.294205237454776,-36.005486214532944,-9.53649264724487,4.191911908336707,-14.872834693733704,2.1942518463915093,26.185371952307158,0.6977063126433478,-11.54931246846186,10.22317107291243,-3.571725207865846,-24.50341067268073,3.354528343125903,17.853761268862844,-0.799974705070472,16.935455657873504,42.945963274867815,21.604773176211896,13.342238745286352,36.58391162669342,21.858035100239633,-2.8992701997400827,18.39861014586897,26.5687984789408,3.485846710407362,17.916345480465946,41.63080329735856,18.598291596276347,7.599126335212093,27.18875662734812,10.570985768204379,-12.474075487110905,13.292924726963006,26.37468881121803,5.815184244303362,18.286769040340292,36.575735582065,8.564384710689842,-3.350448108260394,20.24288210249103,9.933187701757268,-9.470682767318609,13.776640459565874,20.14398053780659,-5.023168038937497,10.148340123297135,38.77058249125842,23.04464642068052,15.847735707533513,31.416316198226635,5.809338612886295,-25.598371215137988,-4.9400982716380195,7.745635889478034,-8.276131071104835,9.828230076613513,32.06376247152119,7.903663836488759,-0.7572174147005624,22.17307061031218,7.167506941307884,-18.28250203879871,-0.03640689844567113,4.596829890964742,-18.159140137961927,0.30596594182606296,27.899742897475228,7.466581325385947,-0.18875695508785761,25.885323479380833,20.059336084606997,7.839996066805393,36.96035985006504,45.33270252847997,18.451513473435902,28.35142089691403,48.48329519907522,21.433753458296092,1.6881193949690787,7.9419653085292765,-20.195164050843616,-47.98985507944877,-20.178190734710746,0.08211158252045259,-10.55558170950414,11.237160172628542,35.41077647386194,7.218434447995056,-13.750280065846068,-7.077451156966659,-33.3000790837035,-57.96336419474401,-28.17586479648123,-9.211085071783701,-26.576060639516573,-18.315362422212047,-5.898317169303231,-29.166585398534135,-24.472503957593982,18.373040924930088,22.554143331759896,10.359406863110191,37.9680261079023,57.462592425433215,62.15047657074363,119.94772789508322,191.96440515399567,207.89841053046854,210.27865292980962,204.81470611505532,123.64624768903704,9.108620517725377,-58.299708752634004,-109.59596392532134,-149.65070008930726,-119.23901747831091,-67.64923891733434,-71.43706962492936,-78.52656849829256,-57.91397939302094,-62.41568321201994,-63.499576918861756,-16.73445943335024,9.521629385067689,-5.064742384577949,9.556721816820708,29.00308080226988,0.5484816846204801,-17.10014959457475,-1.035409085681044,-10.459267694940603,-21.486018289108333,6.794729651702976,12.111908449977447,-18.391595031299715,-13.331625692523065,7.604510878771855,-5.087442745396702,-3.343197019398988,22.53747400474176,11.76437315537031,-7.80025387816282,9.504732529006956,8.56087292690507,-23.167949789984213,-21.96619176456496,-7.7356686329522475,-23.756634965180925,-21.929534706262515,3.6079057851471497,-13.442894739937012,-51.49960850689891,-58.28083730983615,-70.49304026343933,-93.67994248453952,-74.93284478791892,-47.81853646602936,-64.81841059856544,-80.68917447632955,-77.66558399863541,-102.37990745463634,-130.69311108218994,-125.37793968369472,-132.44932765934303,-157.36964466639554,-145.02861170336794,-121.31434997084494,-132.00447368394342,-136.08558068103204,-122.22145810032124,-135.04510541082539,-143.7698474305625,-109.16615700121895,-84.01379540125713,-86.44998198544691,-70.66550198005422,-56.78668458595176,-73.51574766122738,-70.95112749706752,-41.12428199771965,-37.63938614777157,-44.832267097972455,-30.067241176133773,-30.917315861044383,-48.345241122182614,-34.032349970343574,-12.555740623057165,-19.529234260092036,-15.803989366389313,1.4796606171265534,-11.140499925679126,-24.328031635586438,-3.26954637227686,10.458571030736262,9.882222409519105,33.6510915396646,54.119018949940056,41.43737140658588,39.65439143982728,55.597165380392696,46.688253062518456,35.962107152547276,54.4656868154568,63.978032982825276,59.77077623690407,79.88213118989242,97.27461309264132,83.73990363411534,83.38437315252503,100.96701304731728,91.86738429819782,78.56462761224395,93.1461337028047,100.38082568481217,99.05217127410917,128.06812669761447,156.7971896866432,152.65569535672458,160.87418467395395,188.94381859690992,188.63760509551273,174.27683496135776,171.19418785582232,145.8677184710927,107.76517213332777,105.72827270514573,116.82337124670644,112.22106969705233,128.24740497954605,161.66992459438356,164.69958553147634,154.98123564134463,161.48937505986927,155.77135822957268,144.11469624731274,162.90877413556132,173.5418282298356,137.41729140805722,101.62279113597424,88.5055061542404,71.2346997411078,73.33987151802572,104.83657406889259,104.68981619230884,68.90801187541726,53.663316008398375,47.0247844446157,24.567640440397184,21.756038212716664,30.549453238228153,5.072936069715421,-22.809312622366466,-16.9440492985102,-17.380816642109277,-28.64550185617427,-9.244646928663201,13.415468040832494,5.607148695782708,4.991984189571845,12.726915228533828,-11.023730924260812,-32.6557282662691,-17.65090559768172,-13.137214499858223,-31.225851569723787,-31.95801753098182,-38.27717189169785,-73.33276568105933,-85.22586908092586,-68.45410548236,-75.72705167455183,-88.98280861674694,-78.58921723032503,-86.15376157384819,-109.91047809744767,-97.64553990610622,-75.68426386371289,-83.3694034216195,-83.69951513641067,-75.12170254151877,-100.5861923073584,-126.74551070006169,-116.76282748170269,-115.79548903872124,-131.39471045969321,-121.3369076841521,-113.94589098921999,-139.94218279652145,-151.38304835261994,-140.4570847471236,-152.26365747805215,-163.02866723300468,-145.58615985076725,-149.9983983378615,-179.521230392736,-177.49288436764124,-161.7513745565541,-167.62593198926888,-160.15527664404897,-141.806030591046,-156.90828725963502,-170.5244397540867,-145.43625977097415,-130.531867605738,-136.93852559995696,-119.8265566282988,-101.22478480818486,-109.13082277793325,-100.76905739241042,-76.97389080525096,-84.34958557210734,-92.99439726649936,-69.03545889127925,-57.52626899162284,-63.514443090198824,-41.46058366089135,-16.236396215398006,-17.58275562475269,-3.205328394262974,24.312964533740686,15.224425434192124,-0.16591332489735766,17.455806602742463,27.93347347309728,27.202818233460476,56.16219785154014,79.15550738363116,60.98624178733962,54.01839469126938,68.67601354406314,57.11906237472499,44.81781173890276,62.73293508845446,60.27459272737461,33.8550301020757,38.01017694500687,46.489270662240955,22.791843761203943,15.760987747670466,31.82994409923472,17.979262227947117,-1.3337355618964244,8.637281774724514,0.38467045925181065,-26.407345407356935,-11.269947369217094,18.326091052397476,14.043272224890895,16.0443897579388,28.795517716449606,3.1007776665209192,-21.60912337129038,0.4033981479274029,13.7012668774647,5.274407533665765,28.124747384681832,51.272726240646136,32.72181980481042,25.575470920447636,38.538947418008235,14.682322763908495,-12.632137004561178,4.407976807133773,12.270313408680364,-0.763257965108636,21.461297332187534,46.39040705430083,29.99222060370831,30.02005974169913,58.301489254188624,54.88489196271183,47.966171416179314,80.47219943796847,96.36494004371018,84.96968297260344,106.11994208653775,129.75604752261486,110.51889181765992,103.4582072047612,118.77928751692703,98.47866529716299,76.8925936434241,100.83219195423005,112.89443889538752,99.72544626329909,118.69614215406753,139.60320081606147,120.87860057756751,120.09668593696608,144.12714133370372,128.96910590007124,105.14540369046176,118.63941528882505,115.17535047289914,87.9350841811333,96.83393670656415,107.90968404609654,78.11102662787746,67.24230346000216,83.0665106050674,63.05536172650568,39.38239657192632,55.92806865965453,56.387406671533995,36.06346058172615,56.183432695561166,78.79943052266758,55.9891417184147,47.12815147535395,62.893704316088176,44.607773211216966,26.114278992246113,46.375716238422505,43.350288696227565,14.427940822336561,26.20385276424843,44.60593531998423,23.282672965344446,15.528203850282335,22.4283779388894,-14.938859896182322,-54.10337419520191,-48.1858149717272,-55.813312271478885,-81.75394411739912,-66.63008248356246,-49.90262011687783,-75.42690105210721,-83.70088173494072,-71.55104055116294,-100.55370689259216,-132.15645518454846,-123.175429791104,-133.6849894289369,-167.29146385668759,-164.2481271492989,-161.84961127655276,-196.31992728100948,-203.1660235807139,-180.216767925884,-190.18941730789894,-199.39580213869968,-171.52982548199256,-164.09151870445712,-175.78944517853367,-151.92651837134628,-136.52446209520107,-168.04514451966412,-186.09997582074408,-189.02660045454002,-228.06983548537607,-258.27687527737396,-242.85869918653333,-240.66977252949536,-250.33475349170192,-219.82843498570793,-191.41106707980393,-197.1370672284235,-177.68950467804655,-138.23150339877574,-134.67546623214633,-127.17828485315943,-81.98324929058217,-52.44022434280417,-32.59358179500147,25.321579044179487,76.64233710257228,92.03769734866003,130.23500997689808,186.2815686758754,208.41098492922734,233.32380480334956,285.84074178265956,312.03660470049977,323.48975144730304,370.31549173821406,408.4621283215314,407.2707849892396,419.4535216678197,437.50689831361535,416.09994022198777,399.00339280808004,413.67951125720083,406.44047068126116,385.09730732400214,395.1137544617808,394.90884560353356,360.36998258421227,347.0121128744506,346.85700049383524,313.0350555655417,285.3217443309518,287.3952148010138,267.44777819477,237.75536591621943,244.5106383413171,245.5481954950106,216.15035832083225,206.30161027088826,203.4115370570868,164.8391606535228,135.5848118655373,139.84630472301592,125.51777183267447,102.60230745786816,112.09541561952412,110.18022696369269,76.67715268210208,65.56420257234282,64.06272612137249,29.620474792950446,5.883017044391061,11.219690512962456,-8.72813953862103,-41.143556784099864,-43.35456928077921,-56.6868598201296,-99.05427569533101,-118.29074694492029,-127.47718442012426,-166.35728178921414,-191.76381884532555,-188.6579456193242,-212.08648173312886,-246.54626058552458,-246.14014529247356,-250.05246802475392,-277.39351331605064,-282.767098635763,-285.2680369918171,-321.66590400753006,-341.5697170863184,-327.6359922443396,-337.87837272063877,-361.28696353040954,-354.5539488392082,-353.5890501561361,-370.1736762295909,-356.3415022348134,-337.64889541562485,-361.22105801652566,-381.5481765822975,-373.5804629148245,-379.88239776664346,-382.9232258682454,-349.65560222541154,-331.49625313118713,-347.3502849406845,-343.84360375806534,-331.0559660069966,-343.7643272598639,-342.3071889795774,-319.29820544549665,-325.70716490167183,-335.98272880888214,-303.658882450752,-270.9876211226683,-256.6419386389322,-220.75810176430838,-188.95840595605637,-194.9201176840229,-186.49166807621384,-144.91657487098766,-120.71476142549804,-108.46692672938117,-79.88938136422856,-69.16529626134637,-77.6972644885382,-51.989062571801625,-13.73815948686981,-15.165232926555941,-22.103784884527254,-7.506686453724556,-1.469039826582689,16.275188694684772,70.04808023977553,101.72232175801949,93.57870713520025,104.27654219977508,127.93327683922456,129.78866499412894,146.83589110247564,185.22019912462628,192.9118456634729,190.93098970527677,221.85182407769975,243.25678461952873,238.247559098914,254.34724732394005,272.99570492556455,254.87514257242162,247.7542625124682,274.01477424894864,281.64915689662,280.5833408241891,309.0066733441819,322.38840573022406,302.8660751217284,307.59924057550927,326.6383369529025,312.9239922295609,303.5965350723243,320.5466503472785,312.12497471366055,290.78555779215054,305.86864266368843,313.82218536639505,283.04746371801394,265.75229657466457,254.01184688756464,202.76817877716474,161.79514152156776,161.13256868091304,139.14324595392225,101.83132076226505,102.71221022826796,97.5622594207668,53.54249711375479,29.48540379491684,17.124708722261055,-39.304009251060215,-88.35909626806729,-88.9447711119264,-107.62435224288244,-145.6867473161259,-140.37640433321866,-132.20396131389913,-159.96252319710806,-161.44351942648373,-144.87940916199915,-177.9773771600942,-210.58948218234497,-189.5379903805232,-176.4177528224864,-180.4303363204572,-152.34943068615016,-144.23758954294243,-194.97905346015185,-223.2510122207904,-211.30249902512614,-223.0053521281418,-231.23804074709574,-206.48306897946134,-215.187375605625,-250.80562879848765,-238.12809900439163,-217.15936545230755,-241.29174643443463,-252.01732965621403,-240.58249767277943,-264.9164862009953,-286.53000345025885,-265.25481732927585,-264.84569539457095,-287.12467145391867,-264.8520913199647,-237.41469212349335,-255.08302901842745,-256.5063596671617,-229.23262781417398,-230.41515474727663,-224.48275596900422,-176.00282404223066,-152.86437981138084,-158.38390566489338,-126.12321029961177,-91.54420978143807,-95.75757121801549,-77.63470109062402,-35.65514779347647,-34.41637233343347,-37.754304434041316,1.060930608547082,30.541031216655792,47.16656975288516,100.94490962221406,145.2727195620945,138.40647975719793,149.48222206991534,193.5630914064457,207.9427177060397,212.69147872618356,239.03663594465206,237.44329916235125,221.70888517924885,257.9526107205715,301.8449676731185,300.78441687240144,306.4691202459966,324.60248931111045,306.312274440222,295.22048725171027,325.272680360039,329.26392132210117,306.7995050106849,320.9604609063258,333.8388803981732,307.27982627106576,302.2390892762212,317.3313459565567,290.97766566913896,264.8426320779523,280.3867005908451,275.2463044767019,247.84285788302554,257.5126084908079,260.655555064646,216.54752154329736,191.95062574439012,194.0368784885939,163.65783951433923,135.2566301338773,140.1228332564532,113.27531302100434,60.97173507022461,57.60822095427752,71.81781337126552,58.91962197275109,65.96235196809877,81.82091092652179,45.918684144958505,7.511641179812377,16.152740237160703,16.066149489757564,4.612745407835407,32.35270048097758,52.40566518211122,26.61553209784874,17.395733808558894,26.239985261307975,-0.25414879862656115,-19.75532080342292,-0.5279932239332776,-6.993079064377218,-36.37759967478945,-27.609549808207127,-16.980755230447112,-39.2563693144996,-40.427413402842596,-29.311393311308862,-60.740332082595,-89.1722034711638,-78.5595499472657,-84.22017595279797,-100.5880671318277,-78.15578766059639,-59.53091026524374,-75.54044428432884,-74.23201190976769,-63.39802296791572,-86.68464004829215,-97.05953578597868,-67.66490302096963,-58.34327188154965,-67.02261653881905,-48.544608993589875,-38.22978542781061,-52.4189872024315,-34.770906989802185,-0.6897667654537436,-7.933557814865266,-22.364162516907097,-13.153805742407513,-20.150598063137814,-28.860683855687775,0.018111154446572186,17.979282914338363,-0.5232385351980433,1.753580994126998,23.276565142867575,22.876166819505976,33.10737323501348,65.31536253775046,66.82993892287791,54.20590282378964,74.88326362202163,91.15373730478672,80.64140412250836,87.45815654214633,96.12987535024101,68.04285986735768,50.986485024982215,68.4814257064441,65.3079606879523,46.54573448512757,54.12500618280304,53.7582161945838,31.03801204780219,37.12557640441088,52.18716837826341,23.49995980849089,-5.824405470882247,-1.9019392095805507,-8.708934907750075,-18.023308413087722,4.8411053117761185,10.484512709408769,-23.529408931997146,-36.641174913939714,-31.16744984958796,-51.17048629125688,-62.08090334977488,-47.35052408045087,-60.62547541404015,-87.03156707165721,-74.80808423736823,-63.337467553689095,-80.74386574406932,-78.76153283375905,-69.68372081762342,-98.7836392532362,-120.55552054462576,-107.84852721611077,-115.53888428387273,-135.23133041422685,-119.83120808027421,-110.71222069624818,-132.68115729503447,-131.02328876075853,-117.20416771704187,-143.04256662654763,-167.79033136229296,-160.8567108130885,-170.03198817337937,-182.76292453281698,-153.9854970201302,-134.84470708829417,-158.68731314401265,-165.88501246913535,-155.3159316707366,-170.79546332978984,-172.7363577972996,-144.11800349107648,-150.35222174294975,-179.6930454875875,-168.92357564475043,-152.31855506393515,-160.57140423401034,-144.35198736230194,-119.72220664950905,-140.50802699471402,-156.85847766710117,-133.1762483832493,-130.2636900794263,-145.46173302529746,-125.15926009228465,-106.6579075044258,-116.18192217938191,-97.97424349766527,-67.19326467195457,-82.03736908002769,-95.40181311025954,-68.63674052720157,-57.62223106723491,-60.548314616364046,-31.2398930218369,-14.0781256191208,-35.567950234730056,-31.395490795538407,-4.819081424946999,-10.62917697057858,-10.985302305013994,20.6860214605019,24.79412699246665,9.713637718832059,32.2015785021327,53.279947908653526,41.193595438625195,50.084678366696025,72.25003544244653,54.827229536399344,40.74460947522777,63.41931461095891,64.915305748908,49.062038996123746,69.31055667187454,84.3038251352385,61.669688871009214,60.86466247395482,77.4388348174852,55.11621271264468,35.18284824963948,53.34280799081925,54.038801968369285,42.48781801362864,69.53509898708455,87.8038228342339,63.359489519022944,59.54291541759477,75.66703152080262,56.55461399881722,39.455351911021495,53.345533280417015,41.9058178313323,16.2409340990307,32.49120516832838,45.234152556980746,19.760997120787376,17.12410296766392,38.00664475280831,32.4550617665311,36.58509111612321,67.86159602457391,60.154479958198834,26.746869517943782,33.84205824976106,45.043946175913305,28.372495980133735,39.16978362628598,66.40870384075126,54.22050140565152,44.19468048832941,60.65622889418777,42.86509564858423,10.103338204057641,27.778711356242404,51.38497627151118,39.29588704933113,36.91713606261574,31.420470264359018,-20.616128207454,-60.35722924212979,-50.256101749736295,-48.631627739635206,-50.39174365689575,-9.96803020175369,21.493086091304367,12.099042982743384,21.676533489997652,45.438003138465405,35.366333783784086,-36.20700061052796,-4.219031569724919,-11.058205387032068,-44.70163867326999,-19.622988808368397,-3.1517226735171726,-37.33579074580177,-24.827089171525987,16.251489761940686,-7.687653537834944,-31.476774303492327,-7.087076156058007,-24.077325782087104,-62.250976953906,-32.065432236071096,-3.8163589225794237,-27.4832451219532,-12.074220004913467,24.919305402315384,-3.864695799891706,-27.33910592783244,3.4959838450336562,-4.374035011011403,-35.938725805245234,-6.5423965670763575,12.645328008958042,-23.022570287692794,-15.848905200661926,18.906434644068575,-7.363749342342128,-27.248278175133144,1.8353499009050047,-15.895136130081012,-60.51127067751125,-40.276392741098036,-21.284357699886,-47.045816432114435,-25.73434639645285,18.657394005906895,-6.634808792895949,-31.823840383960068,-7.063501381460165,-22.339100796240153,-58.32231247764282,-27.198451446538556,0.3729630261136565,-22.314606268155764,-1.286945178124915,43.14187089215115,18.247267709971545,-6.330904929631567,19.603769789602715,5.133545114038823,-31.008737292394105,-2.066815097720749,19.263451055971622,-14.472604553284848,-6.570971650940356,29.028650059562437,3.9841972295411416,-14.005523410405084,20.67512044223905,12.53877476855234,-22.93503604493098,2.6360636024193482,21.431221766048402,-11.336660850064524,-0.3996176582063775,37.37487905299659,12.113957057303503,-9.181737912746916,19.80722600317151,7.19933798991844,-28.667455826999475,-0.9707979616803826,19.28700988192445,-13.608778458282753,-3.973984098357745,31.807213249469203,5.8216084143759605,-13.648361835365982,16.49526354337459,1.0716679817375852,-38.937198738844344,-11.990107176601285,11.77140096349151,-15.460514794450084,-0.7711244195482578,36.58794765761223,8.481607981402622,-13.208355643067126,17.46661549299028,3.985571654752526,-35.85539880308335,-11.416417576526953,9.795154129996941,-16.784291382245186,1.6603821002843784,42.50483051529244,14.52848818033912,-11.005055133524722,14.2244703923884,-1.02301357952466,-35.663914022714934,-3.5531150473425335,20.862399656202342,-8.719139297350255,2.2744531571580566,34.59010880972265,1.558995745764026,-22.960400549062424,8.014620069916718,-1.4885859843092923,-34.438212806060875,-4.2146790601499475,16.462661099792932,-17.144845208532836,-6.532818252475289,30.43933309946898,3.0773383458900696,-18.518255595770334,11.594756315016514,-1.7215224912194884,-39.057226599804665,-11.3596949154927,10.323617273193731,-19.468759235082153,-6.046548574845831,30.853212602692313,2.178263257338074,-21.022631144464068,8.03281250394487,-3.7121882047979824,-37.26935336414013,-7.110625847041387,13.5879213910479,-19.607315547334878,-9.506564079051671,27.495221094730194,4.338084922759528,-11.530338622798036,20.18724070444525,4.182520912404112,-37.48975398976567,-13.50058614236027,7.824890951163359,-18.74660312836088,-1.9272371765116052,36.251415128127285,7.704578911453757,-15.93961450270268,11.03992572839189,-3.9578281238054682,-40.60725220882661,-12.583624907807593,9.466062149762571,-17.843496442735045,-2.2709852063589544,35.198042626143724,9.012632323622595,-10.823010227198264,18.373818694529078,5.422912563911892,-30.588715199899674,-7.390773251901793,8.056146579660494,-21.71860192286344,-5.836417880117407,32.897806306703124,8.941609381483424,-11.546261414320307,13.125640423188841,-1.6819014988615315,-34.42401891075418,-7.723747554169945,9.807017819402652,-19.144919243869104,-7.199836285897597,24.617515469459246,-3.0004771041111944,-26.032184000003344,-6.520950988868147,-24.496437788599987,-56.17035716407818,-27.727018772034718,-6.776480959903357,-29.13618112270717,-12.000014627252815,23.39542162439892,3.220723381446575,-10.610131961504567,14.686369820610857,1.792999390535721,-24.170472661457996,7.279854238841409,30.151370979547917,9.41499713011816,22.926083330172847,50.77965928647044,26.877868344810352,14.78486273293965,44.30670163714694,35.68165261684676,8.187938717853882,27.412277046842043,33.63123713475688,2.3386260642407475,13.0252921583157,41.52113421193573,17.715927317936057,0.6504319165721033,19.931076826954865,3.4960673208787103,-24.14799105416722,-0.4218853229193229,12.01283295497435,-13.457759107976369,-2.3513644937065434,21.541908417093786,-5.632261814922819,-24.577419693851535,-7.921254047003104,-25.1619885207035,-52.636506628122106,-31.171977986844468,-19.801069327721617,-41.96441714574673,-26.95770421005784,0.4674508214467181,-20.22033138422774,-29.799686213983545,-2.56028523699527,-8.45006889456683,-26.220949935047663,0.02736559617503964,11.497854340161375,-12.31621791989576,1.3356140281150068,28.279649999898147,7.252843980378966,-5.449290352758861,13.905492247483043,-1.8396754831380626,-27.320323750279385,-4.850381619746406,7.321728955559442,-12.82441335352945,3.93597383075055,32.704177612634616,14.530272302697167,5.7754296210955065,28.57677865531163,16.28867766951896,-5.012013761452858,21.68050782162086,38.20660208823213,21.983556129784752,39.32938862882299,64.12164297871762,39.912673419338546,26.221483233031627,46.507564732394556,33.75344857226762,12.39743500404907,36.16364643585686,45.136723389043304,20.452977591417405,33.51693810056989,59.148104832985155,39.52417419217596,31.254580483103478,52.81621611014517,35.98612094028721,10.244918943856616,34.45112560254573,49.031440981063724,30.81638526901068,45.48093221277825,64.91709779305384,33.42505676980261,13.834311568709264,30.377005964284027,14.59081830565101,-9.727766251318428,11.016963073324595,16.743864736261493,-11.08195610261304,-0.8352152995734539,22.18233910446219,-0.035233296256926394,-10.982730799771648,8.976371028138654,-7.147908467179784,-31.092225182796717,-7.099010036654066,3.3919764404977246,-20.20879008225301,-7.551836678617246,15.325057989393123,-7.61883727332361,-17.360776820305514,3.7254794560032636,-13.33673982418581,-38.89912251076823,-16.82140518344613,-7.42481751362991,-29.015154943900626,-13.081262714825554,11.29833866455845,-12.431211658373993,-26.15806727124555,-12.756469928150109,-38.51840519351376,-70.19094026428355,-49.870044616289505,-37.502952755716244,-53.15539688139531,-33.46036865665384,-10.729454315886542,-37.80408365517975,-50.59034109241845,-28.310844617405824,-36.356164505148975,-46.65575184504262,-10.428493784551002,7.964725374932348,-10.555877682566491,0.740291603963902,15.831055768913126,-13.19221370958143,-24.87010417978161,-4.504572560487739,-19.832225165323262,-41.66064015911893,-17.62704484368511,-5.899527056198595,-21.947845409419738,-2.550052749016814,20.59083953364764,-2.7445654493959957,-11.548075617548738,9.372950556121195,-5.559135905815767,-25.87788162147808,-0.3463245910047892,11.738419272956268,-5.030920941506157,12.75048027685283,33.72688949094777,8.403952738709823,-2.0278537739674825,16.744171948992133,-2.044285530865391,-28.179360150534112,-9.13568466152472,-1.5203913598206762,-18.567749896093293,2.5990640002353356,29.006747511826614,10.168808196039858,4.956223006174774,25.795106432184618,7.828918841115341,-17.94107109342734,-1.0649209358475034,3.2095580737188225,-15.72177168591915,3.5894593897807123,26.86560071504365,4.258561866794116,-6.2672205045846905,8.60147399422641,-10.444642229220971,-29.425712618349838,-2.5090189324635173,8.590048480874314,-9.111547883588003,7.392196457278487,28.76125849876406,10.345885325562426,8.763917531232437,30.22045935909116,10.450481846398073,-16.432141868278364,-1.2861272967708004,-1.1113323967899027,-25.520464517852687,-11.983055139974642,7.35474092131016,-13.498959588102517,-17.03773147727785,4.162588471363145,-13.756429786646375,-37.17566344180977,-17.370220792882815,-10.63554434708885,-26.726945998804275,-5.8903656934113355,17.277903565869984,-2.932222944094576,-6.489613083012639,18.07078788663359,8.551480821078801,-6.482724189721907,14.004825442586354,11.564697388955157,-18.754211189316848,-10.691388775824505,3.320445566678756,-25.465453401155578,-40.61114103302327,-31.11322564319536,-55.26588591433169,-77.55770271396513,-52.69877437233663,-41.89270662084739,-56.385947102771716,-33.720255876154,-6.927320461184191,-24.067357920681648,-27.555288642622827,-6.853598413941114,-22.762189767415652,-41.28814980616235,-16.751612523252074,-8.723218341412695,-26.149369769291475,-5.966672137811814,17.72084833382023,-3.4309317019836403,-11.098793641112525,6.237363726748109,-11.300605983462386,-28.928667126491455,-1.636365830389602,7.619904445340335,-12.773788598826588,1.9745821228950255,22.052612557181728,2.226377543556451,0.03878928172686047,22.355963809898682,3.875079029627713,-22.424242240502192,-6.758787353486114,-5.084756749168657,-25.93323483011865,-5.693849984872842,20.574516043971705,2.0206018128959293,-3.382035203307154,15.104039734882612,-4.52327072365415,-26.139448566894586,-0.6275203808065726,10.996442726061098,-3.8368082772099923,17.082813333853878,40.37390070244443,20.13415401703145,18.094015576659626,44.04172329313997,32.19100342458646,15.253969440455608,41.05575188461518,49.810782824585075,31.32282862081208,48.81205282529062,67.85981412339108,41.97070545249112,33.73404695268366,52.67884363706158,31.38911197772699,3.20228144391727,19.42900820387723,23.229015602165738,5.360683538983594,26.877407889253227,47.67661842584218,17.152500999905147,-0.4879831774193244,9.82125850335374,-14.276474971952853,-39.69296099594582,-20.617949658591485,-17.904261651641175,-39.64840469496774,-19.508732368149943,9.342497887185003,-2.700847152277385,1.0409490851828624,28.229790918849123,13.914586141987872,-8.096419008302217,11.293956216265839,13.966509770053129,-8.815947499723825,6.743495077813247,26.367707442249234,2.9417408843981203,-3.9414476926364963,13.80479547490988,-7.722456651786381,-33.213938858840656,-14.606904093987993,-11.222436294701609,-31.633401544718915,-12.422282538028078,12.087761985108248,-4.019602507876629,-1.4758932645527443,25.19160754091643,9.930560267817526,-12.903055890275425,5.188816129897905,8.26921217576195,-9.624295674193561,11.722520658397741,33.27557938995981,8.862862003998211,0.764857861817881,18.603498955200322,0.13587070777926158,-20.63600605052717,0.615601388741613,5.533270238430539,-11.196181707358564,11.72626429305541,34.952374166126205,10.908070825716715,3.1105484920719517,25.366932614748748,16.14677674571003,4.638650374473176,29.972355326320397,31.306093963029937,5.5145887347727705,21.92388361057184,47.15768602038763,29.853164819606867,25.320726309454464,43.178410372973154,24.216253131524386,5.0900712226144815,31.01344646200799,39.124363229032284,18.662700260774315,33.050533010801345,49.74798705030078,24.383347300986458,17.338908474919435,35.734571357842704,15.332140498250846,-8.134331749835532,13.122747491460338,18.529350578604863,-2.070575540951001,13.542896303982406,30.187799431030214,2.317547906350388,-7.308918136752065,10.280143148893027,-11.026271787711222,-36.79130396525174,-17.277221328954138,-10.85353706705691,-26.84801755010339,-3.071815733495189,23.506101787369296,3.5845082646646436,-2.211026171227398,16.84280887312186,-2.3689167706916425,-23.711190881408218,1.7069705271571074,12.010593826053897,-4.991418024627571,12.615909063968065,29.11306999343406,-1.6659139960877223,-15.6018392608146,-1.0612753164137505,-22.581736315137665,-47.08014008926538,-27.872536166001556,-24.978995855825293,-46.76910462239926,-28.603011363438334,-5.520491249985138,-26.546952266898764,-32.342140955110935,-12.657568374767447,-29.32797217620628,-48.13076084851324,-24.162702788151268,-17.706442201063147,-37.17901400572133,-20.116212879299297,-0.4400149961164441,-22.997398284716745,-29.007363785935418,-11.36826961335279,-30.958263292075635,-51.984478312404306,-30.590487406125373,-25.816562145497922,-43.59505150136602,-23.570768663408007,-1.7212208835860583,-20.558304665830853,-20.827329633070846,2.4515885781814557,-11.71808267771227,-28.433131475354504,-5.7583963317241995,-0.7199064981147698,-16.787821361023347,4.638913398067391,26.294395560189102,6.056849613290904,1.7953029733250707,19.319296398849435,2.530731667069075,-12.176093747506728,13.668037571150121,21.016943823413506,6.111709167377123,27.235520311429088,50.65376978283109,39.95691769079829,52.792556755552155,88.91917974854246,86.03348858132773,75.12648838837482,92.45209311072162,84.49957739430558,56.75429121702451,71.58594234117616,91.57543688516047,72.111308140446,64.01200681651292,67.47914926882618,28.83540402618101,-9.432262628469108,-5.456206978918415,-16.518854600984298,-43.805221699596835,-28.1361566936231,-5.9797501892410265,-17.222932361261687,-6.108274933173433,26.18586454508391,19.151296493340904,9.302444973258165,35.13284276610161,37.74916180889339,16.103665930121828,29.010630846211182,37.176421274267554,-0.6010905922710137,-24.575230586476152,-30.04082308237483,-72.84269781782609,-111.11097079095514,-102.59679678441483,-108.15846131528369,-131.24604503899255,-112.28938258803899,-92.09466090087463,-114.70464356139696,-119.6105601150816,-102.49830742290747,-124.23954354472137,-145.39934378983145,-121.68336152063262,-114.91461433507965,-130.24190975427885,-104.45663842131526,-76.77426916443642,-93.4723539274261,-91.5707516843188,-64.65032196585307,-77.22624980029376,-90.89248794857123,-59.999503634570985,-48.79116489627878,-63.28022202048514,-36.67491730877006,-6.562912736889249,-20.13896259572585,-14.080514248231136,17.037456414510398,4.911312179456562,-12.871951344524934,12.212725379596476,16.785053145045815,-5.408999435693433,14.632479875317411,40.35096545980857,22.196273546770765,22.03719645003133,45.575996122822666,24.202889686889712,-3.1513473242626393,16.062454806660206,20.699439938637635,2.613929054074335,27.013909060145703,54.66261224827289,35.341935094002935,31.481174901508897,50.905964268672676,27.449473481612202,0.6712260019008864,22.91121174944115,31.471740132157272,15.184323412070583,38.64673568289979,64.0387134098317,42.473664254178026,39.14087392683431,63.615070063688705,47.21527536167565,25.4345595712682,48.28222660777056,53.30424655239291,31.152619974383704,48.4418682710992,70.039122369074,48.50556971747767,46.10923009059734,69.03494767371664,49.12637809201064,22.9204851283735,40.58267042199274,42.331762665221966,20.71882758602554,39.746926781599626,