-61.20160773700266,-58.02504313718207,-61.60993586998785,-58.39231689763797,-46.887351148760324,-40.66151408541184,-36.806636500585874,-28.616489982887174,-25.380499393584095,-26.402649800642983,-19.69657731705924,-12.25628725521564,-13.427784281323998,-14.239476994286795,-15.782464134333487,-29.314787864317655,-43.18940252823555,-41.37847445356914,-30.693338934951264,-14.827899909648082,11.840511058946962,37.20215745897574,50.65072768595977,63.60243914408147,75.20344540749117,71.4592780496654,61.80063227514751,58.35613307038492,51.48320761936268,41.655147768491425,39.85678401495376,37.75623071264,31.438591619845255,36.84605798372253,50.220164392519294,50.619801266195815,39.708397936209494,25.555857993816424,3.486991203304675,-15.488163754124306,-14.435135931786672,-8.046864040509654,-15.80969256345605,-32.24676592010023,-55.42023735044249,-87.72699646031592,-111.14811107061492,-116.62897156246625,-121.63627324313023,-130.22497149005838,-133.78694915252237,-145.92320640448503,-178.8069241244305,-218.02745074381133,-252.43089640782824,-275.91430419229016,-266.2735921414046,-220.83336398677778,-174.88014237274083,-147.91513005075572,-130.65097346266202,-123.44945585635378,-125.13378679724954,-119.20940396077569,-109.41453039545027,-111.72450279869595,-114.82804042220067,-108.68919106494621,-110.74160419009367,-125.73240927096087,-138.29963037531203,-145.93676887188545,-147.49249613801234,-130.26744759011532,-98.98891256728821,-72.14062056807026,-47.376043276906955,-18.522329290157515,0.3331532527877452,5.032589772628693,8.759279897281111,13.162471477264615,18.863641009146743,35.635291146465725,55.04899241921494,59.2831030648452,54.37326040494308,52.08587689289041,49.32875918904068,49.529400928747684,57.54765141929567,58.04626784954262,44.10778345156699,33.85320730849783,34.176182526813655,37.62868100605213,48.3026843772565,64.0707171306145,67.9195839325392,61.95986643376969,61.553388158036064,62.21316383323706,58.01734358942848,58.95039284215399,62.4843765142932,56.55526407172387,48.902380481786615,48.77500978622459,50.52545396296751,54.848292564343,62.040370814765645,57.267065870149366,38.40613804453797,25.386669921676123,26.9678993377032,36.85509358535284,53.26884862280201,67.70111432976417,66.7447701607166,61.907953542894056,70.80769884591845,82.08299670130111,81.47189864097115,72.80855447654235,56.6059164219251,37.04472634045234,33.550368674416816,47.61568430768161,56.87472087476533,54.303069344685575,49.07976897601132,41.79763064087743,36.156086230704204,45.56118137711866,65.82539692548677,79.9763957994074,87.78608372496733,90.48820591703343,79.1607800660662,64.06765700543201,63.25214420228852,68.66408072396716,72.12999254802985,84.8074458288203,104.76615601864927,117.38560291220266,122.30912573860827,121.24789983556562,112.11071446535328,108.76471548849966,122.67740222402557,136.12840600547875,132.90335800007648,124.29823371076297,121.67106498263936,125.4320012857898,137.30614120061577,145.72359009530055,130.9702781559615,102.08237585444184,81.90492515892144,69.35895798097587,60.01246425060046,61.89023110138085,67.5793269548369,61.802439461700935,48.35793484516401,32.4359890546306,11.420285558014966,-2.5285936367975945,5.4105844461679915,23.749046535720584,34.07980760298784,34.229969805119424,23.79271671830137,6.760494040704467,1.603969401323507,13.49414370973252,25.5212282948732,29.527134826007757,27.91389917584,17.21659935696919,1.6301500911910916,-6.977066709987669,-13.88999005764663,-26.395156096271183,-30.53680597468359,-20.232863039128148,-11.352383992754465,-10.077562894586109,-13.281015000190347,-27.027784536868307,-46.429097933807796,-54.64597129018584,-54.97697020096038,-57.91498625769405,-55.54435289095316,-44.30063394922909,-34.23757866870021,-25.986927989614358,-17.693275587868555,-17.684759762315913,-24.332061164417052,-25.454155811730846,-23.457702733861424,-25.20624802985879,-22.08575151190025,-10.695316309307607,-1.8613321210720304,4.057583214541961,11.930485911070166,13.657877088851036,7.323956226796221,2.5225815803834752,-4.276282969018983,-18.8465040544653,-28.18381323977679,-23.346943179149022,-11.467915799696076,3.9082757592063015,18.76126181119434,20.047464782751355,6.626313656643555,-7.040465690066773,-15.218774676868833,-19.668829407178656,-15.882092422190308,-8.478735356489292,-12.291057841229001,-24.991888430638276,-33.67920042080638,-36.73410884648805,-33.3271283884157,-21.84338054543595,-13.997080299714568,-18.138357148312735,-23.682630124091638,-23.955541427886697,-25.291820139231984,-27.08824018446891,-26.327935916795735,-30.24245436579807,-39.42208252288342,-44.89162213582844,-48.82216452688242,-55.832844158170865,-56.69182116040192,-48.65427958973187,-43.708525898862014,-43.952573349927775,-44.004119425546875,-48.26851078686052,-56.17949635269426,-57.95198947946153,-56.223929123148125,-57.47484563955457,-54.42711529651455,-44.93420526949871,-37.930720317255606,-31.74145482252044,-22.684381493006942,-21.471452962549826,-32.319215777044256,-44.83490414549461,-56.153217678160914,-65.24023305394903,-59.965545060079904,-41.41618365312968,-26.931348842762134,-19.04656727540777,-12.372313144642948,-13.568424239976727,-23.39259746671826,-31.913240101054843,-39.688835463897924,-48.485942176102334,-46.65461731431948,-32.71165121797507,-22.21745067994295,-19.431931490895785,-19.507882185178605,-27.005402027895247,-39.82454438929027,-44.29241766720515,-39.98810211987905,-33.38133220989846,-19.978524548646334,-3.6863595392425252,0.14668926608481603,-6.584036795295038,-10.85741784213628,-11.337610238869527,-8.879849501459887,-2.7513577989326863,-2.991099137292801,-14.60902412234306,-23.31288249895777,-20.418306224599313,-12.908813376815571,-2.9797922679645366,8.5285581188334,11.725768650115704,4.989873329624395,-2.436392482560242,-9.69379174370473,-17.617610824697515,-17.02725809265896,-8.305017124981465,-4.123343433515495,-3.59605283823192,0.08639171064653284,0.7306620545370486,-3.104852629517769,-3.500579267731569,-4.241132186053857,-9.726179854252427,-9.113927426915534,-0.363022625702786,4.225251945216905,5.167044270970061,9.009924428186471,9.745854046906064,6.461276353806554,8.384602922313158,12.076038146596394,8.956452720362133,4.688421962390757,2.785929273235849,-2.179481239982115,-4.651866510955084,1.7111571848078415,7.0341520350081055,7.620687919599346,11.616124073697105,14.651406113652916,10.242607148399152,6.716079271088996,5.844981547003386,0.631078255958154,0.040733188373235016,13.826919315041623,28.96957890078529,34.34249676996386,33.952281993671924,25.22331798565356,6.787292983629445,-5.93824821902964,-5.487730871935154,-2.1137172645810436,2.725677484689309,13.111894638813375,19.250692451752506,16.25951273424266,12.945475896811402,9.108306721642467,1.930890388758128,0.5532494690785388,5.401764286261642,5.632519334707045,5.189153040878681,13.76648841566173,25.0546039579022,32.0848184251748,36.559310693578325,34.40829278826308,24.386201002197858,19.60749678207683,24.17834837782361,24.709748254431943,17.911850866094657,12.345733226344361,8.20302450209464,7.119706931408794,16.58889868519022,28.09465921542666,28.051536204830164,22.341050798314058,16.98646073585332,6.953968276784545,-0.23797990154414972,5.5613407426422885,13.240751293693386,14.714472810991587,18.228911498328205,20.184452903396604,12.189909693477958,5.547556191637753,6.973036618698093,6.711995432909118,7.1226085134419295,14.413876218077974,15.974668955857394,6.5671621407485254,1.9048436739328711,5.824978096583324,7.15699507919503,5.126765829324737,0.6680680766677651,-9.25299971699763,-12.2338667349683571.9935093071412453,16.928581753761385,18.35601176063558,13.213272657615391,7.43398997693367,4.06249313062701,9.758836687441748,16.99412045343385,11.328530991670105,1.3314548274551392,2.058417803754984,6.986841816179302,8.483057718149782,10.745874286610729,9.960649851804078,1.6193925073815443,-2.4729084557745526,3.114246642600309,7.0571563643759205,8.515325650033892,14.005197052420911,14.957188496939676,7.173305191621059,3.6738388186577957,7.253250636624089,9.945151013923326,12.113476442875285,10.004366895842303,-3.039487266642222,-14.132030914778458,-9.98972597413867,-0.2742380732064631,7.121203740790836,15.579653059583087,18.468611454109,10.801487578520952,3.7379002995442887,0.4457862650467189,-6.105700270732985,-9.212097484122026,-2.647608888604938,1.842306851440029,-1.16185998137729,-2.2329312424753995,1.20003434988222,6.024450235479877,13.356632146545389,17.377304515110303,8.435791565197203,-6.596131450532807,-14.641338334160293,-16.033621065479515,-12.558536322058846,-3.4318144626913822,1.9489692909859329,-1.339829842756733,-2.49175397088341,0.4759907842383102,-1.9387507096051102,-5.963756224512497,-5.5648916211361605,-8.561838841406459,-14.013992885777409,-11.259744282133553,-5.884897743887347,-6.622250579753182,-7.06016638446484,-6.844522483095959,-14.68917155227874,-22.30640349902695,-15.554215782354266,-1.1140643018571952,10.630193490913316,18.756258761216756,15.369616703718052,-1.2228846277264909,-10.843589204118285,-3.287425707723174,8.596718628412495,17.44468771351704,22.030373782619478,15.087105722113918,0.48630190085307756,-7.2246546406646885,-6.957479640205555,-3.003171554753026,11.364700122107509,36.723943334597415,62.01465406279422,86.2625125818284,114.93724212860506,142.12145669940713,161.92622556311915,178.57357013138068,191.3145719565711,195.86125978970034,195.6437790998023,186.83714211343766,159.1992280150091,121.0295434647071,89.56111689052855,67.15330580029,48.10852616938995,26.248022177099553,-8.368334280684824,-53.44835134213451,-87.64317161635839,-102.36249765258871,-111.23989402417791,-122.56205262906701,-138.15495707639533,-161.87855900019386,-183.81132152509747,-187.1720366547517,-177.15532844896666,-170.32377464531191,-168.65690106961344,-170.4697246230308,-177.18519687566015,-178.92194835507314,-169.27070472245813,-160.7963431970302,-159.3051659957173,-155.77997882460815,-150.17740386654967,-145.95293829096016,-136.78315517326965,-124.0841548331206,-116.75622124859194,-109.8479384897449,-98.86120282367406,-95.39800545454163,-100.07339643802277,-97.24702804240879,-85.50395486429352,-71.2527624008726,-51.805110896338775,-35.75322021634044,-37.71500375319504,-46.12738915041188,-42.60631919295156,-33.05488738515195,-25.589702378112534,-16.89428124871649,-12.53899469885474,-15.734094414255162,-11.684150725413023,2.7260862216536417,12.111550271469465,14.337228855313874,16.67690763156537,16.79175212555543,16.275873451864978,23.71023411491693,35.37888593610572,42.592208437443844,47.632673018799416,49.52224712671527,40.557390462841354,27.744347743376323,25.15028650148391,32.68420662517786,46.37707965790412,63.319474854044564,69.13649318675996,54.60514373089826,35.009630095906765,26.860783536201723,31.675509148606814,50.509164713235016,76.56265517284095,87.0267091997154,74.78270721869768,57.26880615875094,45.50868576243137,41.91308880911915,51.30968932529535,65.47895889382276,69.1835525915196,67.61310841354225,71.0195769056141,71.48726845190265,64.38933847941098,57.707457186934576,51.674629964575615,45.228922677993346,46.39998006594199,52.88726233870551,53.1869909391878,51.12730283669229,55.90525413370841,61.40925399147197,61.83907533898187,60.909849706345085,56.12689256664888,46.73725486369341,44.00423741455815,49.14251986465703,52.474562135003154,56.62605125619144,65.03723829626017,67.52464754022431,61.370741563987735,55.57174412662243,49.743565058022014,42.43796193039476,42.66614247648629,46.4737268256034,39.3477653847312,27.850204052834997,25.59174822836378,27.775971648943447,29.668546869368082,32.90209158073128,28.993347104632555,16.90163483505584,14.343878736869886,24.48006762475411,31.270434827014782,31.120249609507653,28.466603844875152,20.35422316898017,13.379895301874722,19.927002685715667,30.81751636883855,32.29286380851336,31.25191625499021,31.392258781774835,24.336378462809257,15.650943461332709,13.5282197643398,8.193222052767798,-3.174692223849577,-8.334738695499947,-7.524881518659534,-8.068487605122376,-4.96146350310514,2.392548976435433,3.2170388974152466,-2.0904483379196033,-5.300773486035367,-8.43890090861395,-12.599958590079968,-11.865977462653372,-9.119891485003986,-9.581867869399018,-8.001755661909872,-4.568385075748861,-6.531414959041484,-9.756465139949894,-9.945879575914336,-13.760601194833075,-18.773569065252445,-15.230083289836536,-9.728460008439033,-11.816938311173715,-14.450773203741885,-15.361502976381887,-22.618181995123265,-29.40033351672807,-26.110238400624034,-22.934824248273145,-25.908409302564323,-25.15332317810622,-20.870723979131597,-20.179339960942947,-19.004264831344596,-18.97076950018744,-30.01171518585094,-43.50558291382067,-43.58197933724989,-33.65158327176384,-21.073036804126854,-8.417830582899024,-6.965398573151942,-19.47009102402544,-28.646684460333354,-28.48206399280418,-29.25907996999463,-29.44057046467859,-23.973817105562926,-20.713361427048913,-20.45848467530063,-15.581415031503553,-12.990278188477106,-19.246628980792664,-22.468258027055388,-18.65294279736828,-18.50879848468756,-19.760723974425755,-15.818039814587777,-15.529989269692296,-21.993848304635765,-25.92154597359948,-28.84253149112572,-34.32190581509589,-32.75498122243278,-23.961422276129685,-21.323750157048345,-24.783845481621803,-26.499404561230566,-28.549853234489078,-29.634303258032233,-24.95917078747935,-22.15009748108477,-25.71114098108785,-26.223096560850266,-22.63856669190772,-22.65520259135162,-22.238102757798828,-16.376282914566733,-11.403769003833045,-6.573933058312479,2.663703765303421,4.0891863409045826,-9.750978580432495,-23.45248552716853,-28.005831150813574,-29.301723722771282,-25.647448086930456,-17.255704014493244,-16.40452542947896,-21.864283660263958,-20.148875148199828,-14.742649918680748,-15.686757903335522,-19.531224683786533,-24.908813329970684,-33.56750210138834,-33.970281360600524,-20.65566015229709,-7.499687395442856,-0.4546535084532066,5.721111421771618,6.508545472004775,-0.4001008133988142,-4.910231031065284,-7.743970004885972,-17.77931444852938,-25.624477574544763,-20.125262524106247,-9.510871042324665,0.5574284990119893,10.519008104085268,8.55061045319339,-9.803158641759875,-26.454899590143082,-30.029889521192466,-25.44762408059985,-14.508063488221719,-2.659894145869518,-2.754657684032064,-10.119048361806142,-9.141281568436616,-2.245132732813622,1.69843724047373,4.1130380622950735,1.9599502746641027,-9.997903139711967,-20.461685098479045,-18.390069183443487,-11.597978440987465,-4.8241558094027965,5.935083925067501,11.342562604961858,3.054369225641648,-5.8355225028173185,-6.0644191785866335,-4.221362747791007,-1.002107271528272,3.2281265043453193,-1.2457845296929084,-9.844307203153122,-6.978107269812211,4.366137603791175,13.865075294213025,21.88664395136992,24.524770221393403,16.536691431315457,8.67627039534193,9.028566436820373,9.499755364905273,9.200558822471349,14.526372577423054,17.91325423623771,13.212935702351709,10.36220545001132,11.618384513709758,8.742240600344825,5.946750331598115,8.606444399043635,8.865533648107796,7.667509268757211,15.547955594782634,25.98376533947465,27.082179266385022,23.469949013313176,18.38085000979396,8.396884674110145,1.94063394636978065.087485912624084,7.64858358757556,7.06755011295618,12.423399696963832,21.332392554666193,26.060304854439625,27.665508656954394,23.990292962941673,12.029296092126579,3.193814464442454,6.249348899146524,13.487375260705274,20.781991114327123,30.287667226154117,35.26275113909502,32.34624268491706,30.19061959530459,29.244040845630686,23.638954346715558,20.65937777404945,24.070949214320194,20.755121440070837,8.866173966790955,1.4685083314179046,-0.8335426451521376,-1.060539645069709,7.095109069516589,17.8645330690069,17.73029984331811,12.168376372225275,11.585425484042982,12.093624428286777,12.033860752425662,15.122114533659154,15.415586185736025,9.732358630989152,8.34390614254524,13.511450002098242,16.004795057286028,15.914984839527557,16.039442613528816,12.022141255599855,9.068726675151021,15.448412611744073,19.957875696406635,11.312495513726992,-0.42834699102400586,-6.401706933902641,-9.266184444894778,-5.533770625519498,4.1929089049257655,4.858009004492649,-3.8818296640258763,-6.105670000292477,-2.425404040893136,-0.4892757715299943,4.164445130171936,8.567240691424862,3.0575293402334593,-4.993844456435695,-5.795065883817626,-5.234494089494646,-4.860467041859718,1.210769513517156,6.18324627136437,4.5414335126740415,5.883289438681736,10.051273655753251,6.423079563718146,0.11369476767134601,-0.6070494089429349,-2.1226473096880865,-5.29066964973987,-3.0827066997147607,-1.8983270679956483,-7.1874919678593905,-8.760457311458254,-6.76271217218488,-11.476903048797393,-15.167570193912038,-7.998186045654943,1.7312661653501364,8.875014981637584,14.62961650338613,10.381027276873425,-4.43858434313918,-13.15820476174834,-12.458675921982934,-13.4240048576029,-14.26844238743024,-11.69979991300044,-12.978081638205687,-13.996209279944008,-5.596131705489423,3.705223093974424,6.356579177590234,8.066504942202704,6.828572743124026,-2.702501963579434,-10.929699913996402,-10.158546691659286,-7.796497309158435,-6.5218342587826275,-2.5630221276782166,-3.1256710567795274,-11.607301933462232,-15.785775592752268,-13.99580519952438,-15.781976128093973,-16.30188006962734,-10.049563037427694,-5.746111344433139,-3.40763686556135,3.5648712455159677,5.746671889233855,-3.2994623838542414,-11.329371230398229,-12.702025785137511,-12.050729088029094,-5.116403328147085,8.660104069954599,15.522113818357651,12.719648579235749,11.654526231362928,11.997645851121463,9.583828016038623,11.10216340286917,13.562907388184879,6.095984451140445,-2.9688358439173648,-2.7222876476265236,-2.4244654543902606,-7.421883064578991,-10.90340757712544,-15.818468323230986,-23.866536529941964,-22.68133678070118,-12.43624644582858,-7.358013637932127,-5.939700954891011,-1.0147812569435073,0.6399203460923589,-2.2897497825151794,-2.2497682838713726,-3.476616653746389,-8.564363780629812,-5.949236610797769,3.354152587698513,5.441130988505316,2.0973041839150235,0.21225207271163943,-3.453949989006429,-4.047334959955609,6.715020256551902,18.471969953934575,19.72244593823929,15.437728807818507,7.003038868938717,-9.1572614617631,-22.269667482930394,-23.086026112962436,-19.53544855509534,-14.806785881154036,-4.785281324596889,1.908841275100748,-0.6523750813950415,-1.6699726096928522,0.14533895329320345,-4.757440029379197,-10.147859927851856,-8.167534212134491,-7.109683585965829,-7.716213492702283,-2.3536810823044996,1.2506760638521506,-2.9168808915424,-2.5018445712135926,5.535602240918841,9.200702524446204,9.2205639317465,11.233576848883311,8.12358325543127,0.8224054993290251,0.5316461438806775,2.840104382765306,-0.3998922829005722,-1.9928546641204505,0.13665290145606113,-1.8959245685990096,-3.9690944211441916,0.04823404540473408,1.770715801132976,-1.6425415640737193,-2.3131483459251188,-2.3250713604447446,-3.916098422389399,2.053365866312736,12.744601304828107,14.01829488542418,8.18123760114509,3.866968399422076,-2.2427880078903097,-7.7318891808354815,-4.091175561022094,0.9655002716363197,-0.6981228147740506,0.45780333433858045,6.785112008887963,8.958850679085046,10.781486329874927,17.21791135345638,17.92145269089917,10.193645840645008,3.382947640624812,-3.558125782388716,-12.202881947549109,-12.299088970437428,-5.168757305297863,-3.41541602542037,-4.417829135644876,-1.6735602756291503,-0.6727949264047849,-0.7067910749638012,3.823921940675428,4.70910023831985,-3.0621243449091136,-7.98917352720364,-6.195188366664972,-4.001867529134179,1.5086723481795035,9.90792320047685,8.768870467037395,-0.707499739420498,-5.090243087274884,-5.605022197284377,-6.823026181480726,-2.0164718592204145,5.469299206321905,4.5518965594558445,0.5267094751762211,-0.5450277288004237,-6.589465795087642,-15.865315923890272,-16.69202021144163,-12.494020132995944,-10.215133599367705,-3.768231182830809,5.40994789543644,6.3545783647345955,2.754887504243979,2.565286419786873,1.537353607700856,1.0026699219106256,7.220676205594662,10.981856646753426,4.217782857006739,-3.5892651242637523,-7.220846202006415,-9.607039088123628,-5.7653632338616285,3.922686545132475,6.655525179072205,2.436464642424723,3.1487960005487583,7.26835106290868,9.323900625700507,13.71608033731106,16.15254301198048,7.0833640787115435,-4.465512000944043,-7.357737613906607,-7.695400864472333,-8.866230967788585,-6.590961209735639,-5.907442631319824,-8.995067177319418,-5.316111119571821,3.924922876902335,6.348218315672632,3.899120010276463,2.1800937177796182,-1.9920546145983575,-2.7427466734195605,7.70063921115011,17.727578765785246,16.54072756187898,11.903370332547336,9.481178022748761,8.797127964007945,17.00612694722504,33.02615177125725,39.35641123657013,31.677303478787028,22.528342080741,14.539093900618273,6.784942574103024,6.41809894202377,10.044141760294735,7.593579841565347,3.9997341510681905,4.0881313409467905,-0.25444536864264755,-7.884051523016968,-9.043120526264687,-7.614047175921033,-9.009457442644496,-7.16455451393204,-4.170514943458777,-8.370020836224766,-12.347509630411832,-8.241368503012964,-3.872274109587237,-0.4712052972413031,8.529978938236734,15.230597058924278,12.648720685281258,9.732329414493789,7.375166793284284,-1.5743165768988483,-8.92546788129784,-7.138104583606095,-5.338188386992647,-6.6603201192121935,-6.639841564650503,-11.893173719945821,-23.54482997780005,-27.21586013902446,-21.34051163670081,-16.688574068141303,-11.230315393219431,-3.3456462547748953,-2.585552129257142,-6.0621993795424,-3.110715146968348,0.497330109676826,-1.1297803878589583,0.6003513128427596,5.537011817888487,4.8298985429678645,3.8295489275584194,7.081704575336234,4.980526470364078,-1.3943241549434158,-2.024873140389767,-2.6286690968739164,-9.727380944066931,-15.23454345619034,-17.550211675767905,-21.646248586733428,-19.926997298591065,-10.122379042131083,-5.9238168241534845,-8.323424190355759,-7.655593199365997,-7.9010082154362085,-11.654712717993748,-9.9632342560983,-4.740652907733781,-4.604799699685471,-4.529584966528688,-0.9665897794799616,-2.250126171185849,-6.615785908203332,-3.9188385589581207,2.4246024804642827,6.74195814495501,13.270241749065395,17.734158415989082,10.498304755546727,-1.7626199064080814,-10.337552497711924,-18.5053103724791,-21.952013223036953,-12.267904923430766,0.8406176010110733,6.7396911981604495,9.27075775873556,6.846646320043369,-3.8179383090414563,-10.568555085152838,-6.418022439002657,-0.7773970222311479,4.428041023311937,13.360138378638474,17.23872542507214,10.639808901274332,3.753325545246691,0.5279636252530822,-2.312700098006225,0.35569066087294954,6.847390979169118,3.1884921424512234,-8.664794897547488,-13.537930299525176,-11.41044793944879,-8.504818346075893,-3.223212701195903,0.01291139194437041,-3.4986545702086707,-3.52623770809304964.184240075239105,6.467600205776292,-0.5750935585183812,-7.496613741242735,-12.592203720113773,-15.034672385453915,-7.457994820583129,3.9648035576032084,4.925351692563446,-0.4709274176822187,-2.451915504926203,-4.434793333385185,-6.083942346389509,-2.2262370780816076,-1.8959002124499413,-11.521486600880527,-18.31138845626355,-15.946611809188997,-11.656973451433373,-4.092626120589,7.660646577838527,12.23804336503392,9.674815978237405,11.46107032376327,13.552615886038318,9.403928725095213,7.945136622821234,10.855956645761772,10.064905991780735,9.4008958408646,10.788676399691187,4.231286449441621,-6.285349923568017,-5.648063283056642,4.69041300137792,15.743818674623265,25.47495582620756,25.280805816586515,7.245835497725762,-13.824035435910162,-20.212739083950524,-14.025832693618653,-0.2015013745099301,16.726262039943986,20.771245322773524,7.915837473810501,-3.186401699144965,-4.5224721297106045,-2.9043717928500117,2.3664279341079335,9.307162822895265,8.528052120406784,4.599093161763751,5.728658089945529,2.034297409402286,-10.336160664781522,-14.15869268820699,-4.181244350487967,7.30597629740176,17.49455525287869,23.793089123829727,15.423292690069438,0.4771116188902633,-1.6915014512830806,4.775372138521274,7.08176230235828,8.927538229573575,11.738738155216057,9.383383636188206,7.944157408406692,11.926795230522739,11.28417517219487,6.445053612700317,7.67571093122684,11.096834623405494,12.430556310703153,16.246904012637426,16.527193022997153,7.763599875343432,2.8661468825566985,9.788259453174186,19.67621615156608,31.753763843757298,54.77234106365715,85.36740958910157,118.69140411168401,158.19717323785846,191.68797783732515,201.04881817810352,195.5188886311231,190.4868191109064,182.90297267689175,172.26083728914267,160.46193732244942,137.57327763636357,105.36111967011192,79.0641162354527,54.28750510964875,18.942224630639128,-17.389466478640372,-42.5883937698058,-59.752437030491,-69.6146687937288,-73.91043231498286,-90.27934482798813,-124.60598310749992,-155.8433464682823,-171.7973341149345,-177.97348359009314,-174.79629001624153,-166.92388753783956,-168.76228325723912,-178.4712829360592,-182.36516011196665,-181.93742560046064,-182.2636026158362,-177.2853990620676,-167.72727543715243,-160.31057452796642,-151.74442353804196,-143.61543723473272,-146.70298844412818,-153.88431279593547,-147.20627423400384,-128.80407623004695,-111.17964092190681,-98.96016808350464,-97.7214401345945,-108.48962813668254,-114.50134148147811,-105.50054861976163,-94.76046375575399,-88.46111530772147,-76.92440319346986,-61.922369214690534,-49.239705967594304,-34.718512468152554,-24.83372796139745,-29.47802085962555,-34.89842684484929,-26.013338786078343,-10.714844725035569,3.0349765160419415,15.799253987068452,20.320877064359266,15.26077364723304,14.995514255456353,22.076167832187267,26.018261268213138,28.57096994790724,33.18631094893316,31.941819896711017,25.701914919222485,24.38641450785266,25.95597959408088,27.49728026671088,36.5708757914171,48.716683663847334,49.73317000963689,44.217772436625694,43.463970465408686,45.18641267324281,51.33477709123923,66.64561139266945,77.52844662440657,73.95349819099616,66.70989189641519,60.89564637764779,55.0643212133249,60.092661511487094,78.48481512764761,93.28505737464873,98.17756759960142,99.17658274390209,91.94906051148496,77.05453020595147,70.59135906980636,74.92456571679054,78.67306431494887,83.07639280072942,87.68870623550211,79.40601208023136,61.609016924382914,51.235796454931844,48.488592960132515,49.128915372009324,57.67302274472077,66.77980939418389,65.65760732873288,63.06341431105693,66.04512045350266,65.09094256414221,58.387343984948714,53.7963073250587,49.900364972637696,46.90959535336844,54.01305640645613,65.99931443159926,66.29243572056318,55.68548918184747,45.56903914170518,39.29092235878858,40.93276543947601,52.7789915494944,61.22646808231448,56.30076141573619,47.05708832762554,39.02066808372122,29.876842346469182,24.95601450641656,25.25520002219583,21.84874908596807,16.684320049376538,18.02297574193518,21.12196514286693,21.680180774907146,24.678606377417587,23.835437795185626,8.920004287160907,-7.800666685584302,-9.562990643322886,0.6619713031196173,16.6057227394492,33.094419320350866,34.300445732720235,17.322157707972377,3.6192965425572527,2.729815924649854,5.084491282442297,8.64395773783763,11.963935559942218,7.016849383634248,-0.2889767086724473,-0.43203318165032045,-2.0487860302942975,-10.665009904060154,-16.99952399820019,-20.734032710477795,-27.970469101835654,-32.37656520508101,-30.348073988942808,-29.07841181430583,-25.295264546526532,-13.409660554650971,-6.102400706371221,-12.619488198581605,-23.629689403039354,-32.54749411036947,-37.68096756224397,-30.86670686134663,-13.75539473900848,-2.989418719601608,-3.841302752906507,-7.617492795426574,-11.797799346892479,-14.889674025411315,-11.087937545681333,-6.53150535343336,-11.134129797100586,-18.717308096627246,-23.23368633625964,-29.15177073419227,-33.28854841885871,-30.735884029897875,-29.987384745633786,-35.06953984411461,-38.4985583181443,-40.765642321618316,-43.587882963260846,-37.021350452361354,-21.498687117182428,-13.527012305961868,-17.17654195546222,-23.519253533988564,-30.806695559038175,-35.93907170793226,-30.774201639177157,-22.969127042073715,-25.328114063681443,-30.473892094211926,-29.343849670201084,-26.827976321889185,-22.006653781629076,-12.01317877443243,-8.966565342371322,-18.205075141014156,-26.96021182166803,-31.52860196426886,-36.44645545849074,-34.90607925341516,-26.68942036593339,-25.05212829398657,-28.785592286546,-27.586870131029876,-26.006551458012563,-27.820176328388285,-24.87282712351037,-18.582018772877493,-17.41678333165035,-17.7261394629433,-16.649466775872664,-20.51464883223594,-25.515251667061985,-22.35212014003062,-16.731016111012917,-16.197953792205272,-16.623936066362482,-17.965501233412358,-22.983387888478294,-23.058515358101836,-14.716211894523648,-7.980121748628616,-4.266895264066585,-0.1938345348358126,-3.513723280028902,-13.605547545502047,-16.130556528143366,-11.632610910021278,-11.159620458347597,-13.060166147137231,-16.00414363641884,-24.131570348541963,-27.598411006979088,-17.44701125347717,-6.791680185953551,-5.9762311207378485,-7.7469323475669905,-10.348083725264626,-16.915911031420418,-19.683971853841566,-17.043855869781634,-18.554654812646387,-20.236175710479458,-12.626032908733983,-2.928618148345535,2.8089168671912796,10.092404535009532,13.643035441105443,5.932496700044356,-0.6427075406046845,1.7336668572505687,3.196798605460603,3.7831856256878718,8.167213950317525,6.224363321513597,-4.176852932956153,-9.212233997460771,-7.521219142874624,-7.104939034146888,-4.4962800262476295,1.4741230869064965,1.9957883855572884,-1.0107916885443458,0.11382016050946908,-0.5513370360227653,-7.059497215624727,-10.869191912307016,-10.437599440276145,-9.890710457634466,-4.765866080696192,3.710910970203806,5.387229523765522,3.8989277266556512,8.4237140861919,12.674639648545725,12.200055642222873,13.402904392677048,13.04811648047901,6.8029070499586926,5.295576165889395,11.510572130160105,14.218752372385474,12.849613331919294,11.920096126734753,4.7706205926732625,-7.004182455937981,-8.762127880651658,-1.3863793268834197,2.687725171692017,3.886316475825005,4.573224534593607,0.5542129307326993,-0.9924062894130103,8.734267976731433,18.01034725848511,15.915944140680168,9.480286167885346,2.096633767136936,-5.914620553045835,-2.8774687754395747,12.312239469087027,23.040172289454873,24.684458537247686,23.894758894890273,18.91101969419534,12.647284661065314,15.76545046791055,21.45366262816177,16.3241005323557,8.1653390124040336.2950979970464465,4.126389982297272,2.212173801086315,7.5226936709977,12.704178960442963,13.462042729489946,18.492388972338187,23.264712981969826,17.1558531346544,8.126153452721287,2.986594734843221,-3.5530875528509474,-6.079097331913299,2.755743138674589,12.312711994649586,15.068206796827198,16.87779674441225,14.94015206945447,5.273683350691061,-0.1339956405122238,2.4761141452017243,1.0159808802965486,-2.363392989390463,1.7387782015192983,5.467652904902696,3.792775100551439,4.774659107319395,5.594527332461251,0.992771190748964,1.4222174730968793,9.46434111222229,12.886709697874618,12.847430421162368,17.214868003217372,18.183267328245897,11.453040325132022,6.3820117644603975,2.227694264944483,-5.9221595331302295,-8.607877155734457,-2.7614445611389704,0.06702689133255539,0.2570813811374504,5.433054618216385,8.657087786857293,5.601401760513513,5.188623537902283,7.477677191038315,7.616975906570127,12.355645066523568,21.002952889756248,20.03662718833594,10.849953832153894,5.220580624104969,2.4708287347898645,1.8303318979865157,8.780741155818285,15.595120759276483,12.395682698403062,7.7185632712249,6.719560534914076,0.8104710199634335,-7.179854892428911,-9.191539600364958,-11.180239306900988,-12.787548166180201,-4.2681336437422335,6.301525873810821,6.040644249919506,0.4225359879760555,-5.102656783011539,-12.134746871907373,-12.221435184466234,-0.6099773811628304,7.4216908128646235,3.2715640262172783,-2.3519281330092845,-5.03595461737407,-6.9675446679592765,-2.4991026364617452,5.4105949465285885,4.2618301483295244,-1.3976935888332724,0.05421362721214762,3.241582581830199,3.4330231040968995,7.503433307371351,12.041778890760636,9.56407195622685,7.014295899099137,5.59634256349023,-4.322661813932118,-15.7355417161543,-15.564253674467944,-10.073323821431401,-5.7921733264617155,1.0233222865159308,3.943519745165601,-2.9532435716352037,-7.459805285361483,-4.214412336879356,-3.648921513262529,-4.8147880100952465,-0.7792536158213097,1.566561610510385,-0.3069244873144479,1.7730599632406407,3.872739493615848,-1.141845172780438,-4.364885831285205,-1.476764695686778,-1.8547679886975685,-4.0042054140877585,-1.0264185577718898,0.3022386012934816,-2.3071269569643142,-1.0094326173833355,-0.6237644968711515,-8.48604940256955,-15.290504358495815,-15.020544533685223,-13.892813874166023,-9.802273810409293,1.2514709817559933,8.85327567467649,8.621409084685775,10.193921664449594,12.081559575539075,7.649532057394918,3.8930191105363123,2.5388365036612353,-4.242225003876601,-9.620568309315168,-3.1125895063742375,7.387173428289135,13.5422184972271,16.728042138727204,11.689065593528404,-2.884096646103216,-11.904210037025525,-10.471068038509202,-9.517046510296783,-9.19271384611067,-4.855560714754969,-2.6474172916649814,-3.6229279071283838,-1.5688524076103563,-0.9087953630564951,-5.330720328016508,-4.441822425780023,3.629592343698175,7.1515993005700516,5.609038055895086,3.8990967684624804,-2.3704517780805845,-9.856572240963553,-8.542506958337865,-4.094124939134941,-4.1721185771316165,-1.8042536383445091,3.382846904952282,1.8752422385153558,-3.104139315820483,-5.514295529155371,-10.927805602238449,-16.51747758597943,-11.745684265543705,-3.540515596665506,-2.654023244095524,-3.2124309241130886,-2.436855934280748,-5.969888612254013,-7.947365334247555,-3.3513231263322885,-2.111552341208955,-5.174584265176718,-1.8718522577768104,3.9267635656851896,3.2369674696560535,0.8952974400122298,-1.3352869695319587,-8.391944890396562,-11.853065647943485,-3.1138011211407663,6.729953273028385,8.46286215337157,6.162525454392887,-2.198425707478429,-17.139254938670668,-23.307198037002056,-14.456528301941667,-2.894664688863986,6.0439754691798,11.459222306242113,4.7725583323309335,-9.016892196613728,-11.902745786891096,-5.012244792244886,-0.7086545242246682,1.9927399795875615,2.2911942515743213,-6.479114140157391,-14.850920984187963,-12.68114008143873,-9.454438134613886,-8.897624823617956,-1.9705700972952453,6.499791896731865,6.355330757661168,2.8482558079424285,-0.5502069420647524,-7.961661842202983,-11.17940832464856,-3.1170179329572756,3.922903966993063,3.192746171119172,2.708364429395536,1.68806484937573,-2.9907895806266143,-2.0860983557392485,5.555131123089726,9.637302481141393,12.12849693370532,17.460060108378443,16.481844985989362,7.5697668546622126,1.3626884241036752,-2.050834751595863,-6.3912773113286665,-5.680147827399001,-1.518169132436103,-3.167259733954914,-5.368484110318919,-0.10132456955620306,4.883926634713271,4.7438114749864635,4.7280577453304575,2.714525981359258,-1.9354895817169295,0.9613626773079786,9.852288104699072,11.727378782489744,7.806539840863179,5.048546688390667,0.5314924778779073,-3.1341091277842468,-0.2735514964510548,-0.7819126132146907,-10.5135666592084,-16.1637267335333,-12.191708010884577,-5.770863003482076,3.183144264720977,11.036828913324529,4.664282089170402,-11.605116332632509,-19.39602649511059,-16.680721402698268,-10.366050427530196,1.3722366439207487,14.21274253084608,17.067943862189484,15.017731980444953,17.557512275726538,18.292641566065313,15.403196949775404,18.155632596712742,22.29782152225551,19.722748311743963,17.371000353531613,16.064118683439553,7.368831581719098,-2.622098048384138,-6.6066477610440595,-11.831625301348069,-17.996009029586382,-15.506753712359476,-8.757533385891097,-6.615374739743396,-5.488462878749878,-5.402223437894253,-12.723914592597415,-18.930150163836483,-12.527152329751399,-0.3101840031685832,9.935433983519449,18.27768553796158,17.86178175623279,6.22816300568296,-1.9282451557230649,1.8508319116867822,10.009121356600785,18.793497203188494,26.093404772895077,22.82254156888455,11.630709357245685,5.646840828125265,3.617998698353408,0.2553834714324641,1.8165072398854145,6.121105949172423,2.2936465306151437,-4.772207846153904,-6.772555411556396,-9.35413790596135,-11.12243098789143,-2.763444341100257,7.993980731247077,10.401879728365849,10.037411391458235,8.192059647885678,-1.1119098037168071,-8.784279240414072,-5.027820109880517,0.7137518221531178,2.591726530713501,7.140060312446528,10.590676399424323,6.964276983912462,4.418443972787098,4.340814954197924,-1.7031271447847214,-6.8360260818994485,-2.1969213059410113,1.3473594499227886,-3.103067890332311,-6.734172360460695,-8.055423970527512,-9.702173709204157,-5.246239082988852,1.9932062785612263,-0.24613307161759046,-5.642202274306771,-3.1798118589086757,-0.7546828987260024,-3.0028321084422616,-2.4466419436571565,-1.298619956995662,-1.8081005975922133,4.7727759044468385,13.237004082202157,8.613429902009516,-3.3502182876112725,-10.730724549470759,-16.139087558998206,-17.368175410147177,-7.39104947941412,3.8221286364440052,6.327484357176416,7.085470856058118,7.522838136341337,2.271311908519767,-0.9068525669563549,3.0383058503742317,3.700411569464653,-0.4553054775602985,-1.7108269349834027,-5.0868712630743325,-13.295428491548984,-14.795162621055242,-8.73090860753894,-4.055511075192756,1.4549425656751012,7.476432122903471,3.9702563135703133,-5.510533859182379,-9.211940411035302,-10.421184623578212,-13.197315166715649,-9.607174173854286,-1.0528056793411547,2.81834596361915,5.335738297660977,9.533431884864294,7.170974413041124,0.8377602844021399,1.2130327201627074,3.173749186052728,0.0704729915558755,-0.546375027089881,0.33109368661337313,-6.79713628067907,-13.770747189291548,-10.078396712900101,-3.141489579031789,3.2314760624100134,11.59363635301141,10.96540987625734,-3.9959606997379105,-16.507776206158244,-17.653019619885868,-14.639771939749279,-6.920568835923428,4.8010684821361735,7.03816934509145,-1.110895926737892,-6.4273812155628205,-9.316217699537967,-13.639752098293636,-9.9929365625422340.4993661493764745,4.981709806020852,6.285693857190989,9.587573012802329,6.676386270114161,-0.3849244518661066,-0.7223737028751417,0.4226924540738813,-3.58916420723837,-5.192849571658755,-4.429404683637553,-8.388097013291052,-8.961129422384067,-0.0701797184787325,5.945520509246046,4.0408594659900405,1.7662352923937679,-2.223280113469551,-8.3829461963493,-6.09069693809397,2.590764094419294,3.7451595513916502,-0.02294287428632158,-0.11461807451351325,-1.7853350713126688,-4.232373236576372,2.469938588010673,12.48264232072879,16.88943506159083,21.358121072297372,23.999915063604533,15.670475701248392,4.856914271154573,2.0089586449937022,0.6032289047545357,-1.4147648895237412,2.6307142872595928,7.048213209056868,4.718780988192571,1.9500654497118568,0.5447802416532648,-3.3765763309447525,-3.402147509897572,3.0469888189744267,5.40336705773765,2.02384069023741,0.06867037828596467,-3.9648362108748487,-11.54194598390291,-12.38215758403546,-7.9763702204862685,-7.960848691671497,-6.196820583996223,1.1059616536572898,2.813931174966851,0.02395490050289517,1.7619359188142565,0.30012024213495603,-9.036846486242979,-13.568796165173799,-11.061236806453444,-11.6835163802831,-12.989311191008115,-10.78636467624493,-11.844563686184651,-12.98709145834665,-5.5917760378037995,1.0478806492623343,-0.5728878998028526,1.7535172283000593,13.571266780017474,27.435820693586546,44.82000307723278,66.6855567738508,84.2599916362496,102.4518441735828,132.89360795591713,163.283401864236,176.96612089685445,179.99278689205397,179.02000297236262,171.6650404762062,161.6453421917421,145.40333330521736,109.64769460813574,62.51194558428364,27.36356112573187,8.094446813435642,-6.148761379314466,-23.017060514084186,-49.61606542510264,-83.3800445644959,-105.34730856168589,-108.46868718864889,-109.28255697385549,-118.44122007598794,-132.775090484405,-149.99666486732812,-160.0855594131113,-150.28047127221436,-133.2039956242673,-129.94089758733602,-136.7574727181741,-142.77324581925004,-148.0061365130395,-146.54787571659173,-131.5034684217215,-114.72622322596027,-106.67910710115854,-99.58944545502573,-92.40032417089967,-92.82203356663665,-93.33762451780024,-85.0789898531554,-75.24868286005872,-68.41544113821621,-62.320748609049204,-60.60482028080766,-61.26484421974922,-53.25937123404736,-39.449060486079816,-32.674296589855516,-31.840544448095404,-30.587835990006408,-29.557838299384624,-24.2454210932624,-11.414663603134965,-3.3827112933835544,-6.697057122158339,-10.071928311414714,-9.622056248758758,-9.944161165896642,-4.2412701016753465,10.077299037639028,20.96519080769507,26.417286933689635,31.785694987048597,30.476600133098444,22.588008413822266,22.395107911889582,29.711159013859763,33.547271928452865,37.162569979815046,43.79274933841225,45.33291460168517,43.63676408853481,46.09106241133373,45.86007300377234,38.767362268349125,35.082477898774656,37.18569048889836,37.86663783036397,39.93064330401265,46.39686397732311,49.549406147299365,50.09764522101849,55.434156778284844,58.73441403191967,53.99900179684036,50.6009478064759,51.23250311475917,49.874864313855966,51.09587181769547,56.684410875869645,56.35268939312195,52.38092638219236,55.20864447046583,57.49411777649493,51.07293711514966,43.59703349575792,37.11931408927073,29.342715840458258,30.182512510185727,41.24159385647202,48.790403445586975,51.92597742052324,56.999515517204976,56.536983411433376,48.19759063950561,43.07517803999033,40.27087353513847,33.36186178328,31.314281473963412,36.77237397367787,36.49350584231924,30.460430019953655,28.62902541506194,27.346314545862718,24.766816823494516,30.64760480269175,41.76357547061416,45.18978263925722,43.17746079356794,41.313266776846355,34.8472355008179,26.849092333046293,25.5230019512386,23.905880750977836,16.03930618637944,10.911229829858671,10.450169286472747,9.527192021216111,14.677178577068961,27.066964636820686,32.57567284065193,29.30213278269575,26.220627804406508,20.164551246932135,10.313589215401677,7.371224361836127,9.889417754855238,7.844849623038631,4.854689519433196,5.5878219623276895,4.2903664630751575,2.0990062255834236,4.412383190504991,4.700436527756577,-0.6658568797404123,-2.2625475573744027,0.9493306858136095,0.8141207978089653,-0.3529469982215369,0.020583977529892494,-4.611933825398915,-10.758328600050877,-9.097628492878297,-5.734771250240232,-7.691321708878205,-9.072531117516615,-9.873363369239947,-15.187857650755952,-17.196470620338694,-11.184733264327136,-8.459191322043411,-12.007997132731722,-15.083758615372636,-23.092256262487833,-37.37647916801487,-42.77568391786196,-37.023522658651615,-31.203049279954527,-23.76549283011408,-15.166087772029542,-17.460907061747278,-25.77544303772292,-24.19032944809443,-16.56821347800451,-12.706773015010675,-10.169065363415925,-11.443964674134316,-22.249475903706045,-32.196152263344246,-31.301098279682506,-26.03535337471848,-19.586878545787933,-10.261243571047295,-7.987496444375822,-18.343964332001697,-30.262193030697187,-37.79280105553106,-42.150478806068776,-36.61621881990947,-22.512169377331908,-16.657357917228975,-23.820473916025414,-35.42829867627871,-49.06269640722637,-58.016291648296296,-50.74816933540763,-34.72624859521814,-24.392150823637426,-16.56755568909916,-8.212481096774713,-7.168668486089497,-10.266325318353847,-9.013062282692564,-7.625611613084992,-6.44261961473196,0.5671952953399937,3.8308966263661057,-6.5448057627496095,-17.990225975297413,-19.433461299580195,-17.019327837855947,-12.592547992845457,-5.349230935132232,-6.151027077098002,-16.83411269831965,-24.058336407969115,-27.4868674936231,-34.23546191205619,-36.9252972609719,-31.824276038049028,-27.20446107781391,-20.571328857918395,-6.388195880834038,4.638468240698161,5.121057415665536,1.782711311618126,-5.427264911013327,-17.495679515158926,-20.541096791105172,-10.4733572365455,-2.3469876805118752,-0.09087187872061203,1.640631679094253,-1.8897199045413244,-8.020032000462114,-4.26522392950934,3.476392615716314,1.4487270331026239,-5.116333065862093,-7.556905601467694,-7.3483714007455525,-1.763789574352277,9.618738951572643,12.652648051267292,1.9785869895847585,-7.995952933320479,-10.298182216901633,-10.336770057536112,-7.251573766704562,-2.210256602232039,-3.9706715673259163,-7.63747006753795,-1.6247848352166214,7.8570087448497805,12.455630719725693,15.245110970440956,11.565056292278937,-3.0760418526314997,-12.793958509044154,-6.102173764223748,7.2470209475610865,19.92374381605414,28.49289155662033,21.62492923457433,1.6956471358830196,-10.882282801863926,-10.677639859766815,-6.687979659328961,0.7878424882553388,6.916130615046189,-1.87631576723745,-19.185308799532567,-26.44203883421781,-22.415912906079644,-12.488901811150015,1.1106565238663166,6.288687695078023,-3.764286348887114,-12.424045473789812,-6.775134524960135,4.750127217862202,14.928263769715265,20.860324131004667,13.825154042119358,-1.5278071095201726,-6.76815387813175,-0.8161327388805089,5.280289214104626,10.968361938372281,13.29757885898014,3.986050725716528,-8.319697531633667,-10.597725817985964,-9.03028067603174,-10.006091869065774,-7.992651131342065,-5.8354674267079165,-9.415888965265314,-9.842774586941612,-3.1206955372913394,0.57193478386406,1.9916788296784937,7.912581045421198,10.21642543581233,4.883646161916268,2.3744625295594886,3.4328372125287894,3.2676058391456833,8.85346299692205,19.71425261913395,23.07579740334273,19.916238154813886,18.4363199366392,15.083251403332966,10.579975272679846,12.87028497115981,15.958496454828671,12.138952186946284,9.251694435750323,9.838303627045562,5.978622653091598,1.1316440600516549,1.7009043065506853,1.4906776939351714,-0.6144161991250435,3.4340598213189.375695450684677,8.459618918550937,6.222055230144265,6.245402538530545,2.213181442977058,-2.003279644180463,1.5227239181680692,6.693240547921316,9.326444589987194,15.163804912585062,19.61746616621351,14.677896928471203,7.90766870158042,4.671846723146025,-1.0064221091006724,-5.14145184058108,-0.630544201800874,2.5808994058648955,-2.4007861773826793,-6.260512626688265,-7.355263810238503,-10.12378322344449,-7.679954736475725,0.058444951625700625,2.0229848337846414,2.493704035812544,11.317321189870196,20.488157749597395,22.17670590184547,20.355116684112016,13.798823764923753,3.1059557388423062,1.842907093314817,10.834331113594292,14.722720339312515,14.06137093924211,18.049374462631228,20.96495589843479,18.614510911915758,15.986576143622559,9.333272404549763,-3.3032585849589684,-7.868568895546191,-0.06319412471628327,5.071965228411138,2.7247828963795193,-0.29936065287784674,-5.321180231949676,-9.996340973556256,-4.901721783919822,4.112247281849635,6.306622587732353,6.255251209143481,6.106749661367418,0.10428240508877318,-4.662826237763825,1.0900460473798583,9.020079933160837,12.115502436577055,14.718273928265837,13.426649955522212,5.141024215078933,0.9307014727501299,2.696870392604928,-0.4118577516184365,-3.7808860431921922,3.3567962720947264,13.90952192815952,19.40780542913535,20.180996964933556,10.022855081967544,-11.035609989360811,-22.511487176424126,-13.892638583301654,1.933715817155238,16.09125010179802,25.085855741386045,20.0111571662107,5.59993785381055,-2.0226342651036244,-3.5931583292168057,-6.612139138296501,-4.920192971967775,3.3621737204538555,8.998000542061545,11.805019750565926,13.528872374759548,6.359134684976185,-5.916361210803297,-9.004243370284227,-5.54108386786101,-5.303450719505798,-5.803909173579854,-6.976053955463594,-13.488438791201721,-17.447162884759255,-11.865052500713993,-5.860755004674422,-2.375138539717525,6.248819001624263,13.746820328540867,10.852900808624128,5.28634243765813,1.3167077410147265,-7.109470359907824,-14.782995734459977,-14.945340918228684,-15.478174831129154,-16.91014093149886,-8.37804564278515,4.140620521453118,6.411840246538616,0.79614841007394,-7.522972234826145,-17.510244875751468,-17.69974719873407,-2.585363507575503,11.659289257865963,13.778909305319438,8.242141264973094,-3.6168892206870265,-17.82376815881348,-20.56274411990288,-10.339929901205377,1.2303811922789443,11.745412635530544,20.135694481072928,16.302535425917505,2.8765433875141166,-4.379091593184878,-3.8807370006824984,-0.7077740024691425,8.813322428159802,17.775184595277082,11.707038561966195,-3.1791987478505574,-13.437827338260409,-20.639383832335884,-23.303692312001353,-12.834581953371039,2.4044425193811274,8.375357339606179,8.673615656969304,6.34883766542088,-3.440109258779806,-12.034506596409148,-9.860257298182077,-5.2722512963156305,-2.412540725955206,4.401007787127908,9.33932634670417,6.0260358073340035,1.9432110690732318,-0.5425507700178107,-5.609472837717339,-6.960022116796968,-1.9844633014710793,-1.8342906255871072,-7.57362286674519,-9.241091076929884,-8.778938815294193,-11.361520392326423,-12.04833237032567,-12.45831742754996,-19.812256529629067,-26.155708933370555,-23.394270819384804,-20.740237505688093,-21.524038782573797,-18.073196709085657,-14.520971732132292,-15.295281433860184,-9.595228666574588,4.023400987143466,12.572006034596104,15.468708851401214,17.102259332345294,9.988769667628873,-3.431987101206796,-7.7898580461988285,-3.866556173311928,-0.9213795379923218,3.639310080209906,7.364859183527708,0.2966854483555328,-10.41135638563997,-11.224273699004138,-6.286681858092459,-1.9188833619281724,4.3196331124346425,7.045324609692677,1.5770021615400238,-0.5712782574691657,5.69494873341307,10.37253950268575,12.982009349022249,17.516526602785333,15.74247827227596,6.385951676934681,0.9276287367152073,0.9096187296715885,2.905313569668307,10.53870410798151,17.516751451827286,11.015760092328044,-2.776527855437422,-10.676439785251963,-12.481502420346434,-6.937604273082432,8.532312439578659,21.266984256505957,20.62943012764899,14.65978598644843,9.798304283992405,5.343893751512707,7.824945691428878,17.475953953709798,19.85061233119704,13.520824690741016,11.653429565644934,13.313868773127293,10.777503776842078,7.4079094683532105,3.6485406476160795,-3.7328314366842896,-5.365637665200676,3.00663697905687,6.029778519498929,-1.6407160412529556,-8.058920008826433,-10.1955313553145,-8.566599235871994,2.1141406713603486,13.148729752291802,9.87173646029936,-0.6028446636741269,-5.514316048450423,-6.360005576716565,-2.1712082047056596,8.829748182090519,12.553365054581313,1.268912512162177,-9.740434645510756,-12.085052359847076,-13.070082528249582,-10.680458283679853,-2.751352055188564,-0.9533693770956136,-5.923781506514903,-7.203824103929472,-9.674510867058054,-17.859342968234014,-18.821321125119066,-9.23859936635463,-0.7370632930812367,5.108289740772268,8.603246564136024,1.0715210225118215,-12.192655951293759,-15.138515123176937,-9.314468138388438,-1.812316211050718,9.978633077006783,17.683485109329297,8.615475392724809,-7.07037111745378,-15.012022832592795,-16.433685862089906,-10.634306474800917,2.8023004847541193,8.642751018162897,-1.3542285904385736,-12.665336176976353,-15.91818364449639,-14.980714315434629,-7.144837913290057,6.039597209108713,9.716065693055807,2.5311687014992534,-1.5966838217068966,-0.845196495302892,0.8514190005298017,8.640023677825011,17.345399305893075,12.394357557777369,-0.5846420774109999,-6.970201567203526,-7.757441048661397,-4.969093325066304,2.7834478620927783,4.469546713118323,-5.7482360513347555,-12.445933131816023,-6.875396674484254,1.996402259079516,8.961045615422297,10.341765643504576,-0.8551800714194591,-15.832043352425323,-19.27029392009832,-15.467926658085677,-11.630343694568188,-2.833189447965831,6.476273987890211,6.534602370874817,3.1771579279319626,0.5296705165885242,-8.462200534321683,-17.76932555287589,-14.813051830237121,-6.81164729516271,-3.7308804135168505,-0.5795428381899025,0.8874221451958981,-6.854022254364476,-13.807956026414619,-9.942152919176422,-3.9484899149869346,-0.8811535681433642,3.124870249282271,3.3364084763718775,-1.9094765338075088,-2.408808737092585,1.0662779636607924,-1.5687244844680708,-6.159714462729285,-6.259891007564367,-6.754350379740731,-5.713799603390628,2.581168640525708,9.347172154715402,8.317125156650263,7.314535508846728,6.9321226758284125,1.9748605291254302,-0.2734882450227192,5.264547008789223,9.651735721808246,10.98810832652565,14.86458277845371,14.828137688529022,6.750622553450673,0.852682363794839,-1.1945939299232027,-5.027493621361726,-4.55251608236069,1.3965234522608059,1.7822804632591276,-1.5164791370842927,0.15050366314747565,0.39214176697352904,-4.372133213292418,-4.53114499990441,-1.6944037563858607,-4.705725187554852,-7.438405294406365,-5.319043742765947,-5.698935236964404,-5.458760270987731,2.8184853136854957,9.808647403905384,7.5627580109349175,3.5219656142816342,1.0645382907131207,-1.4641272261254417,2.240908443800374,11.040071829674515,10.822445703211763,1.0798182652939978,-5.7319341859248265,-8.279439164263414,-7.6394356092957825,1.498565584946113,11.334986138565121,9.30686086108862,3.164207666206746,2.230551524876326,0.3670601719177734,-1.2359476798793245,4.780108981441226,9.369044200860454,4.346382448543478,-1.2437895885009862,-4.139752531356343,-8.971488714640248,-8.342918048447395,1.588980266612443,8.547799052654412,9.536470343680625,11.765537386209184,10.547134949471285,2.8177679896199135,-1.5217349808298815,-1.3603848937022318,-2.2105485817435837,1.279155452952294,8.714045150496618,8.387188298729331,2.7284263617484803,2.472391010667424.284574269125959,4.567199550678707,8.721834917496478,12.143448072559497,6.916474529313831,1.5481464738198738,2.1721538030639067,0.6728022274358638,-1.4932540186663887,3.075545539872113,6.11478771547548,1.8191314083605552,-0.4556935676203571,1.2210785642765134,2.586907517822487,8.544136345511163,16.78928636202739,14.019096203415966,2.6648829098128646,-3.3302906487604576,-3.958491896391867,-3.0851471328613265,3.3378536408363475,10.092659719020158,8.622800739685097,6.946015585262647,9.956283748238404,7.178260642551651,-0.67039414866802,-2.8369271712801476,-2.7893241262874,-5.512956863272124,-4.800358819610855,-2.3787202905815787,-4.583982659859526,-3.8118828144651484,3.640255400957243,6.452258690207724,3.225875106677404,2.7002728100153117,3.0033016705190465,2.2916943092046527,6.513243963183873,10.898249071579585,7.22083669672279,3.495919678544504,5.39391764763727,4.712417278209244,2.7294656868933638,7.155380045592746,11.078741228062936,8.919829739338722,7.494888093982234,3.9947834034929324,-8.415219853185615,-18.67674412280989,-18.035800499706674,-14.331365354420491,-8.846776461811125,0.7016918673937789,2.9753033079831237,-6.7381748043400425,-16.626014893089625,-21.448199515803722,-22.894146426694444,-16.05917286910388,-2.4405665112065376,4.952814803133624,3.630167750679166,0.9176097190928134,-4.876070020610334,-12.270953163612983,-9.036202117117778,3.6703816611916014,14.058316746306003,21.677225334824616,26.506363223899584,22.805556367259296,18.773018447966912,27.71398966787311,44.20256260553212,59.87372533932823,79.35132846770068,102.14911352204905,123.2307797314443,148.71611063088073,178.13771953535223,195.58167683092765,197.04989494714923,191.6985186297864,179.10273829038715,157.58791314058678,133.78470649739734,106.47525302802441,72.42401316846231,43.14957038115551,24.175283380081567,2.3179320091956255,-27.85360820065376,-59.797932553345134,-92.28686271787926,-118.31060430251901,-125.28193121562592,-121.83324524011414,-125.2642670280741,-134.517030484234,-146.87177924151038,-166.30603228928157,-183.32301240702762,-186.26303109786232,-181.55062069951958,-174.4876778060089,-161.13159109516562,-149.68604867717954,-151.86067777759558,-161.5916434011557,-169.80342028262183,-173.22611912372142,-161.22022925333602,-130.2252351271594,-100.4429894689377,-90.21904155679024,-97.35267403453639,-114.24482072711385,-129.89639262310527,-126.14965269803892,-101.78795262067577,-77.18172314874019,-62.37329578135524,-55.304997555795396,-59.91751421014608,-70.940651497527,-71.01920154328583,-59.135363017628336,-45.227971454437395,-29.17675323267921,-14.878022843339263,-12.654950608900547,-16.22946055801765,-13.079065379977425,-7.084117625695486,-3.1338561199474104,3.1570825836103307,7.922669826982352,5.830501913509005,6.161034779830739,13.8907627180659,21.002825944455253,27.589235695880156,37.38423963579432,41.552760021299406,36.90265371143845,34.12390550272788,35.01236419962397,35.98270909486992,42.7176589126207,52.597902707434734,53.09578681113558,47.436650740152636,46.60689678472151,48.81348729689418,53.007713765635714,63.03468562313145,69.53104851790808,62.171271129159244,49.60916716131369,42.137799073798696,40.494536346883024,49.25478713069877,68.07572205131878,80.29625226302281,77.49131644737986,69.20711541949386,59.44279436750931,48.82958561825723,47.52122894088167,55.945199501467066,61.656603387030884,63.95364385411719,66.07765355076923,59.860659770439526,47.582397234761,45.976929566587806,56.60387129601487,68.67006020323716,80.00351768874339,84.94049799497694,72.61140048440434,53.17493660025269,46.4006746999799,50.9825827096328,59.34467556199169,71.38112460076974,76.1223620108862,64.11984569139496,48.83099600772141,41.030903238794586,36.02689778663287,35.62487319057794,42.27771264942186,45.16092434235108,39.46280314974549,32.45010883876489,24.175917470833955,14.840578293730747,16.667094152079397,30.611855240706085,40.37983777360987,39.827106535889605,34.19873260199025,25.858061604906563,22.577642592910742,32.924834094261826,45.17177002821326,42.58839321542442,29.295462796551163,16.01827530711174,7.001794410135701,9.109955200256067,22.03832865484237,30.71952056195046,28.174446639731524,20.54074549396906,7.983337367076122,-7.4534845796161155,-11.34709907365798,-1.366455076462576,8.681019056109246,15.678505198110523,19.65111571551169,10.192096793399314,-8.688588156019325,-17.205139453227527,-12.489740747212092,-3.487908862385255,9.999384893782885,21.005705228357783,14.442510645585894,-3.6122772838185417,-15.661299056626877,-19.626824549372525,-17.423120206482515,-7.352021452764719,1.2261994541663637,-1.3252162403593362,-8.110780809357546,-13.557876092613043,-20.877955868013796,-23.895013848062703,-17.276374488057527,-12.349043598145169,-15.366115502566577,-20.229529756063556,-27.897795924635783,-36.711346545018856,-32.620108704248395,-16.020867407330257,-4.002085973912803,-0.8968489486034918,-3.3757008646591835,-14.559443466582644,-26.501301774464537,-26.01352479297667,-21.916533140467493,-25.937382266246495,-29.044632235686503,-25.303019692111747,-20.77024434367215,-14.57427387098054,-9.401862471666185,-17.96501531253353,-33.15019933342248,-33.6132557309557,-22.880987578588282,-16.50605381336737,-13.661107706496392,-14.532464934120688,-23.77173106137548,-30.030238561988913,-24.527476379755242,-19.151589613634634,-18.660226464571476,-14.100078403890256,-10.746181698782003,-18.604965509038063,-29.064667689556742,-34.27851467837232,-37.73290636711526,-35.09557687211467,-24.157583594360247,-18.237768117154175,-20.480812460671274,-20.75119086657513,-22.22157957894371,-29.24331930438103,-31.054848900336832,-26.261528392369325,-25.668906317108593,-26.6315473085889,-23.127989217890285,-21.67839127174852,-21.412526211097028,-14.28918930581479,-10.046103357939923,-19.542874359158148,-30.525487901733705,-33.01389841540603,-33.66196149117782,-32.63646674178398,-27.897040642705292,-27.885221754253912,-29.881561937123514,-21.702309218309317,-10.765428180721273,-10.941178806100442,-18.104812181075644,-25.64489860203695,-31.566880009501244,-26.029583757753294,-7.184581763371594,7.26386518693842,7.795120619400669,1.2178267306425399,-11.295616399582547,-27.450623883214096,-33.20250021084771,-25.573537720711407,-15.072350444151628,-2.8110531467065267,10.136492731816352,10.555867339425841,-2.36490937477566,-13.138982666419889,-17.554960307680236,-17.83973562996872,-9.212807756202436,1.415517211760558,-1.2422870715287626,-12.704030326354658,-20.746721607383208,-27.06683325813466,-30.269844941355753,-22.410425847170536,-10.573226468280343,-4.943604149858819,-0.39058141451988804,3.923965146195771,0.7278586130914073,-2.6206384061719197,2.3386108805249624,5.558860244341834,2.3717868985786508,2.1810680110357317,4.108655931290652,2.8694677565523294,4.76932079791848,8.611947744933362,4.355491203175408,-1.102401414137514,2.169995791776098,5.641318602074205,5.354012731665022,10.171387514749028,16.720394689356468,15.621780607326297,12.171878467849561,9.613192728130644,2.484243009253901,-1.0191180598697485,6.637907135644631,11.094177745948112,5.567554654096435,1.7329962820059759,0.566523891621667,-1.660211452111268,1.5386548064823375,6.445553797842646,2.627647814373422,-3.035481130854785,-2.7567257037319,-3.73210453209979,-5.823652036405247,0.7929895313813558,12.251260554657431,19.609491131706196,24.792771186637662,24.730570248260523,12.68374629814448,0.2796136768643316,0.2663144396147188,4.875066774260973,7.360302012941515,10.974201038832332,11.536048459038009,6.56179958088691,6.463420398470866,12.338936594480462,12.982446090514049,9.708756804854037,8.5478527594113974.47281518600823,-0.031527277903278916,5.315191345979394,14.812435651196344,19.07736818302528,21.83831013952654,21.350551076769555,11.643912453821638,3.6591220945438465,7.109662822123717,12.86752362497369,16.33818174603299,20.43275640563217,17.44546055869438,6.284140944571782,2.075008472520852,7.0310085766294845,8.937246854654031,6.9824148087031475,4.837390169118159,-0.7396353047378428,-4.371378656305239,2.2222903760964368,9.477442304596874,7.636054834740897,4.803905850863196,5.293313406315725,3.1723259293608397,1.6401172132837016,3.932939859578998,2.4472411353380528,-0.5877944062181615,3.542236798902821,7.296862445874261,4.2786030119856076,3.6825036694210804,6.30579886698897,4.9665864765346175,5.262770913720189,10.282949190739506,10.42879060083482,7.524690623790354,10.903614070489503,13.473878915874572,7.937306212996144,1.3079505053820202,-5.0788720169325865,-12.491367535426821,-9.171561811179437,7.601799002018504,20.373759091464205,20.60480045979594,14.523398299808516,3.903192369184796,-5.899348914189407,-3.102946035445929,6.231823677561262,8.011056316747922,6.883517817427684,8.667473183244903,6.3906908280136765,1.6106617766517528,2.3616383365708167,3.6269625098723957,1.771494685828896,5.162082377306837,11.187512326424566,9.454879649067898,5.7178706860679664,6.07621988400004,4.233633946830327,3.687151950303157,12.44666109201378,21.508393727823865,21.400746977280008,14.976353291402074,1.3578684800374288,-18.667453031828135,-28.908540417458955,-20.898383607170036,-6.989164061187304,5.560715284889253,17.562784805111004,20.918485775424475,14.345677572452736,10.071590990480674,7.751535291396794,0.8562375397436726,-0.18813932834361963,10.475336264282216,19.368449311759413,20.186660636378623,15.846262050017227,2.140769451618362,-15.709670769875432,-19.485636907131205,-8.723343517824334,1.664438851792815,9.334046090277731,15.676402897974844,13.507321121354217,5.3028632719455135,-0.35526733352104545,-7.9881991661609355,-18.628239271859723,-20.000226063694708,-11.286669225889245,-2.478580332847908,6.028166352342988,12.173565149433811,6.158790901142572,-7.0195072132543,-13.400001005020258,-13.867366880907277,-11.353184904452931,-1.1457837688523451,9.032930299856627,7.087691717407587,0.15676991004986496,-3.2882513699735316,-8.233749893905747,-12.305776904200961,-8.560873771276885,-4.637898195448176,-5.819721673095765,-4.1789012734637545,-0.9134934312184897,-3.4891302388011614,-4.864066769706778,0.12490730868466793,1.8606320161062593,-0.5901151264144058,-0.035227808729506704,-1.50720602160769,-7.289303643904381,-7.971024113660256,-6.0087903447219215,-9.972424930691261,-11.9427138981119,-5.520000076220039,0.47643722218929285,3.6918073533085156,7.299456668560856,3.5241218805389645,-7.974816105142956,-11.518181673267144,-4.4891999156365685,2.5817592370834204,9.897884258831448,16.401430108360216,12.146826349503637,2.371359106146376,-0.14151504797276682,-0.9677713742544783,-6.006345433164608,-6.989678299318154,-4.883793640680426,-7.064912555513183,-6.52638113227011,0.284135509354531,2.9068370443237312,1.3146221496025465,2.1136849548872223,-1.0758050872946918,-9.133075376413704,-9.305295767657501,-1.777381004413018,2.6056463425787797,4.1341836935190095,3.7989876125774815,-4.007889694167489,-13.323708487090927,-13.638955632665946,-10.964518278451916,-11.329461894195786,-7.041744770787476,0.6453971417419662,1.7577022744253172,0.2508725791000711,0.5298317922993275,-4.586524758929134,-11.867572449319129,-11.670391505874402,-9.683224547477382,-10.070510580829716,-5.387199874330577,-0.3797910259683972,-4.882768709252604,-10.49664071731286,-9.289784678848953,-6.460691486347529,-1.1522777951912189,7.208073890069169,6.208366579328475,-4.76613796728494,-8.366226296161994,-1.187445013237034,6.091259947464222,12.088403358590664,15.165781402177053,7.982218692417225,-1.2892874265688623,-0.05277918585974728,3.1364927235708904,-0.37951727745414576,-2.147681123559007,-0.9355757841336054,-3.4715764188223455,-4.764514290569129,-3.550796138156363,-9.0905689608318,-15.728371227377677,-11.239068857609691,-2.015224328021384,4.401587582706125,11.91933493635408,16.548881478581055,12.06134787973114,6.994330159215989,6.875841107187528,4.774493670482198,1.677780844354233,2.7078192771289147,0.5900457180016236,-7.1513113265920385,-10.046203937084615,-8.058194106166388,-8.617779679068882,-7.385460756431475,-2.7277152654808083,-3.3050048305128943,-5.559300827966667,-0.889154194851796,2.7408685295261725,1.4678825628895726,5.880564409198412,13.673897153677364,14.560492850785062,12.873971611537671,11.14369389714108,3.1101620195290502,-3.850240706605957,-0.033449354155426825,4.033529969271276,0.42066263933341697,-2.214111044588731,-2.9275861552603906,-5.986642672524563,-3.807786241226265,3.513749465449127,3.6009204191115325,-0.5834277436545898,0.8503774333383125,1.843341483747221,-1.3719160010195846,-0.7158567201730515,1.2793388278789288,-2.541312910818386,-4.752824476704484,-2.2331855219732204,-4.030726721209438,-6.7513802958324085,-2.7181702627051982,-0.9525500547213034,-5.9926054148255,-8.218902033051336,-8.863873842677698,-13.961628751148165,-14.483358879941418,-7.015713066188302,-2.2903894947849945,0.9157428889859891,8.516454021964325,11.04364030282105,5.763363190226173,4.9172842625732365,7.8766320328208925,5.879508989513702,3.6401483752641637,3.507797112918077,-1.1341420523095562,-4.930165882667448,-0.5526230679265107,3.4881042540119758,2.862884573783513,4.669818580216323,5.897463310250862,0.07901792351127845,-5.431971488524657,-6.334250241319551,-8.44346752826909,-8.57664314185784,-2.8119631069687028,-1.0219326977784162,-5.316688891370443,-4.263389198068509,1.0554086054485479,1.9579565088997128,2.4586722611332057,4.157728622574642,-0.9769759591442206,-9.922726913988576,-15.576987403850012,-22.76309568147741,-29.252011272084285,-22.608937782156055,-6.602158405624904,5.595968890166418,12.34020462138482,12.281949436623503,2.573153207564108,-4.441588869132298,2.384545804952164,12.22959834924753,15.13163040187829,15.70064534571613,12.478582567829017,2.548070901990031,-3.186476902500149,-2.238579931287788,-6.109929809022487,-10.937695880676714,-7.076812531312599,-4.739664546592876,-10.948799878128366,-15.19561989722769,-15.232069894516627,-14.75832079834489,-6.840122198653571,4.761247107691361,3.156248799580389,-6.69509829054725,-6.813284158675341,0.1121144767365041,5.6628348128790815,11.557425528111029,12.175466786394667,2.720949868192524,-3.5191842423568507,0.8100841345463894,5.284937567620118,6.896900546149917,8.89322019412155,4.754169996579696,-5.276299354135992,-9.276527575004277,-6.5180705690914795,-2.915585548399193,4.198740064216608,11.639103076138978,8.807295173521293,-0.43007437644804325,-6.176001233463095,-11.054869613113647,-14.9018783339251,-9.9074202563982,-1.9559859238143573,-1.1527505346922595,-1.3109720051884017,1.5000962523291637,-0.2838762545585187,-3.7159870344622488,-1.027721118442206,2.4306823920524567,5.070244878129714,13.662179413439597,20.07235696392457,13.358950012734228,3.5061006192858093,0.5958328222415386,1.4123218205732162,7.440631081740671,18.06364676281158,19.093102929266102,6.570992044959114,-6.99364449723196,-17.17433693707992,-23.94744744405002,-18.38561023156275,-1.8015699285274378,9.509912235732381,10.06500543192302,5.397774948009833,-3.1807362941534714,-9.032792088853231,-1.7510813709134754,10.557548315624047,13.196439497097979,8.919627223857315,3.4700865762311146,-3.308141757589787,-3.2148430653088313,8.453809896544781,19.177995311693145,22.12752976337585,23.580687387792253,20.89269083380627,10.010088733117133,1.6119768340439253,0.22687197598411413-2.281037762283906,-3.8466072653161287,-0.3099612938654557,-1.0237473393603758,-7.481320633748947,-8.059097630476886,-3.424799512747698,-1.5637467539362104,1.170677014380472,5.814365497272739,4.960909548356339,2.8456498917274233,6.304287676565107,6.9724629769117765,2.092405939376538,1.4746559255248934,2.9641212616682333,-0.32854315103680176,-1.5890104577373323,1.356484746615649,0.6485126309195913,-0.0814007714041316,4.77973797342148,6.072576778056787,-0.07935114658195275,-4.06230844782036,-4.1692057660203234,-4.685375408449102,-1.7612273495792448,3.6526808250563096,2.4433709474987584,-2.31525914780802,-1.7285280146606845,0.37440498890108104,1.074601123335822,5.047990448706338,6.9964412255020925,0.4978482588856692,-6.538281435655303,-9.56041425453998,-11.9680426594247,-7.767016993217567,6.385824680322105,16.918261723335238,16.875834950087413,14.992394628503035,13.901108658638776,13.113247933864756,20.358376532677163,33.97318610510544,43.35140346688029,53.40752004797499,72.69193979828681,94.53717542210838,118.11226383309935,151.24239557279438,184.9758147551815,205.8992906445642,215.37970872061908,212.2213405322028,193.67154580492533,174.41916500505806,164.99696870146084,152.45766387620284,129.8985883428561,107.34476802720839,85.66119867457492,60.177228916469545,34.835887315455444,6.986063657225597,-29.275952459511068,-60.58116733539533,-72.77769753511726,-77.47894511146376,-90.29491307447466,-111.63122221074991,-140.68081630194013,-172.31402535493743,-190.45551690620795,-192.79416865763358,-194.60650840574556,-200.24782883074073,-204.1626876256718,-207.50441255559502,-207.98280216163985,-199.63144789973705,-191.33114267077175,-193.02076260457102,-195.40099553896968,-189.84967541896043,-179.52021423315392,-164.2911789037177,-149.3125926928049,-148.76233468927617,-156.10129877694567,-149.41598982803572,-128.6809635533505,-106.73026982348702,-88.48355290560389,-83.71490209455088,-97.5415032816361,-109.49031400691553,-100.7334333521751,-78.88795885717678,-55.88866157410752,-37.11052302795881,-34.08425714657984,-49.27912591111862,-62.586412650562636,-60.03197304721138,-46.00170490709536,-23.633063226880935,0.6124282428912959,10.51884522817932,4.229974825014731,-3.3088791179405725,-6.028187688639529,-3.4336937041453406,10.295308220334029,28.858633604449167,37.639264626920024,38.994174845954205,39.75557604263794,36.42009654752921,34.95747680901375,46.34141174301561,61.503338084393,67.85350608080208,69.12958686099135,66.91874757593342,59.20807883676994,57.483455043227394,67.49689686958514,74.59460041727529,72.26791041625256,69.0601616165931,64.36330939471578,56.033232926360824,53.97085199796649,59.36426614307574,63.83324972793129,72.36306358689039,88.53144443426936,99.09927428215524,99.2286409685494,95.27455614674713,83.70646563289226,65.64053917019254,57.164769772811,61.26764500794377,65.98391699028427,69.6883275380429,72.02344545052149,64.51466795387326,53.818282668837725,56.26827360157122,68.04351330669024,77.57799102445557,85.79010721490368,90.06934572186461,83.95374649801511,76.3777340997459,75.7019815241522,74.10936388257034,70.61366009884848,72.63386453242182,72.79766590306194,62.720640427453645,50.15031505176829,39.21798589973822,27.38776435371171,22.89323633727722,29.466701342165372,33.62836247136531,31.22316314451698,31.045365586846817,30.23276938248195,24.896469485181406,23.88243604724586,27.139771389098296,26.07678755017345,25.59683738997799,30.097035754727393,30.973277668036964,28.95206684035676,33.16636798930277,39.34979772216458,41.841702964125425,46.84662903047355,52.96202341000465,50.64384580796806,44.30418774973501,40.60751806676332,33.430192746043936,23.433524092508925,18.9309492896801,16.462618832323137,12.532221243379972,13.380563571366803,14.539139448481325,4.839518193451663,-8.48814966982476,-12.603237349057583,-9.804703702038667,-4.021775033854629,3.0309754553154384,0.4526482100653104,-13.597150874724328,-22.436657137260823,-20.448845551934813,-16.199917582351,-8.927848878560992,2.200719009630929,7.6001303181310025,5.659658035225817,1.5138928873850093,-8.855932715134118,-23.60871233798895,-28.546139090243678,-23.962820964155288,-21.527655467373293,-18.95208622788044,-14.06155127532312,-17.529555522186588,-28.77353653521663,-35.8052228278274,-38.98999337402082,-40.63606064041338,-34.8469575948489,-29.10017376492408,-37.366203220522976,-51.285959389147386,-56.02828024502766,-53.98592321721766,-48.328302908815516,-37.55379675492191,-31.379029223457195,-36.63010299934184,-43.034329412182394,-44.376863284642845,-42.48944180994933,-31.68324396328628,-13.22594675614397,-4.850136741459479,-13.26986069416161,-25.967023819705247,-33.27944537740229,-30.48679894881383,-14.553337924382554,1.4069594943002732,-0.13634337770119798,-13.029189485327484,-21.834360721775695,-24.02050585638606,-18.456347072591925,-6.127728192687723,-2.378053841661547,-15.245925830849995,-30.962038376457507,-39.98659677217992,-44.41445542716568,-41.44626976148993,-33.96768193729488,-35.202559974030265,-42.84315312571092,-44.084533237493176,-42.42938477073341,-43.25565464635346,-39.21168011318311,-32.35431070207926,-32.01410177982598,-32.480233413657245,-28.60583772050942,-27.66146445208672,-26.791130229306518,-17.521194008188342,-8.758703760318216,-9.396242203006183,-12.212002178943575,-15.990567256266946,-26.27103224635305,-33.823232228204056,-30.431780521488825,-25.27882781483393,-22.813850509602204,-19.3521439665697,-21.20261249830052,-29.791979555361564,-31.05604394761638,-23.77011563239438,-20.604600530652693,-19.302865350633176,-13.044513035832408,-8.22569616827521,-6.165868030289913,-1.716280219410321,-1.4379175112308304,-7.739608175581497,-7.0445296012630205,1.613256120840771,2.9463611492387907,-5.256254999748841,-16.56031720112785,-30.33354119122869,-37.97609120608435,-30.686072684290004,-20.893923513801596,-19.387263319735617,-17.058780171884216,-10.47599624142579,-6.010529226059907,-1.2498875777549119,4.138056637061778,2.564344983758382,-0.7352538296339775,4.558545817981811,10.547603923953682,8.820377527415046,6.784023120192346,6.973894741609682,5.092707158963606,5.478224652301142,7.585788388003758,1.636632166842716,-7.310898955615878,-6.890902976911521,-1.7995443011542085,0.9403713780137535,3.8016299563065994,2.2315918192777677,-7.539823055061541,-12.600431735472245,-5.8254780416306104,1.7852609173607281,5.22436838867845,7.547642946206162,4.072080408691422,-3.9879822199074466,-3.560102656909846,4.706304766409972,8.940593195811791,10.811778145411516,13.841578284683651,11.45243717603244,6.827943799596982,8.453697550178942,9.881697534957187,7.417068364677679,10.31090782423152,15.967307491809317,14.000981739124967,9.321448570698177,6.976069592871,0.8815033943851138,-4.477476100097949,0.6924270313168326,7.911360348519707,7.503267435744775,5.7616538861639786,5.163864220553467,3.2012566171124446,8.540232961040346,23.49466452996355,32.82110942116551,30.070930284855827,22.721663686911064,13.095830966332091,4.777961668973345,7.371877365613821,16.62112499483537,20.27525159406823,21.083327920421613,23.209598301318085,19.8269774347378,13.300078323055352,11.65665494740101,8.526863566167194,0.8500269907195119,-0.259142253919429,5.7114582964605445,10.312165641486803,15.753563517716,21.30757545402246,17.604751849816616,10.048540020286925,11.324106818298262,16.383343193306686,17.552383330636104,19.201362354888197,20.454181972314437,17.51322911100877,18.56318239279748,25.75953387902792,26.733922983432425,20.139380992171176,13.903927535825108,5.05441405611254,-5.490563108316133,-5.841815717949189,2.9843549514895610.813031627471315,17.99402485168022,22.944863350494195,18.045166155039645,11.129162881716333,14.257793454751047,19.535188861624164,19.03549564650726,19.756830791396034,20.60324962027847,15.040306399837288,11.459042020902444,13.12142521243388,8.87682373278832,2.3877825145137193,4.361764531780505,5.88290939729703,0.8549362685364195,0.18993907721435443,4.110089227031363,4.170071415238402,3.6777904469616205,2.503470674003444,-6.287950852216493,-13.256368530452788,-6.147682880366131,4.524800536714661,6.386635604535141,3.4209995457575975,-1.833606320916117,-7.667167489876675,-2.9267745946663832,11.168797392425788,17.36815205313242,13.230202106754057,8.019979296771156,0.6160837360936604,-6.63824304067586,-2.3475990513438756,9.582947997185027,16.00930193977814,17.866910629749125,16.645617874474627,6.415476663261895,-4.264461891318267,-2.6790069664040317,2.6164110206831386,1.8440334085391212,0.33120822272058537,-1.506164360697603,-6.541124535578179,-7.140475453040108,-3.0397464427089202,-4.877653293982284,-9.1589263591165,-5.491191721056666,1.7023340475548199,6.339468185969821,9.557215469391164,6.543810058039837,-3.5147711685505194,-6.924061352232144,-0.0465778072532812,5.206121766687121,7.231405938875179,10.190111697820017,7.22120201338469,-3.1364455426079183,-11.385717093201773,-17.3462835972862,-23.01967145899456,-18.258496885743835,-2.396417851585341,8.451817641027636,9.826752995225874,8.89229034884605,3.789509226855481,-3.7445953156941805,-2.9819461162922334,2.2282685844005328,2.1813709037106523,3.5136735918569624,8.76929246441092,6.360441366335564,-2.0610408047240303,-5.840347560650547,-8.21825203239814,-10.474888951343491,-4.742276308786243,2.974578232847833,1.6318269439927946,-2.954363046462482,-5.265822509656424,-9.96141044765552,-12.004601083322358,-3.9949547436692887,4.060254973484259,3.2472800277234484,-1.1943648186249232,-8.304852664813183,-17.72649623371999,-18.164954003459894,-9.554320403081144,-6.199509350880947,-7.818944447520856,-5.477059631147746,-3.049929397761561,-2.582181161547356,1.7234945327841598,4.065237448483465,-2.243594290796626,-7.34857573435292,-6.698302781447108,-8.58907922201318,-10.171235884603918,-4.6546967447651815,-0.6847124511537955,-3.255223445503329,-4.556430272694387,-5.807406853533781,-10.960591017548541,-10.902524554925806,-3.5398295238649293,0.576489362232251,1.667536993981117,4.859072469174884,3.477291857446486,-3.8551112969109145,-6.309352451796068,-3.79731248741553,-3.7041343586934454,-2.027381966128255,2.167351184192289,0.1324568570361988,-4.16851132384625,-2.201572700258382,-2.2281658949472423,-9.674382784851588,-14.997070397352468,-16.71192963299054,-19.687329240050335,-18.15953538489192,-11.723820029786257,-9.848348508580171,-8.507327633062431,-0.26049114662419415,5.709831960503537,3.840340906566346,0.7775270684457326,-4.148596056646515,-11.220770042574065,-9.844526410057618,-0.5585586997863308,4.303864709513408,5.115110491577842,6.4779381423001965,2.336814579002228,-6.239726222689001,-9.450005681717705,-11.580975650186474,-19.929555763998547,-25.56379956184827,-23.691477635756556,-21.04171705522046,-14.505297138583826,-0.777732130202295,7.550855431499262,5.081620758152992,0.979582725347457,-5.286082311378568,-16.12616376277848,-19.442428721957263,-12.05638706728451,-6.102550753690596,-2.894454942585816,1.0995685538283,-1.068937908401774,-7.432687510757162,-6.1415415035467795,-0.8228136364037946,-0.1638178761134934,0.8308144492522558,3.678766968930775,2.0244907459177717,0.6932220239860294,5.890272666478298,9.293132432620485,7.711894904133428,9.893817466742568,13.095562048437255,10.177924860230597,8.215767289894771,9.114406521568224,5.251642047576356,2.6139835039122628,7.587239638977704,9.077420972802386,3.0539590808331782,-0.35913614439100394,-1.7680151539426088,-5.337621980544362,-2.6684119122881715,6.151939246027698,8.803764723878324,7.009288279677229,7.791989924280959,5.242783270448513,0.5312321794492327,4.124182166501393,10.315386662896515,9.174055265582227,6.036826454773332,2.716832534264246,-5.569110459582312,-10.861115263027273,-6.3142545046860645,-0.8860490424966391,1.6744585634174454,5.803414323733054,4.97879250318304,-5.39029877366253,-13.50400289357569,-13.891576589856045,-13.954061547982867,-12.798833288698876,-6.966454759420262,-2.005313060441237,4.786819159745857,21.737249489196184,38.067906645152966,38.240843864275625,26.006213304479054,8.697547103835744,-10.039397752318862,-17.162715611862644,-7.680835191512175,2.0392197041016833,3.703000474404675,4.520326605368809,1.95506375823976,-6.662845541320226,-8.95329868933774,-2.840512896144758,0.6906766431645042,4.150674131290264,10.784882965132097,9.639265222209861,1.5085156965545683,-0.23318220951134994,2.5005388894210276,3.2603347984777176,8.157179369118507,15.966012790188262,16.869989574826768,15.397710319655014,17.341086326743902,14.322541436519632,6.945415360880183,5.815763923258235,5.996457468755262,-0.5328233396657982,-6.458874807786307,-9.532144160392127,-15.849220501426322,-17.918605443373554,-8.479801283380661,1.9681100029441385,7.594881827004772,12.277122336515987,9.871782303061991,-1.8329098063089293,-8.236928990292352,-4.425037452382598,0.16473553248128003,4.287863065127867,8.051458591002314,4.589820400666736,-2.0170087328065804,-1.9097452270048518,-0.7516181798301959,-4.91182702400152,-6.711803474079475,-4.685363518443134,-5.4835887934429595,-4.8605370433687485,0.6840891513492933,2.850763205809976,2.02375399943419,6.5224143460545685,11.074244342150008,9.18947648443443,6.938830345010854,3.2850569222592316,-8.54380871019063,-18.604777730505603,-15.22577621672874,-4.8502218812386575,5.811954222713382,16.055503556047153,15.978352788343694,1.0626713220035873,-12.784779128029239,-16.30510947946977,-16.149983104231985,-10.34116882721797,2.8237888366754165,9.878982735171379,7.4968852939897825,6.725271920062169,6.9632944960355845,3.938435037356237,4.3665595592298425,6.157565866844017,-0.6755814572430383,-9.036608936292357,-9.323513106888663,-7.973185595363322,-6.563358569065998,0.3063039516200643,5.245376075815874,2.314047733436094,-0.9377851672979285,-5.14629415039716,-15.629772025820735,-20.476268933233083,-10.95430904228844,0.2665204171915794,4.543725537956667,4.0894668655385225,-4.090931963836114,-15.34357271079291,-12.894122774073672,2.478280906332899,13.194569984282497,15.110738111083355,12.641114233451972,4.1217094747735725,-4.747520092406399,-4.698975158499172,-2.1126466198009,-3.4813251892518617,-1.8470161494518207,2.2494318293959252,0.16147493719184625,-3.910419752149358,-3.107421056391045,-1.3594724620832315,2.1965601005440414,11.754058578227502,17.215347789657937,10.800613866227938,2.742073074395339,-1.5915495045263897,-7.397988269225549,-10.23204511106664,-5.330663567937537,-0.7004328355932365,2.4890643596182853,10.898633716242555,16.667759788150804,10.65058755841395,1.1568628406891657,-6.519816016410824,-15.0669348858465,-15.845718159080736,-4.463840790315972,4.707994790978445,6.136386330099293,7.581491866820203,5.857226102998176,-2.108358114200555,-6.760350534319621,-8.080699832364733,-13.062916571693899,-13.189681247809421,-2.3670383982015846,6.754502103428381,7.5846554578174485,5.530935765010102,-0.7609931353906174,-10.228455406065601,-12.004855992886522,-7.306212924167438,-6.7397737315684685,-6.679717469716355,-1.5397148149920519,0.9665229671392584,0.004458746878180264,3.5743469474497966,7.7223297736456065,8.374844889615902,13.050597249522378,19.384250366632205,17.803931431218864,14.659822951555508,16.19892241772734,12.70345800627413,2.3117747720492057,-6.04139630237261,-13.904157357184447-21.421268463858297,-18.544824466621627,-8.677087335379188,-4.114859908965021,-2.5742766892277174,-1.1311932062642474,-7.067914111413863,-17.051046517450562,-19.944374649914703,-18.094193032941558,-15.325432452610446,-5.568861911518619,7.135956404545991,11.296785660327743,11.049249235889478,12.088818745962707,6.78850387693843,-3.4300206175158965,-6.813484183543961,-5.286499422613108,-5.017502307878965,-1.2571165580053585,4.3229037882759975,3.5314655141077336,2.726399675029678,7.643650497621585,7.044747832186868,-1.4912731256190188,-6.777390247455578,-8.751288407556947,-8.778880301043232,1.1352323647430507,14.421773419211066,15.209391450481338,8.070646071653504,4.152339625294777,1.5179142444100777,2.687568428947239,13.07171963371405,19.687889973420212,10.956572310342217,-1.7483075023211172,-8.374928365340878,-10.51332042780925,-4.537488699856276,7.581378392051345,11.16812269870911,5.615153736203645,2.832511368293707,1.0148546902381372,-4.134360513134907,-5.884542544300487,-4.984195269533443,-7.159301989885916,-5.8819849678051295,1.2779367916068098,4.252316153894379,2.5770937765641766,2.6336676231195737,-0.1187146344791209,-7.646725236583217,-10.47172564334657,-7.910394156254764,-6.0586621212894185,0.7185745087924753,13.7544261733853,20.15358715526281,18.1614853836458,15.710516964479687,9.377343495576875,-0.6098680013354212,-1.5749403581215753,6.5016444183081195,14.300405936364356,26.481097113027275,47.07287268320469,67.96193355618695,90.16302083976352,119.81645645633151,148.56122125086588,169.9672255169839,189.32398379728812,203.15027354051296,204.17559978329865,198.42834821453403,187.43852887578447,162.44281961773524,130.54333687651066,105.06648284739804,81.29407799882347,57.437599394667814,40.97407827383587,22.87215361148396,-6.600342712424761,-35.95139761340456,-59.2926809883062,-84.70334392609476,-108.15244066136587,-121.52685726268481,-132.63397026662176,-146.26662394285023,-155.09366345784883,-163.05892091574586,-179.085160942673,-194.3113569216555,-199.6834640145887,-199.94219624322693,-194.02444536255612,-178.33176071989868,-164.62380891679223,-161.7383465284005,-161.87934863430584,-161.84206753221144,-164.49892938557088,-162.38725618440412,-151.6744524572842,-141.81656999862616,-134.34994009237877,-124.7997796139422,-120.88195684062077,-124.78290065155164,-123.11464420990416,-113.15708565644292,-103.06366161296376,-92.34721021742891,-81.04791822194031,-73.09360023461929,-61.211972787738446,-40.22788423884828,-23.891605791812694,-21.191681606597683,-21.927689380434675,-19.36059083021143,-15.146741436938807,-6.774513249012395,2.3038401833088176,3.4205520395586833,3.956769417619118,13.25248763675826,20.460844795886793,16.90108370023108,10.34357835191254,5.4892239306759105,5.219401643396825,19.52492905175792,44.677709664423595,61.41867779358269,64.23459344258411,60.04351340091475,50.32273373982591,41.15251073945758,43.955936789455265,55.03333764872098,64.21208349035251,73.7882457730672,83.44322151154768,83.04331263955382,73.77263435296848,65.38526256861064,59.22275025577686,58.22106582639203,68.3023866857585,79.67480985169506,79.31435057324934,72.53877094270649,65.61359391225133,56.70768149722993,54.17962571847076,64.72693971549884,75.7007562434267,79.4241097291361,82.94733587141506,84.1256433323448,77.88996607026108,72.83871498539547,70.36597213617554,60.20742256979591,48.91678633670752,51.05178509467029,61.17922528241516,68.94394398878492,73.88431589905477,70.88028889084606,57.054923797551524,45.426832592727564,44.13394537417635,46.87999678818151,53.51637764397401,66.57864170393297,75.47698650559897,73.41892674990247,66.37735514850043,53.97880438055354,36.109492258370366,26.002632004488696,26.336781811008013,25.03257489514399,23.392669678799592,27.248423454557052,27.613222236228168,21.808662500449614,19.87004658708649,20.53306308060912,17.643073376557126,16.96524179299271,18.800336733626256,15.138861695219465,13.797268776444444,25.378340621178857,38.426943536305814,40.864645042808675,35.77232965386843,23.647122816364103,8.018125089434218,5.244802664108466,16.1635866805482,22.319451989103435,20.402605063742325,17.49156419609021,9.430842112819015,-2.031750102497304,-5.484547238664701,-3.9514528421865753,-5.00037615160863,-2.907368480232307,0.87815774802642,-4.983296420896168,-14.985917656224817,-16.91426766264696,-14.010122700149617,-9.377953047523143,-0.24165097328532736,4.456154084953993,-3.164831210188348,-11.972625069415338,-14.005086679891615,-14.970195861156562,-12.55611119521976,-2.619133343281133,3.723751064966173,1.1343078739935972,-1.7293333324650275,-6.349555868269418,-16.889329484691686,-22.519339129769804,-19.376739008244172,-17.43554619146265,-16.04665164161115,-11.171676341911446,-12.2736067455067,-21.21048864839752,-25.465992736104038,-25.08929149738604,-27.782859593208833,-27.957511323607612,-24.582579292523263,-27.960533915387423,-33.861076561032455,-32.13592045697759,-29.012717528562206,-27.490206775909762,-20.487087135226844,-15.384991657662514,-23.21123108002278,-35.9930285406013,-44.02971093421619,-46.01017757947761,-35.615588635101346,-12.513365415534178,5.352819521801301,6.383269270274593,-3.39611192533805,-20.616774933541393,-41.17320819655988,-49.90258440074742,-42.9315335835521,-32.42785466598761,-22.342551082801453,-13.093930667522478,-13.473937283095287,-21.940921184651973,-26.42074962805059,-28.966520751814723,-35.718943272019374,-38.600979643478226,-35.75222094073483,-35.976649051797054,-34.52079490588303,-24.6473277236588,-16.375673894446432,-15.513390862026336,-17.333902967483784,-24.178581745377823,-34.064804443111086,-32.89172384278329,-21.68579809215366,-16.732925959846273,-19.148092496017313,-20.73692707452997,-22.135221230000234,-20.57006853069369,-12.233501936982737,-9.563548305705968,-21.239287722356142,-34.819177576160044,-42.215525178378655,-45.85288680551931,-39.23208888514101,-20.549483071503133,-5.020413937932281,-0.4578201123864446,-1.366785775111933,-8.18141000970581,-20.132425522973595,-25.643592903058043,-23.91745146459104,-25.5634326802719,-26.05790073628307,-16.27137400393068,-4.237897108161815,3.22279918400089,8.446978746542166,4.539316707932731,-11.645672007950406,-23.599918280816013,-22.148227711297203,-16.207229192612605,-8.758777614519076,0.2326495654412608,1.6278862168712185,-4.070127842872548,-5.29265464826323,-4.046556757437382,-7.567502112880206,-9.774658438781213,-8.005120899061833,-7.888637628477321,-4.365532591352617,6.586463315500766,13.462879823213516,11.821796775376306,8.784544385110815,0.9504768806390218,-14.245617580288558,-22.85570928986588,-19.472421355507116,-13.955959241748573,-6.478810477523803,4.324543153568097,7.762595785041298,3.4333097533174777,2.6567384968301946,4.784779799725777,5.900318508209086,11.651774698745816,18.787329942391025,16.1850880045033,9.201032652690488,8.153643189330522,9.322779425013923,10.861610242003842,14.233529454815466,9.52502378867134,-5.300547977554888,-13.30094104169847,-9.183129963312275,-4.507234466865864,-0.9447934026170981,3.523927165739353,1.8415886961155128,-3.288862077879889,-1.8606912076216398,0.6375469460794583,-1.4583606836362404,1.7335218028561639,11.454453862664352,16.959108940708404,19.38424737406891,21.83242165310708,16.666075300329865,7.158882040559068,6.172297905006635,10.904961256182869,14.527633442349465,21.399484349326116,26.856930719674367,19.435605963131657,7.493105783002673,4.034209716641191,4.101815343182649,5.514570268980393,13.880138335948635,20.453560344406597,17.360400985030996,14.386059426977077,13.799230175427933,8.029720202977575,3.07037058672751,4.951461024857565,5.5034700916895224.1065724539237705,8.341083897142664,12.772645193361246,11.23729437993227,10.677822242044677,11.80709736371399,8.23986083004061,6.156541809035738,10.298350875233348,10.53414400799578,5.807807248078044,5.667876330050186,7.173777578952115,5.6825293026716075,6.61650478186906,7.352155677480831,0.836366673962166,-4.263454660386398,1.0464337326751267,9.683666260255833,17.61615327009406,27.0326787116103,29.446949217072532,20.555865642008712,12.109040747158142,8.399026899525627,5.062125091489872,8.005686738073086,19.1630801000238,26.384518532206414,26.644528508818166,26.615836950948378,22.78948560753065,13.105264011806723,7.6474261534137655,7.510548786048067,5.552949699835683,7.092610448942191,14.807457305447706,16.500876692432456,10.355049498001318,6.525395314934191,4.427075962482618,2.0485006253817044,6.146562932869257,12.957031729228833,11.413004235064989,6.6325953045145605,6.883351071400582,5.909004082116839,2.331026668512308,3.752205455140484,6.062641561247903,4.049001925470101,4.854409841051454,6.877731669296747,1.2356716420881044,-3.7445854524295052,1.255666047626208,7.930056239089712,12.281937464516574,17.863520007933243,17.302416771410535,7.409802273969444,0.7490194162265308,-0.38430081876973143,-5.092500044447967,-8.220682525249956,-4.159606896156347,-3.8274215633351276,-9.091869830209856,-9.141834526751092,-6.439996775043324,-6.3277427327692815,-2.661150736157695,1.0847341165365763,-5.266182118071699,-13.472121940775027,-13.412867250861503,-11.794440957250917,-10.07028298371405,-1.4982121341296386,7.6841179170991865,10.808762274370368,14.026993169000539,16.713029996944112,12.809720380187901,8.776487995787999,8.304568731841577,2.5364825435942566,-7.146027090791664,-9.387304585793615,-4.85409403605321,0.5902217376282396,6.142016510582144,4.198307788815184,-11.33903583033829,-27.13915068097384,-30.626247399558885,-26.26136087668955,-16.445593283816493,-1.9574001870328526,4.410908143858955,-2.1389659905668688,-9.434346603178046,-14.06936469056366,-19.849665084805686,-18.747807518097908,-8.217956007586512,-0.9446322955616437,-0.45925135573556514,-1.8746121584466025,-8.320098913335963,-17.036264166506104,-15.798207698489716,-6.5655212970885755,-1.1282258624143164,-0.11638356065817612,-2.0065695634664085,-9.151831706484533,-13.431469928994773,-7.024565883970207,0.9769634905590641,3.9581355982228787,6.143384048625297,2.6084711488966095,-11.86370148013383,-24.25880803602108,-24.86993453509897,-19.26971642964883,-7.103282678596335,11.287157974658495,18.27819787287727,5.426169452183083,-11.493650447811149,-22.02579915830075,-27.78581018060327,-23.138679002552777,-8.111981011029991,2.112822809761626,5.22985711343146,11.193764497062036,14.743212936390497,9.168545283293813,3.651698416898836,1.6720970740290844,-2.1289350858636817,-3.0992445895465237,1.1618900684604374,1.797333202270941,0.5012102482701083,5.109846116145807,7.46846131294853,0.9873933590220374,-3.6986692373694936,-2.5699447178487738,-2.0636644821374706,-0.7902645158482161,-0.507971399710889,-9.132617959114153,-17.796116042662174,-12.686077681421441,-1.351258040588569,4.721908598895834,7.9184793420427875,8.573137933175792,4.147262380175653,1.5202253816917173,2.337958004677524,-1.1852449581091222,-4.05767130953977,2.321573804912115,8.515371287633144,7.007431875061079,4.813463175926895,2.446410920186004,-2.428538759575168,-0.7395914373835435,8.023755224446592,10.728747308434304,7.345980767539043,5.351221387109932,0.08448949384739857,-7.180848884737808,-4.272651252119415,4.841382868086975,7.055714308486047,5.409743562283358,5.52553820720666,3.758557660583043,3.8266472385288086,9.539176033076243,9.268414506392736,-0.21626291947341603,-4.878663160025947,-3.250674568659071,-3.961575235267127,-3.471720513492533,-0.3539347211507242,-1.5317482000464744,-2.2285179827314923,3.2977007648098424,4.9502721784389685,-0.6384389275520639,-2.699825118932105,-1.4147461208413996,-3.158492176518805,-1.7576023607103308,4.499435852483554,4.788145993653178,-0.5041094663043983,-3.1361243213817707,-6.43809433237268,-10.097910584625883,-3.8846158978495686,7.412182610068166,10.61736719239178,8.699949948812035,6.887859357333439,1.4105024840310691,-3.6383744958924193,-1.5832050403798847,0.6140794281818398,-1.5939045969384356,-0.5068067785375135,3.757409873528723,4.8029681287846655,6.0591506153698855,7.383441016203981,0.9626898622003985,-7.998904318734552,-10.3380869388067,-11.385637724397363,-13.55624842039844,-9.967206275866081,-4.451599677368346,-2.8308980247599314,1.9209590650701986,8.27206687627067,3.9764166095483837,-5.4319441282221925,-6.743194499436214,-3.4074757600940915,0.8877143565053186,9.94887236989852,14.897974359143491,6.180181592014781,-4.522869874661357,-7.09788134948052,-7.544623756559751,-5.505628386105206,3.108412518889187,8.023726352458835,3.3077982198802314,-1.23390442470201,-4.13159643441649,-10.005755401641078,-11.012486133512997,-4.896852016465795,-1.7501344095502829,-0.34577156006723053,4.2989556303422525,4.237612277354242,-1.455215107153826,-2.291196839902993,0.47170500388018943,1.982497720358963,7.798709408774759,14.85995690098392,11.89586632325181,3.563969539843434,0.013982214066914831,-1.872338657501548,-2.71259504244882,4.081768156565323,11.490439704734392,8.982573728701086,4.122528204230073,3.172756828218168,0.30511101015183795,-0.7292624154531333,5.1572525500996145,6.535449957377532,-1.0732869777634635,-6.128561575943753,-6.725727683344316,-6.746405478204403,-0.6282821091279644,8.07113955664903,4.368006920634801,-9.844367278400865,-19.954001679837237,-22.24863734250142,-15.893681365795068,0.8624516430877902,14.030630086283104,10.473856191951008,1.4561124840582707,-0.6558855104782043,1.1319687234920635,6.17276693190598,12.940323460510978,10.40511863416786,0.04681681158777007,-4.381734072161011,-5.003005303400084,-10.774701869046215,-16.226877677676498,-17.133114104031225,-17.55690351679759,-12.402562005779426,1.696824279370035,10.617411129586673,7.729999097715648,3.598856927296551,-0.43348109442603955,-8.342650513512844,-11.257726515012049,-6.071155960714096,-2.153972083057439,2.5889580167000448,13.248424712215133,17.947883578449353,11.233211462279083,5.363766799275991,3.3941776507901276,1.7104353456170696,6.672899914959656,14.927975102397728,12.15114755922696,2.6342235058198975,-2.459879131844084,-7.739017962255898,-12.866044057119574,-8.802847705570272,-1.7276083481822522,0.033305595256634346,2.697773944076789,4.431264372837178,-4.4858595747843655,-14.78405217488353,-14.293510987430597,-9.919007642224727,-4.815839053951349,6.455788282392604,15.276193673449963,13.145205889538442,8.97970225298709,5.747064836879439,-2.8395388729804947,-8.05467094799793,-1.1080857381128641,5.5748460978385,3.713115035731003,0.4464722149170387,-5.07115121772562,-14.380530657631263,-15.001024999925534,-6.1090944062916295,-2.4346551882783265,-2.9189188482630803,-0.3241969918554519,-2.3058995084163016,-8.020430140029617,-4.6503828389301685,3.9616990190810384,7.956084056357564,10.539158673456374,10.36007859773623,1.3222894015188729,-7.220667950300843,-5.7279831335430105,-2.6721843191072363,-3.8489761809818184,-3.9831123947019673,-5.505332986542352,-11.399775030802772,-11.855890365536577,-4.598171099323055,-0.12846673076017673,1.3072370447702648,3.891551008048446,2.046601826723524,-1.6619063827253244,3.2048526058524063,9.467350434473232,5.987774913493764,0.40029157604991794,-1.1902667615896487,-2.6641468201174536,-0.05827896680273004,7.381990167505739,7.049337414495177,-1.7383710785873348,-5.90507143691146,-5.958284540791508,-9.028018248323601,-11.071656191571067,-12.28182292447742,-18.25907087480085-20.148105165864756,-9.818433301835864,3.0451548858044237,12.801029989359153,21.394369782119664,19.752655414789366,4.99968717594931,-5.92180620574762,-5.216284555895534,-0.1673302619876409,9.459094464208995,21.22712430705274,21.261931470374343,10.720124832265828,4.46950580489561,1.8412283355284527,-3.7967592974619064,-6.52752513718518,-6.198112105421371,-9.877995401428471,-9.703511413253484,0.7426325906041922,9.866657305622772,13.609212452674088,17.43294710910595,15.478504486110243,6.0894501450099146,1.437876155752393,2.7856692814430484,1.6742051672331641,0.8056450735307575,3.1367461468476083,1.9009870660993802,-1.0820568048099166,2.1677354954569514,4.576400500748926,-1.9140708693446542,-8.084692159716884,-7.943729840149179,-6.492484922499884,-1.4845496791326105,7.666222519464034,10.46618189477922,7.647079162885496,8.989794078652048,10.659202664287125,8.11248799342236,6.7824958838899185,4.265163496454968,-3.640555025231683,-7.260686267178535,-1.8791525847922004,3.215414645365477,5.620558486373762,6.924783355470035,-0.5126568031064771,-14.068047116685065,-16.95284913266078,-7.904245118615425,1.8286607902331133,12.407398983675172,23.402246872048792,24.42750033016074,18.224383663890467,18.470278158420538,25.53966651776505,39.1687996265305,70.20297758984215,115.5879141159925,158.68233972161346,195.87827594840718,227.11119327000102,241.75670353125707,240.93460698382086,238.48565561192828,232.83891590014184,215.83093460880156,192.50093497882887,166.08213254489334,135.41209016274,111.2812677104535,98.8351205854182,81.69567374473267,51.38313528330528,18.21508587819205,-12.228891284980426,-37.84552132236921,-55.518391553780766,-73.95259355519639,-98.83059678215287,-117.74218001382948,-124.73556553426954,-131.09456294837355,-144.25143569872154,-163.30994794063088,-186.5490035729059,-204.31839243139822,-206.16670636430632,-202.39813437383296,-209.63088151202786,-224.87246225113807,-239.18368237861813,-250.51936034540046,-251.95848591794544,-239.620166558915,-226.38897346206716,-222.09784680565528,-221.2001826015878,-222.18528296752558,-227.09839764027058,-225.30958390609882,-209.2392957815239,-187.48746622063194,-166.17651883080987,-146.66305438990466,-136.20944475658666,-132.59214571635158,-121.60985602904739,-103.6865310405756,-90.5624919932672,-81.2884223483583,-71.90255162115005,-66.08850101215427,-59.35446238209035,-46.274454516058235,-37.10943160388169,-35.17388477897681,-27.77464467658054,-16.164229000712968,-12.145334112640912,-10.596863023978841,-3.606574256716313,3.6831841198174198,12.104083181447615,26.601093211647544,37.66925671800034,39.21542300773566,41.43380826460389,45.884031287375514,45.314594136406235,46.73486608268274,56.817499222034,66.76540006110515,73.21851582967348,79.86160917952866,80.95707779752844,75.97259369778837,76.58257973909191,81.21825475637355,79.93119693268284,79.2756883884085,85.46325553246429,89.72935231104242,90.86310304512624,94.98870733454733,96.39030030599216,92.25379433765735,91.50277733215627,91.35161182477398,83.88904004603201,79.64452771764974,86.85914740539685,95.12625657785057,98.81241220050165,99.51494341337965,92.29903832074132,80.6471692771979,78.0145743495832,82.45212808749761,83.81724676332038,85.69402423591512,91.23705225489026,93.08228602313986,91.65279828061853,92.5151846454349,90.90961431128744,86.18696341864722,87.1832533992389,89.59652474842369,83.89779021219967,77.96657536835588,78.70494620397709,78.29915518340678,75.95659653909316,76.52247634875711,72.1515478579081,60.74794120921043,56.20844207383178,58.400203750299,53.728928392767784,44.6718240494141,39.36701457230002,34.978651202434214,35.16114789005367,46.97404392047715,57.95547728293483,54.98140523204357,45.74071715143826,35.946354018488584,23.506198562665002,17.92812684191979,25.350042208444076,34.7454211620575,41.555291843995406,48.49959258933879,47.25932668002909,36.46726998591558,29.597597074010764,26.97101522682051,20.60009438817093,17.107458554953887,20.50117292516049,22.269803328678794,22.361875318525612,23.503179034023272,16.34741551297867,0.6823047539182632,-8.973300894788153,-12.53837965031017,-19.231820867357783,-22.523205841084707,-16.925329358757992,-10.847493448282513,-4.6344642007215935,5.468555473110397,9.102756702149682,2.2657382968716897,-2.8622659874908223,-6.084311660417212,-16.075369926350383,-24.431664364053212,-22.41579621773368,-17.06217737296586,-9.423175137868293,3.548139252050798,10.135500933800316,3.4797453939078338,-6.269480331906156,-16.9466419901701,-32.58056974207783,-42.83598381538702,-41.20775774098258,-37.55846156773879,-34.26244669541587,-27.405034122917492,-25.242226565883154,-31.292533496591822,-34.90144047242357,-35.750058283518946,-41.546185369721734,-46.83800726453961,-47.9015232689504,-52.15348942107737,-54.97928837139073,-45.65123467428232,-31.955416304476167,-24.56517181888415,-22.036778900736316,-27.123568565590304,-41.72547639023606,-52.79017978272911,-53.664119873372414,-53.50126121569591,-52.43974903816809,-43.742661666782915,-34.04251505196308,-28.926966402389006,-23.887384983232838,-23.831312945109666,-33.63026075940731,-39.629328232573144,-35.040418385224385,-30.8003542765404,-27.52422728881878,-20.54072376014297,-19.81360345845075,-28.64274864084191,-34.091367723366524,-33.93340589708809,-34.84262086003175,-32.34760736539427,-27.29470080972496,-33.06186150475425,-46.73248233723513,-52.50341775742841,-49.11046838238585,-40.016620290966976,-23.84002753753788,-10.84864122415128,-12.421311365809466,-20.3462215734713,-25.773551299412205,-31.661915682091674,-33.55307328496274,-24.950526939873065,-15.660628920457263,-12.907447879243282,-10.361077643910123,-11.193570395021286,-21.568803901220495,-29.561382634010073,-28.315338739915187,-28.593491775011163,-30.730683809873277,-27.356935817545725,-25.29671949854052,-27.773198459563716,-25.17936965875314,-20.42108628136363,-22.761552892600882,-24.618981380617793,-20.230065817795772,-17.856915770130684,-16.420718119767287,-9.39403136276124,-4.331241344976842,-4.964034422601511,-2.792478420036552,-0.48276341986878346,-4.741706183014254,-7.12521427885448,-3.9031702398581247,-4.07501354320875,-6.22204925351537,-5.270593682400714,-9.424649321064207,-19.017708818986062,-20.313441344210666,-13.786127116266018,-8.65782732203181,-1.5121864475805344,5.387054756675837,0.3662491183924548,-9.347102177610175,-9.684627540387215,-5.340134589360343,-1.0187301023787585,6.504679349716936,8.721894668244632,-0.997191963391205,-9.225786874789856,-7.604301635356622,-3.5310642210513468,2.7764505986109524,12.96951556380569,16.660242501545394,12.57367471092121,11.084141021825776,8.150219120468106,-2.8065047326037793,-10.009120118483311,-7.074538713341367,-2.48974025219645,4.5150254173483955,15.900990593710308,19.626338091341786,13.560124274320021,9.804905475816549,7.6618714601311435,1.8608514491455737,0.9123413595521468,5.925987010649952,5.612015842628898,1.9831387561825866,1.375511112121066,-2.9636308716673043,-10.499950256918874,-10.240938662906775,-4.678129681930965,-0.15477073547324216,7.639922964403126,13.858601740804835,8.346510368079775,1.3146617535239178,6.124240709312183,17.47564996159564,29.304413699517156,39.98895925240983,39.480871135825794,25.391076207702227,12.502938546000266,6.282051828467159,0.7945595311141758,1.712472693743873,13.039204745367744,21.19371926750707,19.434894689896247,14.630212206224797,5.4718027505738664,-7.548328882671525,-9.650548751185797,1.2969131219024632,10.401633262055336,15.144312025933157,19.298731865073734,15.652245668242932,6.677955887883941,7.259062205728002,15.089044028603771,18.7527114296006621.275825105971702,23.098930956775728,16.306975068029317,7.826169005301319,7.466030809740423,8.382043946175612,8.41283533706648,14.695260887532534,20.488144775476954,16.81506941618084,12.790232357768293,14.939401965177048,16.276619320550665,17.7060029171717,22.29312123404883,20.55547015949567,12.48330063809037,10.709919142761109,13.021418923887587,11.237290998619615,10.715562181571883,12.829942097008903,10.63167174980954,7.887011610530888,9.036939607431945,7.619280202109813,5.261664126181485,9.994062759568152,14.260375374406001,8.889357343808857,2.8074356118393333,3.468991299446158,6.71617772013491,13.531751513675523,21.758415828595414,17.183180653115937,2.1891100600312727,-2.2413577596110708,6.341454836229759,15.331528065455561,23.04755357783765,26.269020911660668,16.973865924890447,4.495250060131606,0.34658461940473423,-2.4871222868117364,-5.824984378814561,-0.053642601143424784,9.577045273847164,11.846465869564026,11.035373850442342,10.01701086461533,4.06712535382399,0.29344997211588464,4.770086460855045,6.5861852849019105,2.9082008739784793,3.5955258568957684,5.492566078420938,3.03073226637839,4.620195965931306,10.669718603106919,10.895838022542222,7.641666498975738,5.868078906221223,-0.8775593668445931,-10.691560429994066,-13.671032936322508,-14.913968259687774,-20.181190168697878,-19.892457812292776,-12.716048026241108,-8.176384686880672,-4.380475675729645,0.9442699899482245,0.009326179972332094,-4.149561352247225,-0.6628153445220946,7.161994656239477,13.889317352166014,24.17614917404078,33.06212120046596,27.443017933036508,11.970715927767824,-0.7854833396981444,-11.592995993744372,-19.353972434084316,-16.706516767033698,-10.955174420202061,-11.331862330121009,-10.27320733341832,-6.442047665791747,-10.514830761960638,-18.70160489696694,-21.407000793234218,-24.013974400791028,-28.44623657695788,-26.716306507324845,-22.52601622916451,-21.861255062492564,-16.69209565309041,-6.068166242907809,-0.4074514520735253,3.7685296767013554,13.753684228298688,20.776151380519433,21.134389192147154,23.056555992904237,23.48654228729943,17.315592108276128,13.497568496391668,12.871617238975182,4.1903370506343816,-8.841029562040488,-15.435982541352152,-18.400576133605313,-18.710060342126766,-12.686040606851721,-10.487816246712452,-19.032709083954416,-25.22450502202976,-21.939842317757652,-16.714892690359058,-11.352091685898833,-7.42351151109758,-13.435460335541705,-23.85700171050644,-23.933531691446245,-17.31304097892825,-12.799158148333266,-4.60901604531862,7.22335938612925,12.920229233795796,15.49112412113871,19.789538946759265,18.41131657526026,13.085665693139752,14.158610703801276,16.06517914548325,10.53330794468733,4.754465981908625,1.2350342566611345,-5.282367112614907,-6.968310648503585,2.241819756126933,10.45646027419508,11.88999304001421,11.884244543302156,6.990159571615797,-3.3902890937784576,-6.61434450029179,-1.1442898656891871,2.161783807965698,4.176886189131615,7.879904959436521,4.720750222288613,-5.331240440601526,-12.273812680231938,-16.465398373282298,-18.12619509730218,-8.278317710371205,8.020547006298925,15.12836356549947,13.720829015755676,9.018862399806025,-2.9565732501630984,-15.065850425182516,-13.688608876901391,-4.374579342635307,3.0564098976496434,10.933613492978184,14.322732825703493,5.118078747995205,-6.304052240283308,-9.972473222497229,-12.505458470508975,-14.43346006230157,-7.963375379784656,1.584277025837546,7.006818770893508,12.272660867115235,13.607868207247408,4.119223072846341,-5.054508000627057,-5.743365900605806,-7.411084699309403,-10.47553157756306,-6.569329263772087,-0.5274336959959942,2.8215901600538356,7.780855441520201,9.360727685632341,0.734468623045955,-7.407633381695373,-6.60013598432619,-5.8456624942968975,-7.3726152951794885,-3.215702201680439,2.567162730912283,4.05005432964009,6.055691658711053,5.8930118547105605,-2.439659766328044,-7.800323410141518,-2.1768768941226586,2.4537151655381018,0.3706156897501294,-1.9772429184426532,-5.919495999929147,-10.746743400708867,-6.834598783781971,1.6364984402854796,1.4479324956888935,-4.522244377354774,-8.514172062677936,-12.62893208591649,-13.501583530613434,-4.919087312173187,3.8411242362370155,4.724128681610969,5.086872322633876,5.265514537689089,-1.3966382433852185,-7.6941003411130175,-7.8809057526033826,-9.10075541398034,-9.391665905824855,-2.8376997558140538,0.23034619134800738,-6.180342385077046,-10.424904028966871,-10.127745374434813,-13.144858413967112,-13.76731871071925,-7.527730430056785,-4.705740391666684,-4.769140435673888,1.8515958741625353,7.6044676831134455,3.856313201117703,-0.9061322938633574,-3.3562372671022977,-7.95707944317703,-6.415519988199789,5.9357010793206815,14.773418159216614,13.517108976406467,9.477794516899262,2.5651029902488305,-5.681528666364786,-4.73858433116656,1.6965282861867603,1.1337287568141692,-1.4087952012227616,1.5846167719043243,3.299337538217782,2.670670885683337,5.203482235638477,5.118591587900624,0.2727772887488711,2.0061903578243507,9.620824020385713,10.363572509072604,6.13655238127285,3.3940513880844616,-2.845092339335829,-9.534401502307938,-7.369773293114097,-3.8161642621856147,-6.495574390293911,-7.279643142420699,-5.52556409822723,-9.664065357870115,-14.696707890017663,-13.923451280503826,-14.040776926136047,-15.293387651191603,-9.740674951148055,-3.014243314793753,-2.5157027739984086,-1.7753945755639293,0.5640926174458796,-1.4421708728535085,-1.9041883713965764,4.9324141918670765,10.097700189194654,8.709658658251076,5.39271623470464,-1.2597614023075516,-9.831077560539574,-9.087541158382061,-0.03580991477845474,4.943292718309723,5.496222372033031,4.8948592858798,-0.4350045147715442,-4.711452287499395,-0.062372865454635384,5.200075184936784,5.5103116416204365,7.6184512107318225,9.319508123643322,5.143076443417513,3.077619048935891,6.206213014828933,5.629111868844104,3.1685714460499406,5.5730202637129675,6.386772091322814,2.883377050570897,3.7445736102127554,7.6691712843179385,7.076866666635274,5.724123034189042,6.403618470021652,3.411535960430542,-0.41129851759432046,2.1682185067855335,5.982738590645591,6.353485197729153,8.015121904594805,7.586934674291804,-0.8498875326708779,-7.461137019281983,-4.8351373658422006,-0.7063475335384055,2.6980724467104835,7.517169244457124,5.661710291981555,-2.714281398416269,-2.6213113436173936,6.175868106652941,10.783174098973163,12.164150595515633,13.869880597657517,10.196218549620756,4.776793486621282,4.454859035060271,1.9197176752751512,-5.100563694454679,-5.2342870035075535,2.1637471436585405,7.7196177152200995,10.474473957088831,9.605375167756337,0.5828276986186904,-8.577015180378963,-6.349677365928894,1.3205731657039275,5.524886277348459,8.085644492831474,5.811328168606874,-4.226029750081944,-9.523751049171604,-3.7397713025411368,3.073040964969305,8.11687949841725,14.262417051286802,14.39465722894952,7.574853158149397,4.0357493615069675,1.7338000542978325,-5.433509345114951,-7.998089031405279,-2.4990684611419796,-1.5620910618582557,-6.675310516663345,-8.798827506119057,-8.69628303610868,-5.852158581724014,5.014599795855055,13.430538777041367,6.579009360741656,-5.112565383748592,-8.580404104940818,-7.222238061708769,-2.170679948414686,7.251218974234048,9.758976889101849,3.580770961689278,1.9916825808847118,3.4946262449967773,-0.4709047791094123,-2.9275138089455215,-1.3219980467133148,-4.276961032272245,-7.170072164718277,-1.6912696754168772,3.775444950452696,4.482366038000951,7.532673167565018,8.335524950836165,-1.0494442790706864,-11.601283327838532,-15.911367200123102,-17.556611620146686,-12.348687199144184,3.0316065005820967,15.081708295818627,15.92808275384672712.930086494819246,6.421306313526729,-4.517281599619871,-8.431052510842079,-2.6913251388764614,1.5685374937919523,3.1636309239701323,5.8162926131489225,2.6681073593279065,-5.880796085634831,-6.595920413901904,0.06347557831180817,3.510012237829407,5.610674257627573,7.281348929806563,1.862686358846499,-2.817834505389896,4.5993749220208,14.931828313528506,17.618013377437563,14.962560265379889,5.639318648109767,-8.667499929120208,-12.183510706040892,-1.2927555584110513,8.043797226091577,9.935574561534633,8.13817836162243,-0.8329470415818085,-12.7084767550756,-14.659460480852417,-10.54591507221485,-9.806983017104166,-6.663828637294339,-0.671778072543582,-3.2557166062113363,-11.325525877612574,-13.618312340488925,-12.466029698071296,-9.080255873828005,1.0349400905630324,7.289525956950455,-0.3458643532060286,-9.567364890236323,-10.609192357850448,-8.114822821987413,-1.437313061903354,8.599360927860513,10.376323881358704,4.470381030585715,3.3196093880643636,2.8899797931537994,-5.330505566494824,-10.89488179679353,-7.825959552595316,-4.938493745740744,-0.7338614935124008,6.410061206705257,2.1023198979868565,-13.69836836914894,-20.585089766661856,-15.245625051055779,-9.6015752528092,-4.693837146143199,-3.2042375448847347,-12.89459555732086,-22.55151304718494,-17.576164412446253,-6.166364155280052,2.3380220697412897,10.234860154055037,13.511499630380957,9.72119593915232,9.06478693120327,13.049351049038304,13.260093277511032,15.872931727910391,30.987926948418632,52.179333895682575,74.66491342523373,103.36594338752236,133.76473907289795,159.69524304963554,186.86642993837364,212.56778206208128,222.04203284852838,212.87882581950936,190.9764240434444,157.0079670338235,118.57524959219342,90.29735623575573,74.08244358160552,60.98226009632258,45.41643126189838,20.42950595670557,-18.271502284281144,-55.774499771610714,-76.46717960822345,-86.7721315659249,-97.49738475104967,-112.55962787018039,-137.2663515610367,-166.69569296331537,-182.2856822822836,-180.71714065750976,-176.46900320323476,-173.8885986758122,-172.18403124283282,-178.71600310934764,-189.70289169884114,-190.74873418811893,-182.93377660895933,-173.86633775127387,-160.36543520081375,-145.73367218043262,-141.31070332991408,-141.37622741867392,-132.93456465017204,-119.55119309066653,-106.78320175501548,-92.7833519697112,-84.63753252154308,-88.23388424416562,-91.44070372394123,-85.77831254648595,-78.16451937657635,-70.02349401636116,-59.22771062449536,-53.29769276360525,-52.592645032513296,-47.18983007842091,-39.77005092404692,-37.899825044076564,-35.62293962308664,-28.959720282822616,-22.43889565501785,-12.73972512448011,2.2751446952162233,11.735023580059597,12.686175507190661,14.843997499136147,18.575890685343122,20.21029917071301,25.61695112719173,34.048293554549794,36.40376546580069,36.11549211360215,39.02336009028509,38.25389137505707,34.538907760893764,38.177097249668535,44.708929425230494,45.723413864828906,46.304120072022634,46.865042546744576,42.030976425812895,41.05315073960067,52.053989832913416,64.25670452570738,70.76289614358411,75.69211406800773,74.66608506711009,65.36377616400969,61.28613430333152,66.9462926118471,71.7241240948167,76.45351912547798,86.19373050968754,91.03408182597886,85.82865341733367,78.55561615555871,69.77446356319986,60.45198009457471,64.09634942091311,80.02507091878502,88.16802156240084,82.67735387926189,71.98725583680393,59.26525644637702,52.949129506192534,62.923698331815984,77.11613899688042,79.21683344201303,73.18147120205614,63.70401995017657,47.951626130544895,36.10494741639365,39.30045260596886,48.537123242271015,55.93021737180909,63.97532489623119,65.10474371330076,54.28499734765988,45.53044070593389,45.12096674802254,43.411187256084936,40.88400759812084,42.3965479653792,40.49053034955998,33.91769584667057,31.620875180317057,30.947750256404284,27.033642608921678,27.048817783668675,30.376210358805384,26.65283896844774,19.12630276158135,16.749378636688625,17.677549266563194,22.828180214895802,35.39751375562283,42.62340823468513,33.70840643500332,19.203006440056257,7.877273604319711,-1.033596548510788,0.008648630523713674,12.87710847650432,21.35115350146177,18.95471448620302,14.350339680203907,7.3950875249280585,-2.599078079905656,-6.257146261687474,-4.3702783908420555,-5.914309570923601,-6.9459404903171755,-2.401902074892821,0.13916285989845728,-2.0838329659607124,-4.3300555388123065,-10.337702421335795,-20.28148090476016,-21.469347281791933,-13.413288689983386,-9.570763564231797,-11.1120851706432,-14.141372904413206,-22.820219528675466,-30.75309001130549,-25.9280187247125,-17.228346034371242,-17.08046781402908,-19.159347146712307,-20.1885352644443,-25.61855745689001,-28.655595026949268,-23.31410411867923,-19.43500949562857,-19.215209938510917,-15.041630155809933,-13.432301181146368,-21.693540077718325,-30.24104752199096,-33.94269750207245,-37.4796492981169,-36.7663822383639,-29.84561168343975,-27.50989056315651,-30.697843329486528,-30.288286178121368,-30.74889704610097,-37.587991154752935,-41.52712223147327,-40.444591373658874,-41.011074038184404,-37.217437507917104,-26.242446833185635,-21.17462217375431,-23.057814435188757,-20.5913035940006,-17.578325489356345,-19.417075099799717,-17.616248395498218,-13.74679097712234,-17.22544767606113,-20.269285746464163,-16.096967075030346,-15.43666149039763,-21.353914126223774,-26.286862900799214,-32.10274854342067,-37.609029146667524,-31.07511030006055,-17.084367147128027,-12.940622783532582,-17.783303400395525,-22.34612837309087,-26.698064773715583,-26.240593803419856,-15.722614445097886,-6.601921689955279,-7.662555659491197,-9.814089099048672,-10.297348819793624,-16.635301870541575,-24.15100661563484,-25.953284915739268,-27.014106761465097,-26.274785679066515,-17.90458691043112,-10.253272950435633,-9.926732854788181,-8.52282855755625,-5.576367643982479,-9.076182081095105,-13.60326975183299,-13.37253765632687,-15.184027979726242,-17.518278277322796,-12.61561433528983,-8.057704678347331,-10.92065162573398,-14.325742179263255,-18.429133465616143,-27.61436175332419,-31.690829523036022,-23.841118450716035,-13.916363558063438,-6.5350713368303435,0.6748534016889005,0.31139931458340353,-10.510037120335296,-19.644614055698746,-22.483280253370403,-23.498725430277705,-17.574068517485216,-3.8664819706573965,2.9401381735229535,-0.9196796775343119,-4.709257286406258,-8.375062497275454,-14.287613554003588,-13.799321858793075,-7.773842016625714,-5.781417356153771,-2.775936419746159,5.176012758091627,5.8843747478026796,-2.3263944897321065,-7.856038186787202,-9.849912311143054,-9.233877012869547,-0.37034812625645364,