-69.14303821065728,-70.071832210827,-64.95383673577692,-50.32576254742155,-40.753819196506186,-33.23974511769681,-20.16492273442264,-15.51515198933822,-21.534910613088808,-20.979883480984924,-17.630149509154062,-19.809161054718285,-11.593232376538385,7.228598293607302,12.969297185807818,6.415463465332834,1.5930487069894164,-6.713986122694397,-13.29059999756588,-0.7982467353887666,16.401905740403585,17.394763421726612,14.815188059992895,16.860966605918275,13.681879963513088,13.497139167900357,22.676992369810442,23.02562963969251,12.618830195528943,9.813181431675202,10.63637240161103,4.317713155890513,2.016159116367347,4.6556880237462455,-2.633782562256126,-11.773924687509156,-9.59627838793135,-7.606407647717227,-9.116581766369189,-2.8884349637203233,0.3525993060027861,-10.442141475193761,-17.282580685918397,-12.13892518514383,-9.220175862545709,-7.1743690599286705,-0.5976255050778461,-1.7390979524104886,-6.1619789642301415,5.780803099790655,22.421179122512427,21.957255488021907,12.77676434182166,4.855159109634309,-4.661197995781017,-4.817932375133732,9.714031146547125,16.921932411367674,9.08456379721018,3.6736658240716755,0.7940430204309775,-7.105098356705861,-7.591699765923659,1.6449880704708715,6.71762136623431,11.361994687279317,19.42663063392643,15.048910899759992,0.6254346786820966,-2.340534687762266,2.620234449516662,2.1976521862898877,2.410313899879129,1.0811591794937805,-12.631692602195516,-23.955202108893296,-17.195072293763687,-5.575175814827352,3.10034235041896,13.924757946346553,12.790879942188425,-8.218431995822625,-25.483270955218977,-28.328403063820268,-29.34466766349926,-26.65977793461545,-18.968054905947533,-22.870774067061287,-34.35709501179952,-32.62414432268037,-25.82186700833875,-28.165206524071074,-26.887239692704863,-19.948255765403363,-23.071194444234315,-27.59258109070508,-21.154340787845015,-18.78810413567058,-25.08405984997142,-26.38213338690817,-28.208297201065157,-36.245720716881564,-32.172001636428654,-13.817723534662196,-2.978992279477718,-1.361591641887852,0.009177574692925905,-5.829590826205575,-14.52186734089361,-11.127501528057607,-6.064523997885145,-10.322534628028492,-9.311051979231115,-2.289874453970695,-5.418310983129031,-11.254070609397875,-8.254229362194254,-7.3808134204681055,-9.346332977445737,-2.008479058059263,3.5676314855622575,-4.9647524026641445,-12.101995612513294,-11.606050528248486,-15.782332410567836,-16.75753926957742,-4.572580988933778,3.972017528911645,1.4168319552624995,-0.354208833441341,-5.622628445453876,-20.0431605680791,-26.585080059755228,-20.13441959865512,-15.005112402125155,-7.872194039247399,6.770642098822618,11.806021175393822,3.451434289566708,-0.8173516524639397,-2.493943012979548,-10.368676584593462,-12.351529946191945,-6.460582958117383,-8.161339474931063,-11.394296955303323,-5.59006416902256,-5.278514387406315,-13.757100955007555,-14.37028431461788,-10.833358681060705,-13.916159947410453,-15.067032436123323,-15.29156996689305,-25.378425772699426,-31.379798521724766,-19.8946418931928,-6.239774411746903,0.7310637622589617,5.700334748499721,-0.2005975841037282,-14.726555599212672,-13.13632766376989,3.26654219984664,13.119042347500812,22.843238728883794,42.070381535113135,56.62042832621643,64.27271359563349,71.66165182616808,62.28933045484722,32.69244379133751,12.976952931669777,11.270498442751403,7.878783060411687,3.609658603809191,5.663237703049072,2.931620416015827,-3.5907560295541345,-2.1107167004650456,-3.032457372990664,-14.054167125213866,-16.74421919892147,-7.412002734804622,-4.396974009495785,-7.217495263697733,-8.601808426336563,-16.594652330906452,-24.426540319515265,-16.759363468656133,-7.751501670164494,-11.743157082689121,-14.99073964615661,-14.338692032956427,-20.148649706381104,-20.4474007830228,-6.564504806333512,2.545730028298569,1.115678485929147,-0.23136956397405106,-9.430328073586642,-27.42099257648571,-29.552497338997824,-12.252529766392293,3.2124866430683223,12.594247885237802,15.877318534490668,2.1580687946187793,-17.98185641617072,-22.184531342988063,-16.775809553527104,-15.461358426219235,-12.469941888718928,-9.977876382307354,-17.821810634064384,-22.247284974650494,-10.71491075541891,3.31051899329383,14.637740529618664,27.909945118810043,27.57786566332217,7.314009616145654,-8.755282359911838,-10.835747470026462,-9.432085434419903,-0.901456731813914,12.99373875913496,12.540882184948149,1.6365683280184378,0.26482936847041305,2.1599731396800927,-1.0393905389449154,2.196373499587965,8.243199208818734,3.373762723324334,-1.6968830006784164,2.2205554979088156,2.173666920264231,-0.9746463840562798,3.7392089712694796,3.4382815202383235,-8.072892682270222,-10.371656672327807,-3.1552471251018557,-3.8705616002747463,-5.553921735823353,-1.2973303200098383,-3.439263488052778,-6.30899647366862,3.729819840399666,11.361158069139051,5.4089564815587625,2.733359361035361,6.248591962639948,4.562740792138941,7.277414647652571,19.375183179395155,22.514533522132997,15.016980751226285,10.737623305566133,4.581679323739985,-5.6686546111137295,-4.2288801376984555,4.080491472579384,0.35428973811487063,-7.030363623962864,-5.760647128816977,-4.655697316700661,-1.9265521836581987,10.247487467320676,15.574212706448797,7.403071268491806,6.9642778698983685,15.733266213788593,17.620919426073268,18.736988915442534,22.931720601255332,17.03974228048116,9.919079066720721,16.79454327310012,20.7821766671151,11.741964465751387,8.43717549318293,12.271801412664477,9.606622091993113,6.823888890222314,5.488793892324098,-7.245775634347887,-18.776179328442613,-7.937793503867971,11.093742072959184,18.181870425699156,16.70369615061838,6.279636514599278,-13.161551767228971,-19.039742281033003,-3.107039481754655,11.669666104331867,17.34369596047621,22.57846169259642,20.67153049123568,11.318856447988862,9.36757722714688,8.384459055343855,-3.4705252720357675,-10.050076154423088,-2.9262620964407624,1.4393431645072927,2.885284406709866,10.649597947978124,11.856997520170282,2.0023318667162266,-2.138019727027489,-2.4929274703943936,-8.40178940019018,-5.00868553438216,11.224203351702103,18.526958305043266,16.334648280803517,18.795353422669443,18.358965329805997,12.390982611600903,15.745319762927947,21.93845609926477,16.050736721325237,10.123335123940626,10.623388625609778,3.0523216624497302,-5.99829705532226,-0.2554095796140361,7.8773653335552165,7.589565610879429,9.78282426046293,10.71281259663725,0.26504106166489105,-4.6934411546066634,6.137603781927816,15.327672797644789,19.429717732459675,26.660223544520917,24.331759097849886,8.942181919168368,2.369751605101511,6.270248265635251,4.832848256177064,3.8816176447937147,7.306470868736731,1.2933970133712198,-6.485523600819127,1.0814106574263547,10.484207734660233,9.2194381127457,8.449130728616971,5.59088600856443,-8.017562845549849,-14.417681420163776,-4.265408650130664,3.3158629228171015,4.284022392244267,7.500142016531415,2.7189770670330162,-11.155143121125874,-14.038798341807546,-8.195442844544338,-9.3305214954957,-9.214570085228631,-2.317508382418424,-0.9763122866680488,-0.5274833706517166,9.789401348320961,15.900801816092677,8.584389683751628,0.15923665603135118,-7.806540331546137,-17.571084280966325,-13.103776933656347,7.13649267772265,19.673017439571446,18.534800217549133,12.530648702783806,-1.1163656501495671,-14.01470978756732,-8.388252813277132,3.529351902214222,1.9813536691658165,-3.383882343349061,-4.0335469670422395,-7.3022845357864625,-6.282818624472539,5.243309449933069,8.478320443840483,-2.3379823544521314,-7.696320608547456,-6.983807527147846,-11.54216562084871,-11.282677016033405,-1.5542890385229664,2.648335014121067,2.6225010168657814,7.8792771145237536.756389074516715,-4.916184705393809,-11.076385829885915,-13.713831036178139,-25.35500757336653,-35.60567582438422,-35.39381054688602,-32.757270464928034,-22.955601302313262,-1.7724448081032689,8.285767484939258,-2.500104562332946,-14.870936452844802,-23.69302761585707,-33.683245454459396,-32.85485657154226,-21.608971916760503,-17.802869734740014,-15.933496862002237,-3.6134963412608494,4.001951771550681,-1.8998817150670972,-7.09895711768557,-11.913953627748855,-22.39501232448258,-23.580643810132976,-13.547420371102948,-11.342397444070603,-13.2646210477222,-6.908933850027359,-3.986657824131931,-8.547915647632532,-7.70792638724714,-8.392392875606163,-19.838726849898983,-24.43290454349833,-14.785075896106711,-7.135768188642599,-1.6884426538852237,7.141681660850121,4.242231177073293,-10.08134662071734,-12.198625760974569,-2.922922847517843,2.0083786843293385,7.338462419069683,12.821438267249084,5.141588077032986,-5.451085304958955,-3.0596274923046334,-0.058043441136955254,-4.19762440171405,-4.532223430586127,-5.923344065878287,-14.70111912457698,-13.792529530317093,0.09261158029838601,8.978487014677274,15.135714541989099,25.441965727902666,24.858059006829727,14.633370704854542,15.762136506073462,22.468666711365447,21.110733765636255,22.13143101236312,23.85307919582383,11.397678658329623,0.41015698139685686,8.834542028551727,20.120629728256752,22.785068315108216,23.411110077010065,13.902273242622417,-8.19356307182035,-18.995124424359197,-12.17634201494179,-6.587995057037695,-2.030960204747342,8.144087436491008,9.575587949666378,0.2396095756671932,-4.116517998388947,-7.805464502683741,-17.172269849558635,-15.725080224500678,-2.6711735049775807,1.3283654075287197,-0.9305414782097678,2.742299243002361,2.3471319893145477,-3.0977587486566653,0.49341390731809476,3.7448190636264083,-5.703609747416067,-11.346268018502535,-5.592102771431507,-1.5290672851534146,5.361914508767099,20.79461144957968,25.93358381335446,14.882031969800973,3.6159871306104634,-6.612487392216049,-17.316959980412665,-13.462577620164069,2.1360006220109335,7.066576110245099,2.984907293824862,2.9069595718452117,-0.01914219695061692,-5.631706951116807,-1.4957400693366698,1.3615086572951922,-9.451826042302974,-16.741704963681762,-14.231484161290878,-16.73831626715013,-18.08961120227373,-8.384762057207384,-1.0687867842842844,2.899391412572075,16.72560336300467,28.033035866174778,22.34380776682295,13.92847062674613,10.05758939419284,3.1439596464538386,2.6910973450740228,12.254428892820306,11.148679598860305,-1.2380240063510701,-4.616000683499244,-3.2151950213914757,-9.124743274269743,-12.53065605839258,-11.632537897341251,-17.002536463069248,-17.599945276807432,-4.67916854875447,1.3170821637916958,-5.4476210695254625,-6.424129273623263,-3.7556144671844414,-7.365901375722987,-5.949344753095392,1.963191079061259,2.6766350324103794,2.614171573690876,10.882488866739317,14.457629983733522,11.47161378953388,15.207376769912798,16.631653419878596,4.977154409857906,-3.6216016256225476,-2.6404679709153833,-4.298444723955943,-5.123594316624934,-0.7767387970557618,-3.8702239747279092,-9.527753904249812,0.5709122954102845,15.878738894245764,19.512788591815198,21.730999982265203,28.863705790993514,35.20685313344875,52.064926584060075,85.36363390273651,116.65250942843913,143.25053512948585,179.1160972393958,214.44055348126392,233.16202383868335,239.29868927890985,230.22881130030413,199.02931878483045,166.63925158055702,152.08021246926873,140.93549924567185,121.4886217705828,97.20160640756548,60.743647705589055,12.37414691392787,-25.982444674122277,-49.22869858503895,-71.49788604480662,-89.5495687243496,-97.76163231516203,-110.43066355551521,-130.53233562649544,-146.2221057479454,-162.99789419763064,-183.43267856015314,-190.22379299710872,-185.57277783647166,-185.98780782316075,-182.91327850543234,-170.53030198573867,-168.22864022071258,-177.1421831054634,-178.84508933443027,-176.85195520478004,-176.14753306098473,-161.73542952072037,-139.81753396982444,-133.52680777339685,-133.7665833460273,-124.40998580563007,-117.29024154100381,-114.49927442585566,-103.25057024789368,-94.6504070019021,-99.38448906245534,-101.5289415337293,-98.04900462653012,-99.82250676457521,-94.68452978492081,-74.09841953557947,-55.416843131482935,-42.50806970929622,-26.592223262492766,-19.416615141159387,-27.005352254180522,-31.518963104142667,-30.195998291919075,-32.31725464636316,-25.12499877200026,-0.6025199586937067,22.71387202187485,36.8755259516883,47.74158934999178,45.83207161483608,30.24029243303132,24.615583340394778,33.16062096333949,38.09946034597104,40.798510749221414,45.43490004341088,39.11428533990162,26.79149463123202,25.879556061924085,26.623404244648423,18.820372692782307,18.215910779867816,26.605664013656273,29.52903263887861,34.8215505751797,49.39988702655762,56.88055908487983,57.84703795401321,68.93695061420722,80.78934592512093,79.93322355794581,77.78762658342235,78.87910941603836,76.53424123481315,81.67974911767324,97.61401426611855,101.35736952895478,88.00872043990475,75.51986326423948,65.17523117622555,55.523407203629404,57.80490968136074,63.20628025921111,53.6800832779036,40.451844126726854,36.3218787845918,32.37788172174528,31.569046411497823,43.608407987085954,53.66419488177968,52.032247165928936,54.14557273370079,59.52563643899957,54.023970523307774,49.47413781737268,57.54387123544201,65.13081124166541,71.1530572989706,82.76627374346069,82.85738558969814,63.520568957869216,48.58303955391774,46.74378438093893,43.53973030286859,40.36782150641583,41.21188301918707,33.32504035864014,20.461184065033827,20.768616864752765,26.98107405074532,26.302973625479233,27.80125171877343,31.143265471212004,24.921253779339764,19.20745582402261,22.976419594865117,24.35111095124714,24.734581229657334,34.52445868564447,40.32906412104414,31.92871685747471,23.153869710277327,16.3539935261414,4.414819598859154,0.3891771435887257,10.286035213450864,16.53945982547004,17.082980423994353,23.09596918646853,24.027493203797317,10.8463913565989,-2.018040400150161,-10.352752855715824,-20.75098375748887,-21.75242178984949,-10.120454801026938,-6.071046536492145,-9.750596556744771,-4.783176272284643,1.670540026387519,1.3165101383015174,3.5630862133624017,2.542762018365983,-11.978971521052536,-21.33519575663676,-13.04534082199553,-4.525103796701448,-2.272422432114196,0.25466580356824386,-6.557264781442106,-23.574223858959527,-31.703872992865538,-31.05326108661,-33.642022105390275,-31.58332130231463,-22.10881593975297,-20.138578421767665,-23.545500286518717,-21.27816843484277,-22.712547023044724,-31.565172977634017,-33.87044674159655,-32.6908047069072,-36.805518210970234,-32.02987138395895,-15.67700103420173,-9.140893605918144,-13.363861919359213,-14.951569789670836,-19.738929747384724,-28.092110114844033,-24.518036123566453,-15.956849110447717,-19.45517871269986,-24.942618101236622,-24.128426870668882,-28.620303456284766,-33.110836275518515,-25.508783009136412,-20.81462122012246,-27.449395025660305,-29.168756958190343,-27.25499427825236,-32.778211959093575,-33.866223235368274,-27.451130925148135,-29.501898490565733,-33.12624218658878,-23.973288726363478,-16.263687455821646,-19.00014335120511,-18.376714902125784,-16.774756197525583,-24.498479286797966,-28.774758301735055,-24.685163527643475,-27.188194816899667,-30.698735724618125,-21.833135157014624,-14.549405321379684,-17.25423162744348,-16.10986303405305,-14.659626676199265,-23.16480514731876,-26.622334311665206,-18.92575382301615,-16.301095421707164,-16.114369009458944,-8.27820274890508,-7.166684665578828,-17.825641982975085,-21.96068541803196,-19.773025906116587,-21.777612826571662,-17.62750787813706,-6.7138945909276275-7.647974146900563,-15.905224843823811,-16.084278192913,-16.08868194891108,-18.800683507777016,-11.221390160500725,-1.4622574247536098,-4.736645979552818,-9.974530373203303,-11.01110211393555,-19.4111090527236,-24.74374786056538,-10.066589409431707,9.472958133227106,19.391798204055604,26.0558423265547,22.481988629425842,1.9216618571106077,-13.267298820828005,-12.738870330269993,-14.289948556963225,-16.562528858354113,-7.474435852212622,-0.7530984588896334,-3.6245834752156245,-2.48022283704122,-2.9112830787934905,-14.829957029611583,-20.39316128034977,-12.410713947989553,-9.733413271594191,-12.440205436387977,-8.217799890808354,-6.672206250379961,-10.752784662067587,-2.81730063572318,13.224584455047816,20.272056568856335,24.479477445382024,28.246962091617206,18.93539376250591,7.305121284228618,10.184248856587118,14.367440901765743,10.167603768465964,7.870694830877335,3.1823461095547065,-10.611785679959503,-17.93587842112092,-15.649575747985551,-19.868238600301158,-24.010571572718312,-13.777053706106484,-1.679276683023084,3.179019650301336,9.66495858691897,12.092534635684174,4.181257036695504,3.721027275248831,14.822106858211097,18.622294914726517,17.147748276021858,21.939394568879646,22.701466688419774,17.375489803053103,19.191587776756926,18.522476065337305,3.450840747437846,-7.888025947596008,-6.954097696254333,-8.947858193686354,-11.548804613233482,-6.28754058515714,-6.4385842379928935,-12.51746752762267,-5.613394486056414,7.196138312304527,8.14030490659216,6.314948678146844,7.022696753122187,0.3300028796754648,-3.2314429342251594,7.703052892045115,16.854391823652453,18.648849971591563,25.621246523998586,28.467929904282578,16.05664166708104,4.9064644942970475,2.4514896757355364,-1.3983646701850978,0.4296770363371374,11.865786762979889,12.196949275056621,-0.7429959896235259,-5.715064684342559,-4.125054597608335,-6.016185638475443,-2.043325404221845,5.342538688781436,1.176609983632135,-3.4070101721382327,5.622745347058681,12.866908408335284,10.255171647310402,10.398568817280339,9.374064186003206,0.06901840724943664,-2.4919626427132355,3.579128864520973,1.84810819502556,-1.945229104586193,3.3325541963223535,5.448296561184712,2.219982772389928,8.00897107585629,14.649119457404371,9.935085066210164,7.016643454704584,9.26386772064393,5.443825430837827,6.8862883096809,23.898158591094962,37.245427207523754,37.58353661116596,36.79071172417702,30.987200167848364,14.203644091259754,2.710789729664464,1.0458965739065467,-3.858281060743736,-4.790751836642201,8.099949193578425,18.488240361932665,18.30076316673689,18.382381493207404,13.619184905496663,-1.8955591413027264,-10.376876135030427,-6.059736236940813,-3.289267936598688,1.573520218298749,14.659257191164532,17.76520908019724,6.141742812803104,-1.142058735817706,-4.24032545662093,-11.221686902223338,-9.659207277053767,0.4272985719781355,2.2829290275533847,2.9818428359830866,13.811054154332,20.306989113913488,17.359419425964816,17.112209380264993,12.558966411218748,-3.9523275019020954,-14.39015331187743,-11.719414075093177,-7.752773758919368,2.253076111540376,20.92592219336314,27.06356917733943,15.980930465346031,5.11750537886037,-5.6227725806779985,-18.550336546854542,-17.97494539191981,-6.67977520150655,-4.9827461700892925,-8.927843798071583,-7.800731118182709,-10.677377998149314,-15.076679288642746,-6.446177920385129,3.409932766444201,0.45007310117346755,-1.659150344831803,-0.18777397254681705,-8.278773592298785,-14.897933599884052,-8.32067693218298,-4.576962670048514,-7.472700281916639,-3.0782037274134026,0.14265749686393647,-7.828648023146616,-11.755189632582718,-9.19103989957225,-13.63877137375045,-14.589898817359888,-1.1408839312123273,8.305643669657828,6.191139076472627,5.784711013550746,2.746193565167089,-8.155231103097787,-9.391329059686631,0.7772397662937434,4.334997855499719,4.669478733095861,9.370051198517997,6.055578487850438,-2.6908523063466907,1.103676431539979,10.158464986222656,10.118350658144758,7.734181002501826,3.338971609824955,-8.960742695959489,-12.950324379014662,0.14519727104638847,10.601775216907248,12.566276673220024,18.232819274097437,20.72729237902942,12.128775399366788,4.926220885743026,-0.6151178517438691,-13.147834714645423,-16.79385473469364,-1.9416622567079713,9.336854737052965,6.473717334934451,-0.23947388393736402,-12.556656675762955,-27.564344101433665,-25.911982363436636,-12.840561201566786,-10.307267191322273,-11.678593641749176,-5.065622858278463,-1.0608930372132306,-0.30610061445232084,7.814239353637226,13.689237522879624,11.164376037855678,17.246727669547834,30.362419553256604,29.448936836278442,19.160788491020064,13.01946735623291,4.626470356722368,-4.105866986915475,-2.879026021559355,-4.263210088319374,-17.624849434135008,-25.802827620540526,-23.640622898109534,-22.98352024823643,-19.22955757517523,-9.261257198329805,-7.996716006411209,-12.738680328666982,-7.066646433983959,0.2194287875228098,-1.164107867139499,2.590365302177566,11.500079069300496,10.48563922189858,7.537128251255735,10.679093260716936,6.548169688973297,-1.5108390712999995,3.113936133941715,10.301375025536357,6.356825750704628,1.5213719895793474,-2.7120882675126246,-16.343013301987547,-27.163962081222387,-23.75723653772798,-19.167369271073227,-14.865523374518538,-1.6024363031490636,5.437992067121214,-4.221917579937852,-11.734935924895924,-11.772334308402911,-15.388628225663908,-13.522653143536505,-1.3282726492804557,4.311568566074994,5.318086837344204,15.806363971183593,22.796243718343312,14.03805775842245,4.201724708841807,-1.0387775284828706,-9.067751378042376,-9.535521504367825,2.777927470190537,7.997635608400537,1.6881375981277649,-1.8120764383375834,-7.083711750446278,-18.010175219569366,-18.853462483345332,-11.421667114077746,-11.694969109414094,-13.154835100770054,-8.386535184739579,-8.711899873878732,-11.887056887386006,-6.446973383144906,-3.793054672216001,-12.017826692572628,-15.590683521249295,-11.587101491521594,-10.23858188723392,-5.178340658850349,5.239160855665705,5.323418771937963,-1.6313294317122025,0.2763939953067651,3.546785340579682,-0.3978573601923676,-1.21115223900277,-0.7869519471647656,-8.302601187646129,-10.72573790871436,-1.9050583702548907,0.2918937778179377,-4.822985709704481,-4.172539584954986,-5.5744377855951965,-11.699393628671649,-6.15389392944112,6.047748232440406,8.055892313145424,8.026838071682317,10.840206892117815,3.0368488472286175,-7.445330412428726,-3.248050669209312,4.093855174912904,4.737455192100086,9.549038167414038,12.456657639594757,0.8837463966893448,-8.466985165415512,-2.795486687240385,2.8769944546777912,4.727638963318821,10.421338996652937,8.290388231431303,-4.926857939868141,-8.674462526135029,-3.786486699194467,-7.590313094002426,-10.87285163177655,-3.1924797468211192,4.193896174693503,13.263955065940678,30.78041406221773,37.64237593284323,25.905771039261133,16.823410997492505,14.792119670055847,9.716611556795506,11.396661722312246,21.486629538798883,19.702085290379113,8.677277676072167,6.977169473150498,8.349724238737254,6.271429727047361,11.429262858574829,15.814505835634499,5.483206243506519,-2.532528248914626,4.563179976709616,10.387394123559943,10.082791592942941,12.141588106118597,8.222913068637197,-2.1120357615448953,-0.5253991172885564,7.71848094431341,4.4242397820748165,0.15571860187319753,5.300995878544708,6.92464689994371,5.930937274907511,12.25490214388297,13.20534780852296,3.7147811618278967,0.8766663986337568,2.2979285833169683,-4.856446641688109,-8.292056934410185,-0.6986060633841271,2.611100204782156,1.9937791660762867,7.082256069725218,5.6133263385814445,-6.390222382688435,-10.70096364519705,-8.13093830425752-10.019411828069584,-6.490492557231676,3.084179702562235,0.41667536571722597,-10.065033422425492,-13.39206248687237,-17.02902230425667,-21.897152059464176,-13.2594941661952,1.0505205266601054,4.4463405576496235,4.876840089150375,6.8420111276597195,-0.8452856647333724,-8.365963249106755,0.04838518223900401,9.160534165578932,7.502376931402141,7.729407751975823,6.810630827503994,-5.469109545034901,-14.355639714001638,-12.035560014465851,-12.451488482941247,-12.40694498238369,-2.4315061196081094,1.0032737886026684,-9.333353889015294,-13.925956208626372,-9.267347206374549,-5.489995204524469,2.387259324982277,10.139372367994765,0.9035475338322958,-13.846835533225384,-12.42714841191543,-4.01405114784504,0.29914144214576077,7.30744597924361,10.083707312199863,-0.14701057848826604,-6.587942742769473,-2.3614982593795224,-3.5265536192079705,-6.844240386195501,0.6309598710591646,7.205596506968663,5.017486789195564,4.3909512887322935,0.0222568946203876,-15.172617737202698,-21.825868363832132,-10.949660269598223,0.07891709429890525,7.719736326717527,17.196981255930158,16.45642817671201,5.450575032610572,3.101516572118763,6.810424627936796,4.228388251742566,4.778224877380824,10.76651089330489,7.32537993981417,-0.17519522915215058,0.7997986729205551,-0.27739912584462323,-6.921520665227097,-6.714856718114971,-6.699832272322378,-16.560620485314907,-20.70620450375185,-12.806074632135811,-7.215852752397005,-2.8501507095805727,6.411113309010705,7.212147205710064,-2.4496366971367247,-5.865164521701806,-5.317594165637155,-9.784711008434211,-7.672349778423635,2.9114930722643217,5.454377920501104,1.2031562549651365,-0.9721143086090374,-8.458746779106475,-17.424937781941637,-11.414323457187324,-0.23672496611944105,-1.830514923675658,-6.902781744179877,-8.471743073713178,-13.889466933141069,-11.633909230940105,7.205057039730936,20.28826345483892,17.672266554529138,15.236367399634196,11.79337754078385,0.5922967405941062,-2.9776897144090464,4.432984051163479,6.076522972693661,5.978943866573438,15.74532203831123,23.943374529360195,27.126206168850025,40.57526443560267,60.74828468064526,77.50525659659097,102.40198654629903,136.59114277901296,162.64107596463916,182.75098122563884,202.75112898966063,204.75931968518324,184.5159599549574,160.25975836478767,131.32133217362906,92.81959436873461,63.15933171656911,47.22605324294503,28.71021560441229,9.199482382941042,-7.286276436509711,-35.46381130889067,-72.27213521595695,-95.98012493124143,-108.06265027978384,-120.07578939993915,-127.25065771200084,-133.40829928347404,-151.17015102651834,-168.6939217626872,-170.74164760997124,-167.4814797871911,-163.62771533342956,-150.8897681108391,-141.58927520661706,-148.99120936294855,-157.60578925881703,-158.5299730081888,-161.58424258511286,-159.77720580483611,-142.74300630823888,-123.65564775634772,-109.40309515821608,-93.38647911284892,-88.63384378526641,-104.42844130038482,-116.28651529858286,-109.82326552104715,-97.62394284167027,-81.09479296729756,-60.39960655264822,-51.703594237572275,-51.733812055552846,-42.25244657824301,-32.803618758352286,-36.11129947265451,-37.00131646854378,-30.197154451672667,-27.96073197813798,-23.878816707259983,-11.287070414023917,-4.723301795114548,-3.968386116969906,5.5101153333055635,14.158541055903948,12.43199981814999,17.322392156380758,31.179177172122746,36.79669623212018,40.1295568394534,50.21906968780566,52.115841489369885,45.840874981686554,48.338835545402574,52.28067705554331,49.53962813630315,56.45825131058871,71.00483382544776,71.04058018232024,62.359622778158695,59.987619148909175,56.3292153161733,53.43655235461017,62.860297695540396,68.95918852446492,58.540790144171694,49.63343557779504,49.88787595964884,48.62609540692712,52.96162935348391,68.41410337565192,76.43702526030881,72.42275691230947,69.67174153535512,63.282435001519836,50.103238630196714,48.2863919144769,58.71903686313359,64.59285383594721,69.1406265896836,77.10887040938975,74.75557198695562,63.88360424918815,59.775826310470165,54.855018396990566,41.69766166515515,36.72139071660796,42.231847703062975,43.64566392026399,46.838351934401885,56.64255655080795,55.57764868427249,44.89953944154297,44.394170514769684,48.38451785957893,45.327683018985056,45.02665575486792,46.06084667537618,37.162982925665766,32.55667625898742,42.878671958965946,48.512444920885656,42.82873405151254,39.74358325612157,34.84004688447145,22.575930664803614,17.706118187433546,18.751867361950346,10.16282336112016,3.691679405521361,12.831894985205965,21.531572380184038,22.140275101429175,23.538969301178625,17.043138797622056,-2.056681224848152,-13.446157206746319,-11.972853103657625,-10.014747873369341,-1.1099026215599972,17.850981900697736,26.645305696813672,21.091921355058066,15.626319849231155,8.354607167271865,-2.375202346127598,-2.655602757666503,3.03565830190254,-2.1791041440656587,-9.290062531685589,-7.03498729682941,-7.377797241344601,-12.146463726231541,-11.529027210512364,-14.159964619766646,-23.03741814975787,-20.159732509191667,-7.499967885449408,-4.558463599155709,-9.025626810945349,-14.238408519533353,-26.341346012482294,-33.22286039526578,-17.05060302614292,5.045366757768595,11.19633135312628,6.938298213682982,-5.742407929128467,-28.19529721431514,-38.72137430612936,-27.028965563104904,-14.910430692177481,-11.39934168140995,-7.728951800793476,-10.615288432756666,-22.64508688369179,-26.302958755000343,-20.832363198267412,-20.311551450791406,-18.794034243686397,-11.648635256435732,-13.24601095157616,-21.322546415952743,-21.500456541871362,-21.511068987208503,-26.195258885861826,-21.685284556745586,-13.168561505432038,-15.863674583284634,-19.34696600844706,-16.555996057656333,-20.997617417241216,-27.93844280636108,-23.25037046780939,-19.18700979984569,-24.40849329948236,-24.92850482259091,-22.86633748583374,-29.269642738869134,-29.246828522814425,-15.014212609020802,-7.297397280977199,-9.746629030424627,-8.564824076194196,-10.51950776590032,-19.542049194679418,-20.28209743619491,-17.03712932588815,-24.895029821841547,-30.995125782880983,-24.985391218291227,-23.256002453300603,-27.960197910615094,-26.097989169989464,-25.170696421440834,-30.661287055648828,-28.612524766490317,-22.01037487241422,-24.506866067230494,-24.192860857858918,-12.117161104786312,-5.747296118125703,-7.98944869819741,-5.523434365295639,-5.406459281912944,-12.393729128351465,-11.30722090098595,-5.877073040036834,-11.818973447412827,-18.626796833348156,-17.239130746176954,-20.071422028335732,-23.505739195195424,-15.233690654434032,-8.63685275944841,-14.1083387247249,-19.45601410584484,-23.15767838758768,-29.555727476339822,-24.682495623485778,-7.500672786483893,-0.5852979473374653,-5.598920738861475,-7.4189828214939535,-10.047858074834057,-16.187251807770252,-13.425431868232454,-6.918837470155238,-9.73497448397952,-10.416669666976892,-3.286691928760459,-6.076422176948972,-17.19506205427927,-20.196227422968924,-21.279394613685312,-24.047142681417398,-13.74311553364658,3.9730268946028993,11.180406999947776,14.40201738927305,18.993952465133543,12.820329945766193,3.702233423039625,8.404005209465616,13.328451501355717,6.940758981397338,4.799518464465573,7.5962722430789675,2.0605903440415045,-1.9998022844780252,2.196209867444633,0.5846853891251276,-2.05474846101606,7.371164738207986,11.70379121551487,-0.4360221376620501,-8.890863484876071,-6.9347322730180165,-5.3054987416209105,0.547002195876463,8.382604767158279,1.8011574933134327,-8.217755612662142,-0.6128941660440375,12.551000897149985,16.627159257053655,18.250073989601276,13.314784497273973,-4.545248327735582,-16.018226635927167,-11.106823278990134,-6.090286410455027,-2.054197264635742,9.401135383903119,14.9019487467225189.693278704982479,10.559436907432145,14.976162333071816,10.784825902176763,9.6252845642382,16.736749547734824,16.7050818398223,12.375972986816903,15.436745053372283,15.224891378841907,8.046367072656944,8.32835064905274,10.892526104855698,3.891751639913601,0.7245190366932315,7.782384853849857,9.477289007609329,6.336447391046773,8.134969660774615,6.538806968580207,1.0958347477276915,5.107648732615206,9.48216949701029,-0.4305688114571371,-10.399492391773787,-8.100086560359944,-1.785829540882049,10.009045701182785,28.733747377360586,34.2086417875063,21.23743311290286,10.500613890747776,5.0774346706495574,-1.5614165288537918,3.873509964228409,20.893277679306394,25.90225534841538,18.112676889833043,11.111716788936032,0.2392343663433225,-11.576387155294992,-7.858080932733133,1.680011434181329,-2.9415443506536163,-12.470755677244899,-15.59162168365992,-18.32140354936509,-12.934975621218745,9.862816880629758,30.330756168088335,33.85145152300801,30.36758773607007,20.125735774554485,1.3186533026578546,-6.8820665551892315,0.5150863704458946,3.8144814789503068,1.9133278412394865,5.024443918174336,3.0281005031132473,-6.147215993986384,-6.517975254598137,-3.319546965992454,-7.094175849156947,-2.097003773482503,14.436012066072532,20.901624802966513,17.327384333557653,14.645734785431276,4.990428080502512,-7.64728919997301,-2.8108622542923687,13.290140569278037,21.020262623768417,24.453585314657605,25.776228085881822,13.112144886300785,-1.9163610729428315,0.10457554043634021,7.532761714014451,9.77256319126191,15.748547523187058,17.85745382901684,5.694778823611355,-3.499576715742563,-1.317791183703218,-1.984290797691895,-2.208851142490559,7.434144191014523,12.432559065121655,6.861774886348261,5.8800026618573895,8.107026098336028,5.702774332095993,9.951760427039002,19.711006288095927,16.429149431218367,4.919696773816143,-0.8945493713293474,-7.849267907516939,-15.384417995899371,-10.664021333874732,-3.6120938313762125,-8.78910529504651,-15.658927344960782,-18.32793689263871,-24.08898804482312,-21.778541671863618,-2.7863995288801187,11.2874762958679,8.562581599906215,2.7843546625497826,-4.027511504685076,-14.903573740461093,-14.918925350563864,-2.0211766632421435,5.329148185806535,7.987478713825557,15.784453895524875,17.280694681874202,8.90171350380132,6.226710024072062,6.835443232276331,0.8717822793243224,-0.806326965120902,3.5419211216797755,-0.9112569359803686,-7.7694585350958825,-4.544740316425897,-2.315125247330881,-4.719461972054821,-0.3953748994457533,1.9249389289183587,-6.198814799597403,-5.8932648934974035,7.816204781147441,15.551347297499374,16.616479116502738,17.916475757870224,8.987724816251813,-5.202455980070866,-4.985049352784759,0.6851779545819494,-3.816755759917103,-7.021536808197579,-4.853316548216371,-8.93138397992076,-10.661871991851044,-1.5335684074349016,1.247701879848508,-6.578563039079537,-9.631660167322925,-12.280001420828311,-21.18649615480455,-19.749356398057216,-6.293026790622555,0.7029820890561904,5.026569700194516,15.365250960021365,16.736154059018617,7.617396669897781,6.396154078022753,7.820454572447742,-0.2945465047309139,-5.563261323854679,-5.788927472096924,-15.392875331950743,-24.77309014814997,-20.654835982860995,-17.077130613409054,-18.509193647665054,-11.787886756839775,-4.602163396831209,-7.755468606381921,-7.767890759752662,-1.4746330895048267,-2.7673676384335733,-4.502306952827278,3.245371637326801,4.51468944593325,-4.718927690699459,-7.646408780716517,-8.202555006711195,-15.035640904873802,-14.026501351284946,-5.147910655047513,-6.448063235994742,-11.241152317079754,-6.758784475266752,-4.700838681977604,-7.81390683785701,-3.089451933607445,2.0044267080150275,-2.729766393542947,-4.286892418970495,-0.926989661038585,-6.095064780982465,-9.36265043734846,1.852877340622788,11.917108010149839,12.744971155298089,12.8929817481175,6.368882121026193,-7.67199074601924,-8.135002058954587,5.543271470652497,11.599099699732253,10.834073725883307,12.263202713258076,6.381334492872586,-4.245151881219009,-5.164668809404809,-7.102899046229998,-20.73985077052576,-28.662260424908553,-24.579208313263784,-20.37437672692384,-10.573129621201371,7.495618467189637,13.934716980959617,7.640081679295223,7.4672714519739305,8.823354770309836,1.1584129609620133,-4.422325899051669,-6.3006276182441665,-14.529216208833418,-17.282945218338952,-5.91712375328097,0.4341798767360694,-3.276146502223109,-2.0946402727824474,-1.3650151734959506,-8.43057820312197,-8.898255889191985,-3.302717526425888,-6.782043278105921,-10.423101725906156,-5.241206870731304,-6.248918014370627,-13.319520484345812,-10.246945778393767,-4.370799580117396,-4.927197880295467,1.458640747429484,13.523581543188861,14.082794877235703,9.956209459571024,12.240592954551158,10.883720274002505,7.684503796418612,14.895059054129055,19.100559434688904,8.092365684643905,-1.6402279578310623,-3.3477348489978036,-7.139995532583856,-6.1483824355999195,3.707386246085433,3.7456075601903507,-7.349290169392363,-11.456818342621787,-12.71566874941497,-18.327269639925294,-13.816500512727742,-1.4025853065935636,-0.4837783151089401,-4.393986532298843,-1.1941441541403308,-1.2377711209772686,-2.837350146446168,6.914555708438547,14.603445490939198,7.541214950700963,2.2254286572435076,4.537533445998216,2.9103874499022737,5.279264052788081,18.096877973742455,22.956210029947663,16.72099124836779,14.322706867276056,8.612729036290006,-7.587669266132803,-16.000670825819057,-12.92151084302673,-12.058651988370599,-5.436238805962045,12.05004659017709,19.657147870806018,14.52668181489813,13.336867431611129,11.051872677702892,2.617809340761901,4.847887836240317,15.998045789395887,17.511819870609084,16.26774502405965,20.777363954474602,16.03524097553243,3.260157697594217,0.7069350935308093,3.392776730688212,2.9208253475708386,8.809127814382789,15.042386724430013,6.537639916634397,-4.104978692980801,-3.6561667919409406,-2.82851498325713,-2.8740824374518024,3.925743392177503,6.299045994838254,-0.32160505568970743,0.8468297709387904,8.324454069058035,5.746061561491965,0.6272727763426862,2.9541783763471487,1.616904664107103,-1.5146446535865423,6.492869706412984,12.50781625760788,4.498580040176935,-2.104692713910533,-5.2005660661141775,-17.36622991901147,-26.17576234938568,-19.49031083963932,-11.030998230642385,-3.403741620487666,11.059706418358008,17.214500369540005,6.723493326637848,-1.1752535451965798,-2.3587863600780024,-7.760124149376764,-7.95248282793297,1.4404982855304698,2.638744833951505,-2.455047333277308,1.831163498405581,4.420407361888219,-3.3060559889664134,-4.916217212652925,-2.037265038235938,-9.522410900729218,-15.120203891595853,-9.779538558275416,-9.9908084573956,-14.562814450978635,-8.578744039512438,-3.501091205600417,-8.91031763354934,-9.314684448563778,-4.628999165208851,-8.23577269465963,-9.759436445532778,-0.669280880283158,4.365906053907479,5.394572383725319,14.508388409193763,19.67239673038803,11.265243629240537,4.100188955869802,-0.9403871752551598,-13.269823465715662,-18.23461441082381,-7.481020528828509,2.0008894431064492,8.049215239746102,18.51462001995027,20.003403181138843,7.538677155100038,-0.26146053770515243,-1.9427047732038911,-8.899209714698033,-11.746412291052643,-5.646173876110225,-5.417231781299019,-7.295230208615265,2.253439730772367,10.651602289455404,8.603191955490217,8.775136890273924,8.453927059453891,-2.600409017992156,-8.810145034790906,-0.42385653880432983,6.265669678318379,9.070146794897575,16.507632211241702,14.902818485905371,-0.8610122766896069,-9.85014519667681,-9.894875609599062,-14.586232342155464,-16.097577874081317,-9.803231754769385,-9.618032154763428-11.55680167801225,-3.769670331496739,0.5114811644777496,-6.330636962527432,-8.14734159803135,-3.9643211609852225,-4.972987204366577,-3.104954247799763,4.448436282296365,2.95569779413525,-2.464148956129499,2.872912437269247,7.884220536005149,4.136126547738208,4.542292932547092,7.042013405773283,0.5666216237273862,-4.019824595445074,-1.532848047031476,-5.770400712736193,-12.275653632097297,-7.528600587849985,-1.53752644763176,-0.9127069995660491,5.633315107031814,11.313897918356759,2.655227631257682,-5.582837837583926,-1.8949664239619302,1.625777531847998,5.420605802354489,16.25885998675071,17.666775195872216,2.991273599067438,-6.282675376022888,-5.640189806733664,-7.432534521728685,-4.629216943069951,4.453937852434368,1.8873642887464475,-7.914016871238449,-6.750642562035161,-2.5181660585239958,-3.6154772174668777,0.5054469916162452,4.876324874527384,-1.617079828957337,-4.610211694741874,2.967491216044506,6.013169322674455,6.521098885508275,13.075150371808885,12.783430174777756,3.459875543058332,1.1055888009740749,1.0426655109124647,-7.873136725995632,-13.70556329112264,-11.701557547630788,-14.198484242260502,-15.610453222506791,-7.607219789633862,-6.477640425810416,-15.342790446818801,-13.302078180892444,-1.6655891526882431,5.049775760173519,13.727622595417849,24.90545608772618,23.107848331099625,16.14488849079381,19.44935859598107,20.72419731964275,13.63371984674214,13.962457086623784,19.163007763617326,17.131004649760833,19.446980034580346,32.14645990469733,42.5771073948342,57.41522346393016,88.65826752230814,121.33847011200746,147.66321131015957,176.8938369947689,197.73150064916172,198.47327047015196,194.26049363258636,189.00658565014317,168.43694301346542,140.2341741856864,117.99582267301635,89.48840600004388,49.615726642399274,12.940856959249686,-24.982128736561812,-71.37319248771956,-102.43970179659695,-107.20751460308122,-110.85883007349973,-124.55613160191186,-141.8043414143262,-168.65884226976277,-198.51135531205927,-208.72269343334236,-205.20744364640888,-207.7851980192342,-209.50715411036032,-200.2341467257335,-186.41539107704207,-166.81962095771405,-140.4061638326061,-124.61116765632006,-123.37532469200264,-119.18693454172904,-112.04017547851834,-109.18065270502072,-97.9030745135782,-77.03014770265285,-64.04121759528306,-56.474240017090025,-47.2433392066816,-50.77573566152973,-66.93266127125261,-74.90958567328914,-75.53138302329555,-77.49118655248243,-69.37714802073464,-52.19269394571326,-45.60880341691771,-46.379035501793965,-39.47364610779211,-30.078280596971894,-19.6686417803189,1.0750897800812336,20.232013042737517,24.344941938290773,27.806732468358767,37.422692125368464,40.95123339375438,42.93195137749798,51.00068259346999,52.421308258824574,46.895520679199485,50.07436173510459,54.06029957939769,46.04543852713197,40.46045636249783,43.41032927948254,40.928889948262075,38.408558307996216,45.49604772552324,46.8143912936877,39.0869976289181,40.92578728749861,47.92983789876719,46.37294328888617,48.75449083055802,60.039943193063536,64.25502154781972,65.41809029999803,74.35829412297753,77.0103710471507,69.0493428680702,67.57626378636492,69.0752395872755,61.91247505608037,59.22673369276756,65.37839748979782,64.37939065073735,59.90386245217452,60.44439327395716,52.40024975356234,36.83409482330647,33.57958947678705,38.313162835048324,39.03652007151524,44.601469437985955,52.116503638976425,44.71527303865621,33.12792568564309,34.25970517290504,37.690290259326794,40.52033153983902,53.654483638438,63.197837285796986,53.97275778724233,41.69537861125025,34.984387524475956,23.68514635481329,16.41592079846639,24.084747595884515,30.960288490571447,29.795452628156962,32.032885320716815,30.75649701858337,17.136717414781895,8.58739795431634,11.592851315929583,10.100578086321143,7.2050639854339735,14.013997579919828,19.932037492657948,22.64980911432604,32.981607268788956,38.47928149849151,26.15933274269103,13.281906524669607,9.144434884557509,2.284341940301805,-2.1007366928034377,4.845797205648244,10.493061988603158,12.101135771355484,19.650215667976482,20.727232149610767,4.2770864631935765,-11.136383311002879,-15.47240739135177,-17.204244298748456,-10.599720673437734,5.65144056423368,10.265514838249132,0.737667380096529,-3.4886743150066453,-3.6527303440310854,-7.811644283343664,-6.597433224925139,-3.6606636043218517,-12.969783671178945,-20.489150446412076,-10.504784303220157,2.16603422064816,8.549399266165517,15.833086151458543,14.821328227985418,-0.20067197745623133,-10.434269686597444,-12.094948952177967,-19.03984646265817,-23.796317928297128,-18.517375171611913,-19.97564441969564,-30.329062505347267,-31.695239092137015,-27.32087222976569,-25.54884837634424,-15.53957942530463,-2.880074566404269,-7.796028197650287,-20.61292916394854,-23.991152908303185,-25.552978243988154,-25.931668646269653,-14.130992490422127,-1.7644445435346592,-2.3946822583854352,-5.327915886681058,-8.394187366567174,-21.348838985430454,-31.038325186216525,-24.999934739786962,-19.38067605552038,-21.552927481178386,-22.21388450473968,-28.374916636298927,-41.93305216740718,-42.17054933461378,-29.802811260251154,-25.273534580972274,-23.964462025322398,-18.03207188893733,-21.04801242292911,-30.517669512013182,-30.099582594132478,-27.338765048591803,-29.197817294512618,-21.768180777384806,-9.028166340566692,-10.319804643485844,-18.906407891631684,-21.317890325162846,-24.011544840901603,-23.993345252514594,-11.265410044542751,-2.7155127889165187,-12.199801458128166,-22.203288248169365,-24.326309891417132,-27.08241539250442,-23.35311662534831,-11.325230000788817,-10.017596649387288,-18.312716906124983,-17.752907376836234,-14.489551423928063,-18.5772113124499,-17.81951128924693,-12.260094587562506,-14.999153751734395,-15.737987936862433,-6.08820305633264,-3.2908503226827523,-8.86227985079537,-7.792084900567577,-8.902667242978781,-20.73764129646511,-26.68568599322867,-24.841611346496414,-28.832158818074394,-29.122131636707252,-17.671637305119177,-10.986564841597305,-10.691202588949006,-3.987882244724057,-0.16924994743017274,-6.203103572953132,-6.377625209655978,-1.5302963766635147,-7.254353974941131,-14.791662343352408,-12.488975343286755,-9.561538316719611,-4.9913019750962775,8.978457823546076,14.819842266411008,-0.08337987747500542,-16.939201145323466,-25.391388788443216,-31.556941530658335,-25.948212837449383,-5.4430989924291335,7.740810649890811,8.515212650598569,10.517499754759395,7.121189078508477,-5.80129657342761,-8.868942932001273,-0.2250790179484552,3.691790058877332,6.7331485632081165,13.728953294471456,11.252262149114515,2.667067596280407,4.074970559082796,6.584494546155321,0.03725232728571548,-2.6336076142050953,-0.8189919029891428,-6.419217978072655,-8.906961277808778,-0.6395366270784972,1.7341085702263586,-1.5416139101425248,4.7256989998470615,10.029452366197692,4.531288005675289,3.116240558608286,4.872203083608761,-4.130052216373635,-10.755242993014233,-3.4445067054489,1.0870840907681412,-0.3085573724305106,6.05032237315245,12.257608070591285,10.763482604508072,15.5163771211755,23.13373939383392,16.10103287217266,4.1110927785124805,0.17196357522132177,-5.2837016812840485,-9.780487869998224,-0.8944691293873719,8.128042472416682,5.526595338283528,5.155458975686466,7.519240509648137,0.9889751060755487,-1.377745723556168,8.379215965747127,11.244317333485576,6.4407170801888824,8.773703124688817,9.674722011536275,5.0898586126409375,11.5850912844821,23.369092585603514,21.95272695151775,16.440869756040872,15.532355263772349,8.211906966379093,1.5793387842925686,11.266214289832604,22.631276774965514,22.004849696591037,21.9176081631294,22.111105985929505,11.9941328363497535.711684253016886,11.703106340512127,11.593488641592188,4.609682954246505,6.397481288449984,9.0072115337761,5.427122703868328,10.00578430416564,19.0381174742395,16.127211366122875,10.96267190536349,13.365450057178693,11.735452260159473,8.51352732989171,15.545793848994888,20.41964539967464,14.251453226633458,11.85957423489936,13.170813808923155,6.982370374544123,5.066330090284945,14.063188057711674,18.23395855268797,18.38204597299724,24.516483916296735,22.973400069873346,8.46587651725454,1.4551710142982204,4.404140326788659,4.299113913335164,7.7916186067037305,16.345333985820695,12.577940283281109,1.7110373929857379,2.082204293825864,3.7152839659297836,-2.936963999789503,-4.076049344124581,-1.395111670150305,-6.456134520844731,-6.658421238070101,3.7469795540428414,7.540735749916547,6.563672451046235,14.096585076124676,18.242830235267704,10.753139787755853,6.416632914359507,4.932400652388647,-4.320714467113323,-9.197797819115426,-2.2323555572931375,0.628661448007473,-1.494428588121743,3.154549111162219,3.9288160192858346,-5.608659870216547,-7.613334317078647,-1.2315912236649307,-0.12529694561542004,2.9345616163225947,9.856514050201135,3.6914020050990715,-9.807500957715856,-11.458968480313835,-7.802620475132088,-6.125904995109709,3.0505379212295525,10.89271592737904,2.260738006619669,-7.601719917612598,-6.534747885521245,-7.017084040806498,-6.942411063977563,3.086298486044958,7.725685683259124,-0.40431008125184764,-4.348449599655167,-4.022898481976357,-10.05497045057739,-10.802070048987161,-1.8017070622071731,0.2030151070785713,-1.2129303812914325,7.949260346591265,14.884593904431792,9.36114183307257,3.688869273861136,-2.271444866825583,-15.498696674879083,-21.82963239479364,-15.603293446871286,-13.847837799212952,-16.40626301006085,-10.966553961639459,-6.4544460474996,-8.738450992660589,-6.363862871587408,-3.5788399456737396,-9.57153164741501,-10.579591540989192,-0.5004190641093329,5.884234235227451,8.914163924596519,16.246354455068392,15.11788448399998,2.6065620151733953,-2.0927521185934257,0.5717654456476278,-1.9960594930827475,-1.3916404000163884,3.5424147549498066,-3.512890904460414,-15.872762339210771,-16.51668167521423,-13.95356867083543,-15.189625120982903,-10.764065036182153,-7.608785562609995,-15.60089447067768,-17.480990176078574,-4.794363844143735,5.931871302659121,13.445573878924048,23.423770682706284,21.43100243541013,6.341863148499684,-2.142014740779169,-5.538675116836214,-12.880037748810057,-11.357528815217748,-0.2724428316985845,0.8424387005792595,-5.928823290841882,-8.37682487872701,-14.774255894179646,-25.211981794786503,-23.428684448696988,-14.910940837777307,-12.800398744483072,-6.8395201011674995,4.6614452894699685,4.404170798913834,-2.3464896029606175,0.7482492691733236,6.366918517982097,10.003736076229377,19.59032816313144,21.792595190129674,3.8479725623960395,-13.25406473561486,-15.464116614574474,-15.211363867656,-12.246778959833229,-1.4228330132827058,1.6667483194326054,-5.744238016963443,-6.082176841726572,-3.713663086822052,-10.444716574482102,-12.326110568561365,-3.8768863081464824,-1.6151300867427927,-3.8056504373068445,-0.09254869831584633,-0.5480645954593056,-6.117315976595465,-1.2411733493133013,7.081950709559239,5.217151204384097,5.4031872457159995,11.888934054097303,8.706093128986915,-0.38880213243336614,-3.323304819337176,-8.473603146317341,-14.146558773759462,-3.8995020170299575,12.39867705971783,15.790502153832922,13.9431105894163,11.941277923414226,0.2705535379344992,-10.062878891184766,-3.725259253695962,6.562502641969437,12.497882843046089,23.239113787984806,28.95795446651522,16.278085108420967,1.1372620592020257,-5.187110743165085,-11.986853660308363,-12.566718667260453,1.2998340442586684,9.937952564277772,4.848134937531518,2.192166502305333,0.6260929294814013,-7.369689246159287,-7.47324492465595,1.437549451442389,0.47186474232229614,-4.942220909031308,-0.43255010488469425,3.7434400774216483,4.412985082297559,13.079677153975656,18.749806539836136,8.401012261183386,-1.5278656484279072,-1.40387638430475,-2.735493051886233,-2.473782870087417,5.833377224808695,7.282920959271616,-0.7484802019813905,-0.6368698778075046,3.9042185628589987,0.017507459612219556,-2.685933410155087,-0.4655394374363617,-3.6877269408652515,-4.560698229737175,3.448134329105226,2.545275408667831,-9.600158931729647,-13.746596946922619,-10.605799180577048,-7.3217676108707055,5.064597664336206,19.30826961953871,15.55585847744709,3.5212599645944924,0.2530622662328559,-3.2130060734275796,-9.198217668863682,-5.044250905057006,0.31365039774556647,-5.085084797462897,-7.3627305482905605,-2.8861235649657138,-6.925271117225014,-12.994478454130086,-7.997243193821999,-3.303713225302551,-3.067159318750247,3.6677221101963373,6.895404427803139,-3.864408616978631,-10.489190134523206,-5.136268056181541,-1.84938181579393,2.020202727706649,11.880739125464103,12.011779560146863,2.4023100166790474,1.8666207644982407,4.43194413972526,-2.4618494123081027,-6.200315434179606,-2.2159573457848474,-2.8394591972342855,-2.6048149260869575,5.433938731081087,7.149442998698659,2.3231862630007734,7.151738451411688,13.625277946103186,7.868247708826439,1.593052732281908,0.5164970452685873,-4.647169717648462,-5.555542860363282,4.458796661644114,7.236638867401468,-0.22562339335382964,-0.09037861151568594,3.225887832948298,-0.7606661961100567,0.8165354105425291,9.884783451819047,10.941486849223681,9.888233839905253,15.22227830559239,11.3923315668792,-1.7057785094725473,-3.7525868355341583,1.1519960715268034,0.7416370361825609,3.114398156378938,4.80315239848869,-8.192852207195642,-21.507229907851528,-18.542529646049022,-12.268722607609387,-9.13628882057459,-0.6458860267294186,2.5788653131707004,-8.505377060830046,-16.153836018691315,-14.424190884927405,-16.14925787802475,-13.878891805137098,0.933550317088228,10.60887275142873,9.895114659562974,12.912208620583812,13.36004650046037,2.5623783621753953,-4.391235922424697,-4.677971968679112,-12.249330109006126,-18.281094654057114,-10.207498081929334,-1.6294775692945493,1.3857387184649261,7.616442319456597,6.933304480416158,-7.6495884174096584,-16.568877589621746,-13.659093272706034,-11.969592271021206,-7.382786151151091,4.6003995924107866,8.563809711485252,3.1188665697437052,1.762947114278827,-2.309435866512392,-15.46668407514824,-20.72094603422449,-14.511675148237206,-10.80434773257297,-5.060463735879388,7.460230610380673,10.436160617700676,2.967443848510932,1.5322436328808375,1.0567279597999422,-6.543188644501733,-8.04642175727092,-3.4717961089286318,-6.885773910385869,-9.017618641766918,0.652785722503328,7.938846172481064,9.273466006738037,15.960800815911526,18.822496549544187,9.158565236584414,3.3512873632922604,5.022539251845929,0.08921645382805332,-5.0031674465913065,-1.5040021194501603,-2.173804715157791,-6.161763927444206,2.331842766153228,14.387643378362661,15.975813194363697,15.2688314375986,10.819385423770317,-7.257847980438605,-20.987787539044096,-13.36219355088118,0.17391037927346442,9.53822437791695,19.121968928028263,16.309816938005095,-3.084425238226336,-14.021319155289586,-11.193340358119595,-13.149077835712859,-14.547284143325516,-5.952398813080819,-1.98347723973319,-3.139185813941755,4.050360982333679,7.244247415486965,-3.318898093659099,-8.690685194355503,-5.327396672718896,-7.930681071258089,-8.375156946021718,1.634255085334336,6.474671960053867,5.474268759528206,12.347949362581708,16.30999235699349,7.853916707975415,3.530209439389974,5.813622905443171,1.9839705664065619,1.9881143191748876,13.838087920137225,19.75477745492528,15.678371519583777,14.481921138666692,9.592969097496752,-4.121317082495942-9.25450500798652,-4.034672684975962,-3.264054606288777,-0.4985532397611283,10.171043290232946,11.35483581187874,1.3283063747290895,-2.9960132594351614,-4.002176499622246,-5.80614978074917,3.628795014978518,16.496157404131278,12.229892122654258,0.09213756676811302,-3.7687198988329813,-5.188427057111166,-3.8687831882676766,7.001176376401741,13.179026898661444,5.689050806327093,0.22259022822518537,-1.8408256470252806,-12.571275206278184,-20.17774342553128,-13.541913824947589,-5.989270387607131,-0.09713587368686127,10.432219976881486,10.8978253581061,-3.236823385299405,-9.15221683132665,-2.9013273299390576,0.34535277868834235,5.110290008038274,14.481769706541419,12.35681437118311,1.950183203878423,0.7043368372111731,0.9495157834640056,-5.193275081725752,-4.489116017994966,-0.02379808986444143,-5.873256350888129,-11.005599164526766,-6.780384592234277,-7.332381817473942,-12.914103783554422,-11.619622566581523,-10.58979490412317,-13.935475682470337,-7.339820371860253,5.4307733440414925,5.985714495179353,0.3616130381399938,-0.4056278195964379,-4.1502071672847665,-7.230574257647793,2.6072775174218124,12.918529071553342,12.01786571769312,10.770111887954123,7.438648618897361,-8.258302393153484,-21.11089464446893,-18.26312313372098,-11.28988106285874,-2.178887216456542,13.154541908051804,17.269718458759023,3.238745098052371,-7.351888656934911,-8.105603181993718,-9.091637238748273,-3.2969756674554827,9.498539133984968,8.972929206484306,-2.705185850883492,-6.435183064447488,-7.240808666443858,-10.96960428132184,-4.404296521512382,7.356034412356785,6.448844330070421,1.56665892468413,2.5926244745336637,-2.2293858844469634,-8.06784822509928,1.432212320291141,14.154057711535083,17.719947782763228,22.936070433127487,25.71585284233211,13.53278319395107,1.3885369822217803,0.8320332706895484,-1.578655012287199,-5.1501859459478165,1.1788739386035032,4.472597828878354,-4.004113660287466,-8.303044116675176,-6.579948548988915,-9.066579343848483,-5.6055734939367365,6.032237078603718,5.185282277137203,-5.6294502839666585,-5.552507036779971,1.7615780304834914,8.778471953304212,21.86499238232007,30.07179276845941,20.396731265889777,12.613054832236859,22.464096058157512,37.281234940961916,55.46186332249415,85.98934116019772,117.39864437545774,141.81720580510557,169.30981568400446,191.79969920619138,193.71511712301304,189.48969460909586,191.05322567026235,184.2158179955091,167.96180252141042,149.7582783215396,116.70807946242776,69.85960837453479,35.472652133942105,16.944248732821578,-0.6970065640720557,-15.041282065781795,-29.4342108281768,-61.80734420194177,-102.57566260450717,-127.05159496904547,-138.53763939210427,-145.0757813115019,-140.9538962583204,-138.60755981437873,-155.5720555408892,-176.8034597539362,-184.46513794458778,-184.9538658627775,-177.4311507598803,-157.71170839860346,-146.55720740420256,-153.95593475059155,-159.96794070875154,-160.95817007086902,-167.23561122113708,-167.4612877254698,-155.4394293588572,-145.77331330818987,-137.05061160237977,-120.8451396653571,-111.86916914517366,-114.88659352180099,-110.43219687225034,-99.28689306783636,-95.26471873844339,-88.29290155915233,-72.72222843718598,-62.675426007620985,-54.35150006004323,-38.21187459529399,-30.25824448581951,-35.23364216037568,-31.723163620406773,-19.460702345764695,-13.732513522305423,-7.797094103022166,0.9097216440425373,-2.6443652734327827,-10.94657498761682,-5.854772527804423,3.084087961977371,7.725918221682818,18.813936319853983,28.72826381585995,23.16571488684699,16.755398800790402,21.42174413593378,27.319795562115495,37.96287329460088,59.60598597885276,73.06857899683976,70.2099483956253,68.45061422045133,67.37255807070363,56.38039493244514,49.150597585622734,53.63479672184964,55.72306016831149,57.877871815881925,69.62339360862947,75.11102982196084,66.68412943624821,61.464336680705316,59.72240650855471,51.69381062184912,49.99741128937662,59.994603823841764,65.53108460138051,67.4626018964171,75.06736748688263,75.53131993311152,64.76941046140672,60.38342382200677,60.98537597837036,54.5423877727236,51.25359631123086,55.07021852609978,50.51708370263275,42.2081054910095,44.787063036138164,48.160945500190095,46.36162595855692,51.843766848427066,58.291142899934435,52.96779615398978,48.98205063676737,53.259179740314934,52.001085504514634,48.27117273924715,52.27484428657414,52.63030047075972,46.468899157143454,48.85506307092374,53.79359378167284,46.501520328792296,37.27669582741822,34.23459362631549,28.138432462594388,24.783383176165604,33.76132946117893,39.288548967807436,32.45144219594713,27.199031917379756,23.56255264291611,14.979920479218952,14.060400709697696,22.52625259014824,24.136473264096207,22.862232201911066,29.245668504064824,31.136328893959952,24.256675519357145,22.311617357411624,21.212543648559226,13.269139022144348,13.809059997158808,24.55602019499018,25.243118151608527,18.903540692808974,19.59756163330171,17.63612615693645,9.891070067787599,11.246777347141133,15.279658704256446,8.091046097452129,1.9472545068480944,3.299902445650659,-1.1988975479310753,-6.230782493471224,0.6876911664180358,5.981365954920825,0.7529741831270407,-3.286812856256881,-9.276946099302005,-23.73552637426928,-28.912754933991387,-18.57020559785517,-10.332000356343267,-4.831785457600759,3.779264480162749,0.7744981724174065,-14.435399358911177,-20.887046881984094,-20.013012488181626,-23.08176381829572,-19.11420256574172,-7.625083639130208,-7.6575296690776264,-14.627664877612618,-15.045159823722472,-19.26398787703388,-27.72247930896884,-23.226633935206486,-12.862919671077169,-12.657073124456335,-14.496455709156736,-14.245131429966841,-21.249964448502638,-26.74444648035299,-20.300430011025128,-15.568714576654624,-16.9734984879148,-10.469403749829695,-2.0782899794698224,-5.429723513505476,-10.935670859998925,-14.874192404326315,-26.59918886406913,-33.04201341649231,-22.209061413714828,-14.75703326756887,-21.613551672754383,-27.71812358068163,-33.26253071016771,-44.188230517379765,-44.814332861493725,-33.10485778071793,-29.489836963238076,-31.081712781582798,-24.196709383614515,-20.61121637759897,-26.20454055691624,-27.353143331742864,-28.249184967737108,-37.62967882947977,-40.043335535285365,-30.17616176348354,-24.91813496251307,-23.768960428366917,-18.304032792342447,-20.06106078645845,-29.366344310121427,-27.83945348265979,-19.63556940495829,-18.308956283657857,-15.508996362092255,-10.767523648328204,-18.290994767106188,-29.07610905024188,-29.143248089372484,-29.784383156258826,-33.341374604014796,-26.200281700844883,-17.274271177399815,-19.675454020096932,-21.938189801748283,-21.119470238138046,-28.182272453747803,-32.05493116344874,-21.729798902871686,-14.43671949625032,-16.65625531453801,-14.672368340598668,-13.042905496856035,-19.371671632406038,-19.11132253908187,-10.49717644027994,-10.491102218833522,-13.658417131743443,-7.781470454300326,-5.367108041479901,-10.032339390632945,-7.780440848148102,-6.448896267519436,-16.83059929161099,-22.050917017201357,-15.37907345514536,-11.116892227153372,-6.030617477900634,5.1780603167122194,5.131405718050937,-8.58836539703981,-17.4385185733036,-21.901201951235645,-26.633999261361907,-17.857667549590943,1.1205268046062242,8.545754821393889,7.399210795422224,8.829521559266354,3.8963606586471977,-3.1062976651655694,5.2493128635754776,17.482639558445367,17.732645823156247,16.89121432872272,16.175173137235767,4.157276335741727,-5.835108304903283,-0.8863468935036183,3.2591324857336827,1.2362173892477375,5.529500288062953,8.705379231858663,1.228084412769348,-3.3046693783911434,-2.643191700312702,-9.034373284743278,-12.134485497812507,-1.0703815855864347,8.584159903570681,12.10605548113426820.69439780983395,24.719868452703633,15.222304094345176,9.475808573062077,12.898404085852244,12.191949655393064,12.359060765326062,19.061743231442435,16.727351850476182,6.092752951201564,4.247489310060346,3.9422940617413196,-4.417361461456035,-5.967409284455927,1.905113598212568,5.177316067832436,9.076332632949942,18.023961836326695,14.988946387631968,1.3667602554021077,-1.7337021758554843,2.3580352019011634,3.0884774197533464,10.955958924562825,23.488240816242122,22.90014474152205,17.385992162726545,20.156195739359696,18.307835602787314,9.436300748201967,9.489932242215314,12.609266263306818,8.003205514036756,6.6948512550846715,7.383440979555362,-3.1596366484996574,-10.120146652569936,1.409877329794182,13.655878228331026,16.387855640740263,18.39716104120808,13.965735288517262,1.321810395111401,0.38663259945402717,11.265486804515511,14.02419287655232,13.137202414062997,18.719207770633332,17.807099913564336,8.677433138575095,6.309795035501897,6.068358294087003,0.9112820391756495,3.6659884980245048,12.335472226629214,10.202285032371048,5.657246861465591,10.059955185927516,9.59735281765712,2.4168005450748344,3.0236479963150398,4.821985426265775,1.5943373006968486,7.225878805920869,15.734467603589934,8.051680799923057,-4.51304381671315,-6.655995821447654,-7.3266247149845025,-6.593290177707888,3.360467769634056,6.792990402992109,-5.70705037141723,-14.603838170734914,-14.852377639141846,-19.822176878877148,-22.810301934739442,-16.32030326568288,-13.005293270662222,-10.478494308954453,4.4029194624536965,16.319296949288415,9.872234341367879,-0.046085550667766206,-6.930790779852883,-17.708616483199773,-18.862794210098375,-3.682777259494715,7.210678775153201,10.00647826921277,17.102758522916588,17.602412480428228,2.574537317183281,-9.717228194481645,-12.408892060495644,-14.451895081016321,-7.081363649032975,12.144320467582508,20.47092758902082,14.632870753071941,12.269816802048751,10.15820140067053,3.244658483793714,5.7012860344534335,14.309359538700441,12.084728703008839,8.476818102075185,13.393053973403617,12.172194774925769,6.670505293937031,12.78192474332721,18.706642632120236,13.025096369099355,10.450779394476726,11.734208353220366,5.265980246202927,3.8883422392088227,15.315002229391293,19.96320806668085,15.203560787915599,15.749637135599595,14.776928732209534,6.433390690329339,5.008149099285532,7.954606461686903,1.969485636011958,-1.1957956819779978,6.047093319478133,6.985134481063982,2.007216752026485,5.5106785879959865,8.424556775490256,2.6990062264128145,0.8387657460231561,-0.09125911348686583,-12.194764650494918,-20.850216332535666,-14.334464868829551,-8.23746682926769,-5.677699921732772,3.8172714206883427,8.649778559033173,-0.09569720997859399,-6.093856643497896,-5.291520118511118,-8.176491255732204,-6.597137316044041,3.8111329090774095,4.754227909393011,-4.3133011331321764,-5.988753674815603,-4.945360709469183,-8.639792821539634,-6.110854670600254,-1.7602525597931544,-9.562215173791676,-16.231715726907133,-9.49250582919366,-2.71731024166868,1.748042572434054,11.443535570536953,13.292887399807077,2.3798211764488313,-2.1362183564983988,0.7315610417462795,-2.772419993872257,-4.717894687307712,0.3284635430430707,-2.2989826387749943,-9.362935941596193,-5.541245472377813,-0.5198753273755119,-3.3250306465573667,-2.3819074561255382,-1.8932537446881388,-15.040676185581432,-27.49666865860333,-26.203859476074186,-22.97808164339817,-18.714398463974437,-5.760154775171667,1.0999182114130894,-6.231286504132284,-10.484323138797677,-9.364965424078608,-12.713289773732493,-9.57705502769133,3.433007670636324,7.525384416564149,4.662562191239692,10.11197479375896,13.861113791276766,7.709036950018465,6.046976248061298,8.510110383092956,2.9120065792614627,0.02209152565383643,7.211490422478887,7.763648072867122,0.7276560566694266,-0.06089404609995075,-2.5436662200445137,-12.473601488406812,-13.435309872185641,-5.654621011402052,-3.9145950573108044,-1.3022142436541293,6.6376302493142045,5.210822802640722,-1.161592984492696,1.4980806433560603,0.8704308549658706,-9.675186968936151,-12.458150161141017,-7.736622477774742,-9.041422527540474,-7.412667080096939,2.1281680336416153,4.196472835082649,1.5343066666920964,5.770940222404647,2.7833535648959242,-12.115268648860999,-15.448100461196233,-4.437630979853578,4.289338170691509,12.65739492978178,18.615449240257508,7.041119561113456,-9.289164229362179,-7.690986004897751,-0.5683128025228985,-2.5750779518416724,-3.5039513354558025,-5.534464562531694,-18.068211736195448,-24.29315665007423,-15.345740513747891,-9.128228767667846,-5.6403288347186225,6.170451058634587,12.599010965866716,7.047405569808445,6.231815256424923,8.28674150573769,1.0636550767876032,-2.629502637752528,4.4466624123156615,7.15217778986654,7.793593413338357,17.446610058126463,22.758242695921357,17.427185490359662,17.145752329893625,18.30105328595114,7.918004290435847,-1.076729344555697,-1.4413799384065253,-6.226214467927557,-9.455072579492978,0.14403526331324024,6.969682555026916,3.039808888240996,1.4435050750475225,-1.933377435804615,-14.687766960288922,-18.894187195990895,-9.769802805159607,-7.539411386473644,-10.17544508765558,-3.5660999348226547,2.6801659578006767,4.3402057547967114,13.014987303719561,18.487260252343425,7.6321311403795935,-0.44979130480156826,5.909670769713827,9.767728377283294,8.49913342772459,10.388138522708195,4.432614621156095,-9.99574575478889,-12.602578985251839,-5.413055005855025,-3.868887984665373,-0.5265472412662966,8.252548222357383,7.242154472079096,0.5242925674675312,2.732178102651529,4.399239908456245,-0.2210558703297525,1.5865483405610963,4.07018185592276,-4.014799086554792,-7.274409288517665,0.7041416545887236,2.5416171234298854,-0.6311594723274347,1.6309409100468062,-1.3824393751694093,-9.373073782176409,-3.99400242923083,6.484803840227264,4.015360287366695,-0.45732024538220173,0.019930964900950254,-6.778465216715477,-13.164166681367664,-5.206549516674595,3.5119847186587525,5.0707228324421845,11.52520398565286,15.647712937850562,4.597722083588524,-5.551938941532815,-4.592625713127452,-6.21438417809343,-8.52690786941668,-2.0088023111451845,0.359680878921916,-5.852860204841153,-5.407707841125326,-3.5548005991213074,-13.318746581246023,-21.26386937567348,-18.69405689860489,-17.769910627253932,-14.871105475651651,-0.7871090729499031,8.755909792566195,6.750605783472972,9.237472727845624,12.497944798096126,2.7512995488934147,-8.167621154171298,-12.481663771261235,-19.88892694746721,-20.504379096877024,-2.4152243316620767,13.831971791644952,13.618971428165246,8.908362350334826,0.6094426382000502,-15.259120571269554,-22.450065261541496,-15.78830821188718,-10.840956385749124,-5.148333261809881,10.311264690800169,19.73892403995459,14.387126732486497,8.559508382095872,3.2528690224883174,-5.844296536245984,-4.309897471170496,7.89289644130757,10.835881541856326,7.153279073445589,8.391210951444124,4.361279674132113,-5.876165675907901,-6.790825673175777,-5.014221780760563,-12.174760204742938,-14.165311669180864,-6.140416078275871,-3.0770504709763773,-1.014288188291118,8.487345778713792,10.627621725864913,2.298140899546064,0.5242122812964125,1.6573090104750599,-4.64341445863043,-5.349956837380443,2.940721179836043,5.56626724859027,8.2043623505937,19.52432724225978,22.982984035509297,13.73933937080173,6.9614715579752335,-1.8099971390871443,-19.374887442983855,-27.39527096264605,-21.1662979794188,-17.071086024301543,-10.759729390832632,4.83255661639372,11.954712211159974,6.872646376000763,6.563584368766646,7.103494896105147,-0.32765780143422063,-1.3663509133548293,7.019935620384308,8.943418264622432,8.50358377639281414.177291627341681,11.693814494670839,-0.1702844525704048,-3.467639991940615,-2.898956549898565,-9.588946553383792,-12.1285893481383,-9.5464052632876,-15.841329189269079,-21.80851544872438,-14.846558251845483,-8.096863190423235,-5.440958291424576,5.272178406297552,13.596933245652204,6.690627566720372,0.24083434401758352,1.618445691127858,-0.1886702074482709,1.9601241029850933,14.874400589012646,20.760185778436735,15.962641821097776,15.855204302665289,14.808837597501395,4.504558506975766,0.1319069535587216,4.334042408549478,1.8055749795620417,-1.8008444817984601,2.672738433207043,1.3947996907788165,-6.395570436035577,-3.4477240559559514,3.7068209267543013,2.514748953862978,3.985194741354523,8.17466590943981,0.7670333540393539,-6.495900087519934,1.250932053487304,10.217839233583017,13.75077685294546,20.65464033125659,21.00453448753183,7.258778748793076,-1.3081784964848282,0.2178172696913725,-4.403017093599972,-9.59240755832818,-5.23569447367082,-5.785956648062285,-14.022120222816566,-14.85156793745709,-14.586954872606452,-21.46267446479303,-19.509778357837327,-8.0098615858793,-5.7174098589904965,-6.766565464395429,1.233624635146466,6.334577827040356,6.1435365945878235,13.293196555402423,17.52566211501272,8.14699811817231,2.854320266632432,7.190222931962543,5.545114536774758,2.3773311682663696,6.814603634886668,6.13571399071404,0.6012358144738044,6.527387764552973,16.157465431609438,19.193505556113628,31.570779734779254,57.48317439424293,82.46112002614922,111.01606452905591,147.9755627226564,175.202384650562,188.96907692119623,201.88072536444628,203.71665367959127,183.6297985358537,158.24840729757312,134.78615244123807,102.99769450747866,71.29020971876795,49.62346679294862,24.450913815714273,-6.574408297236749,-29.185788812926116,-49.79767312173354,-77.21851923905733,-97.04901164857682,-107.10255473603505,-122.1229108336721,-136.31067475161737,-140.97581781497288,-148.23332060338632,-157.64276816492307,-155.78048008246486,-152.11490331960465,-155.6653954741066,-151.60040037424295,-140.50733402249875,-139.35644667981808,-140.97013462908734,-136.18067057301468,-138.00907334326803,-142.72766341663603,-132.05897497035056,-116.13708115573584,-108.36855797681488,-98.25753323299224,-90.2452549875688,-99.83307323568988,-110.65084417202024,-104.394119503946,-92.42186544431692,-78.93966532305109,-58.59313937989435,-47.82746040997644,-55.16444746191622,-58.99518937379612,-52.4883053757754,-48.06701272961163,-38.11051943290911,-17.020178439741578,-3.438661674889634,0.44395454026388276,8.336876876129528,11.076728201400073,1.8044117157741395,-1.7113910510398918,3.208650150437998,3.9832827596663702,9.457593578814038,25.817303492848655,33.446488822142925,28.02632460005525,26.066509486627545,25.751767424321546,23.159651893110638,31.159769758156656,43.09749077614151,40.07117057898086,33.52063771994442,38.410140161924346,44.13578477182865,48.78792592763031,61.0644043842064,68.5553401617853,62.10690724835223,56.71767172271668,54.396367183003385,44.413153528079555,38.86711771315245,47.51780187513243,54.155634586152814,55.254427974180544,62.10105162059094,65.2731844294967,56.99835013322213,52.229307221230194,52.26976811894019,45.61474486435705,42.78264066833209,52.150671023452816,57.90196336479403,58.305272942375005,66.6368882537448,73.30125856077613,68.10390422173444,64.2267969608625,63.13900373547548,54.54676685555394,48.765476381455194,52.20509882369563,49.20420433723917,40.546869881316454,41.38780799990354,44.566060245145934,42.48766733442156,46.63054247195144,53.0159649178078,47.72121285318551,41.177541585317016,41.5947907513231,36.476711219663684,29.652974626601214,34.81482783540727,40.22495553902844,36.34713560651962,35.860613970240735,36.728895132785354,27.58501522967442,21.386004541738558,26.007673838741628,24.796804357110794,17.40038089263992,17.812475501622007,18.053622494860136,11.939547997398048,14.146141197888301,21.181683406541616,15.565310339589058,6.914961885144422,6.38239817931244,0.9290611962405024,-7.1336115492164875,-0.7564617559830595,10.845290708883185,15.59416426015082,22.44834030220067,25.493789111562933,10.644677348223238,-5.642930999492753,-7.9787666596028135,-9.609611212453048,-13.278467999052124,-9.47188445209533,-9.008045409818159,-16.80760829700317,-15.660096117502608,-8.028904287136333,-10.165259786818023,-13.637537547816592,-11.429329051427484,-16.2769248984303,-23.057483859037823,-17.45750505427037,-11.150548608253173,-11.972574992671442,-6.743191831847749,0.2301362939617495,-5.566507892537054,-14.463548954174064,-17.84714968234411,-25.422663066601583,-30.91205915535643,-20.415962872145926,-8.565200723237758,-9.453503401425165,-12.48177675041267,-17.883170500890483,-32.741454247657515,-40.0772545936856,-30.49373845502617,-20.37849872684503,-11.677793974874032,2.680366113612595,7.202192013388147,-4.560719434731711,-14.05433162293088,-19.08775733370853,-27.333849328276823,-25.430062619029385,-11.316775349138366,-6.4584124396769464,-10.510460125497739,-9.151316155722874,-10.760369586658419,-19.524626859276825,-21.095728706488696,-20.031420775397898,-28.292756559900933,-32.01522672554,-24.47681420687522,-21.898789541299433,-21.978762440952398,-12.653566762096975,-7.118002020104904,-13.672867913451736,-17.714761582506725,-18.520930240275735,-22.957278207389564,-18.234672387280753,-3.9108737448299156,-2.494199869772765,-13.014248508166208,-17.605014057310363,-21.532002991964486,-30.25118041365336,-31.989692811431276,-30.834699091960694,-37.21642579809471,-37.66037879673179,-26.07727315623241,-19.40452017280118,-17.61077271552081,-8.806275216581733,-2.925866895835527,-6.941285621334978,-7.8092659121121075,-6.323970421675208,-11.238966485704855,-10.68929105397575,-0.3860154725113283,3.250136888350141,1.2265821298151234,4.535007952658329,3.1230548276891077,-7.38549981625664,-12.767736006403451,-15.377476332689664,-24.75403244510641,-29.011321657896744,-24.210771806885646,-25.45838220322396,-28.733715971329218,-21.24032213318258,-12.79867808755133,-8.6124900895313,1.771260821922795,9.969449989577669,3.159453040094678,-4.667105903446816,-4.51709853338648,-7.241257674001541,-7.627130799701711,4.0831707858318405,12.66959336595084,11.076312772644247,12.745106166817692,12.609833194400707,0.4574062112783066,-8.640330083645244,-8.840685227457502,-14.969927677749162,-21.531424890256645,-14.852130912640856,-6.273773249008713,-2.6723427981136196,5.628043528222435,9.31946532681006,-2.8390621993473832,-11.839497982080086,-6.304430561199364,-0.089610936232429,6.305924345918806,17.181734521432563,16.66908050546686,3.0795664785748125,-3.4857039769415272,-4.7195053083954015,-12.247041828181619,-14.424156275943101,-7.301689428398698,-6.1759926439879145,-6.501351418690877,2.0270407843307843,4.581151048542107,-3.6908439333329044,-6.395925492125324,-6.362893537122183,-12.085354035191381,-9.465603176625864,2.6286161654051696,5.170598143826351,1.9792432217741267,5.441616958044869,5.387014689565577,0.37800007932686785,4.923874853050778,10.519147990358949,3.6105711681296464,-0.9044136453706153,4.775919974427788,6.235228477333352,6.13831285122155,12.960022576959755,11.630762957850838,-0.8549349482871582,-3.766512646831302,2.3612183274304495,4.63878616735534,11.110864249243143,21.515180351135374,18.862517777248637,10.255866751664264,10.912928404233462,9.922735526518156,2.294248820889733,1.1891445933877884,1.409388164496587,-6.500436827780209,-7.7803468056738545,1.6906610421147454,4.688017579091275,3.086947740695263,6.16061374890039,3.3498834414898804,-4.867933519426947,-2.7043112847419315,2.9993433198318087,-0.5035633947176361,-2.27474326686143742.014120858317963,1.3009684515054891,2.568311129918121,14.004560202837748,19.8340822815856,15.33782089458414,13.84891492635212,9.771412786318777,-4.143868594433798,-11.436608745580592,-7.705708212569661,-6.853841877920729,-3.6647689854605,9.233629253553678,15.395482901389098,10.076462947608915,8.44967219860331,6.646195766727436,-3.4104565756559886,-6.282739327517671,1.4885833417572498,3.219055037097997,3.3921750942655766,12.727840496087275,18.038610857905866,15.35125556041622,17.717054218803675,17.882957501860616,6.395194828684166,-0.9667750710395437,0.8537785117683296,-1.4687031062677693,-1.5667888687772158,9.298562883531801,14.54253936045665,8.988036477470752,7.715092450513375,6.35480762463072,-2.824761511036583,-4.979175681584513,-0.21043455366981334,-6.353580256067799,-14.660416129626405,-8.743304393454288,1.9568047778245385,12.237786358917758,29.028728951339197,38.93566102702477,29.12525102880002,15.882120412930291,7.719071732318925,-5.514624522695327,-14.75115699690747,-8.421996057807803,-1.5883495838099613,-1.0588005323118208,4.157929035902232,7.097409414014463,-0.27691781428058215,-2.27257787674477,3.058818584554522,-1.327879355165933,-7.718003034339396,-1.3193525312090144,6.593472290663538,11.620227187809126,22.991602324699468,28.303954123930374,17.22772757549463,8.467630499448202,8.454691942171408,2.6782381607700563,-2.8543252552940133,2.6777965931561005,6.138507373162883,4.094502703732551,8.594380920388728,10.525964124249084,0.21547420834651287,-6.05292627253465,-3.445712059678092,-5.499158156250616,-5.4784520575738735,6.723735503902972,17.519457975230225,22.49784285375459,30.609251178771245,30.46386049398968,14.62296687823702,3.108004937070873,1.6383768728782346,-3.0984569041977648,-4.250323100388724,4.8146979993621155,6.522873033959693,-1.6613924157100524,-4.155206574627925,-7.438313738636776,-18.476754228618205,-19.249816251371,-8.038213406676277,-3.172638108509104,0.6112423875608362,12.283323138813408,16.070156238570473,9.47218203297803,8.427287099841983,7.188437201742627,-1.7840948615198178,-2.143250583223824,6.527065771019022,5.3992490379609634,0.364451646827163,2.7054919310224967,0.20314367411414946,-7.953545804444381,-7.68353303268862,-6.473495088189047,-12.41772800533884,-10.555046432112146,-0.8623467536297449,-1.576575033143866,-7.594374921934784,-7.072355393785791,-8.576107124716732,-11.038530461941308,-3.406383756941834,3.196047030760754,0.6828375086246616,5.005664971225267,15.74504629993518,14.414619918359655,5.446141620181936,-1.3701135895877394,-14.205400043015485,-25.941145008057365,-19.970466275215315,-10.72712314590996,-14.609125000746447,-19.004808686559414,-19.583610315316367,-25.875212923167062,-26.97092554707935,-14.167075864092855,-5.803356566195614,-7.632949157906914,-5.802445900023397,-6.223620242010744,-15.968411804360429,-18.321240110110754,-12.007007876266913,-13.687877479498118,-16.58512278466624,-11.786662819024707,-12.31017033496339,-14.606911111809072,-2.5004125934552293,9.909695255493732,7.145220019317581,3.5661066005812336,2.9699849344230307,-5.705984848078071,-10.049501511082788,-0.561821116987268,3.8498760026409857,-0.03565113507349915,3.682948565984085,7.035537716211192,-0.8065875428300946,-5.253192951451917,-2.9573944940242507,-6.8685676532626205,-9.190404157187237,-1.8391815183752382,0.09729725843223114,-4.7460319306338326,-3.2063813852798844,-4.099975312119586,-15.054304734586525,-19.5605856961276,-13.815816681123017,-9.687371123851875,-2.2400254042228114,9.85010924628003,8.743197518204846,-3.4998455279127683,-7.815291335574887,-8.622737563166044,-13.663812910220626,-10.397387670823566,-1.077395322239997,-1.783119705675709,-4.827034854779475,-2.1032938331482107,-5.935496642447746,-11.629299103489371,-3.1379997990126784,8.355040920046978,10.243711550243205,11.968633847951047,11.870454860646184,1.6691962473764868,-2.569570150118832,8.895190133134385,18.459588468609162,20.749307544441116,23.171903280401445,15.668508229397148,-2.059284317062641,-6.7782203489182695,2.207970239486804,6.157629405773476,7.714510465971449,10.185317850617418,2.193943559906069,-6.814172877429028,0.33236242398020455,10.012213280301056,9.846477259011273,13.227447238370793,19.911888149027003,17.186498614820856,14.327944860814029,16.266364680851805,7.961785653827434,-3.7812945921217858,-0.23298403747580343,7.020682735068071,5.769142524059005,7.8937301178462205,11.301593812896085,4.233887153150701,-0.44942645141155535,5.197112412357563,6.529344603770182,6.054487156126882,15.567930419116774,20.76679127455455,11.833706715326159,4.25497217709975,0.47141324393600853,-7.5540209549680535,-8.620191256475461,-0.6018574898527214,-2.2791499597513862,-10.547769186419666,-8.894884687598825,-5.332122570372517,-6.601188709652904,-0.9870680966627752,6.080075634994478,0.8447298356000701,-4.42795961427216,-0.183165906586074,0.5726201676548598,-0.8601245015819248,7.070958542269153,12.390405484256885,5.763979507513939,1.0585912698412603,-0.8208368402443458,-9.371123942835615,-12.099794480236614,-2.839760004273216,0.2830695879328697,-2.9491419949426625,1.7823370483068626,6.512981286937116,4.811433204762423,8.336728749389263,11.580012136806399,1.8094358593314595,-5.991781518660169,-0.890622938199638,2.556477665630174,3.937254234777833,12.677564162625576,14.775404450897055,4.073401814403088,-1.1563291936407314,-1.5208920916916175,-8.343082992094995,-8.282011707858203,3.6480452433367567,8.53537520769272,7.471969561329967,12.97482949336511,13.65793859011221,5.6086677278220245,6.562926500474134,12.005816014117507,5.1508778899430085,-2.9366522422232073,-1.6779820516458483,-1.3457020921794716,1.5412238000156095,14.215424663060926,17.941612691610263,5.020032075658991,-3.7144437078222374,-4.320648880649156,-8.306291539554747,-8.549690437281178,-1.9252702296112163,-1.530863062381494,-1.7101015895691007,9.186716617720707,15.326781770796044,5.687731327324482,-5.086402795493611,-12.405225476645692,-20.300718382177816,-17.417660567942686,-4.453880187410762,-2.5963120854329227,-11.570313831272184,-15.110501046070947,-15.164498386588269,-13.19170658573076,-1.33311907302966,7.4401848224740075,-2.539622272812193,-16.42058046558324,-20.857257876119103,-23.27316797478415,-20.663574449549998,-9.16259935581267,-6.37606786994292,-15.482848832044432,-16.728813950083136,-10.880611497543512,-10.267631377371844,-8.248536741339823,-4.45634324538888,-11.166668417811902,-18.054975243932766,-9.525679648253977,0.7388638982975424,1.5339566708980643,2.807195558194102,0.8139654351184977,-12.31109297743561,-18.651344796640668,-9.272784964940914,-1.827773521169063,0.9758486606462687,6.817110194025751,3.606861483725483,-10.254887302625846,-15.134786845280694,-12.866995408765707,-16.055253635071708,-14.4105450263183,-4.392556784393414,-1.5962350615206151,-3.9628940520748475,-1.600799260298563,-4.019464572369377,-11.638522799398077,-8.21704209638586,0.43067336885847274,-0.45608251554314805,-0.891003779855609,3.7138226651974766,-0.8715409324073371,-8.856569031279511,-6.867228530723854,-6.632092383141915,-11.911416954814024,-6.6337802546148374,3.223384492864903,2.530982640217081,1.18907292693435,2.955686628708142,-5.2979526550482845,-13.811778066588296,-6.066518170409433,5.498312554274227,10.621629966868223,16.970911893245766,18.715616947640804,9.220801834606096,4.276772058433424,7.989926046812812,4.414501116721368,-2.147659165124207,1.3585664927944476,5.209822432125237,4.833038576821664,10.275728520825934,12.13343635321411,0.5857490555958131,-5.7134539809236555,0.552392895359473,2.5455370931424084,1.8646069624853512,7.4905580429870655,6.943592485387977,-0.04063029856030331,4.79634476649610814.383386380397578,12.410587832284353,9.189671247499891,10.676605146182425,4.868540490532148,-2.2990911485572,1.104587152081546,3.5134027384133883,0.9619821087356117,7.535598329577313,15.513675214981648,9.571389055994743,1.919210675280188,1.5070171241587658,-0.6372131682015665,1.3783015031647499,13.510327045721112,17.584931860847526,9.33461987253796,7.8275677771446075,11.007863169029122,6.061597969074267,3.629573691482566,7.947742023174606,4.524576043251582,-0.827887112583007,4.029236189616446,5.558647929787375,-0.3839962139154882,3.1666184491609677,11.191613985514927,8.699823145890868,5.414951306457702,6.68281398802343,1.5532030123645026,-1.9688862021071454,7.366492092316754,14.199341090573835,11.193927485252335,10.69399675486175,6.899499056878108,-8.508057361078135,-17.28444281740014,-11.731061627396041,-7.3541698943151275,-3.543585516191014,5.289128052105767,4.493721546383835,-6.665915923601266,-9.627206580597399,-8.812613500881831,-15.972738923778964,-17.267106892423563,-6.61892713598738,1.0536910066885323,6.825564006771593,14.711505195478463,7.8025973553408186,-11.691294160353046,-17.01468254338157,-7.711392169474092,1.5089281823537972,14.277665014285548,23.75356502807614,11.79216094661762,-8.325298133126175,-14.93185597177765,-14.927946982825825,-11.682773444247584,3.4778847491167486,15.766250364327117,9.311066338966208,-1.2878793397288022,-7.495580483453183,-17.03223992748123,-18.97776587065723,-5.042141143152114,5.22934833053175,5.0385634513425686,7.180880261821839,5.793628791624943,-4.0015441405928875,-3.87021682644677,6.72682233126927,8.565771334306952,4.796823415500494,3.8916646509765926,-2.91830717400362,-9.556697751090832,0.0355625564033355,11.843745941603236,7.691523216852112,-1.689342518931659,-9.692888386022734,-20.384807408443002,-19.348411840050037,-0.9824476905476605,10.319873708825535,6.1659987523948665,2.0845822993763035,-1.907610041213573,-7.447255092274535,-1.028782727951846,9.837294239776082,4.919061115574502,-3.4829725678266232,2.7609922698583107,14.539510424829755,28.451032806775302,48.80274591755969,59.65529381163091,57.36893777398606,67.68555501075879,94.5539748163351,116.86329897896104,134.11284655075423,151.88651581160505,157.81757794764818,152.88575654185863,148.59031205397883,129.79039428670006,84.23603716590735,35.72592454681474,2.349105996385579,-21.662431977193265,-34.18823304186952,-37.68011906346939,-54.202145786885005,-83.20524262053308,-100.27310816915696,-105.62294248600338,-110.76125290639244,-110.34496257459001,-109.2969535763909,-118.37700616330883,-121.66448518064865,-107.7267576887372,-95.69385559495797,-94.44631274238793,-93.62861002374945,-96.68319086047254,-105.02842021654027,-101.4282105152773,-87.97533907212792,-84.96307559701683,-87.31826161964275,-82.59687286078237,-79.32331726197633,-75.93960524144221,-60.21239574873319,-45.0418985229192,-44.28180600807256,-45.14965892249657,-43.110394165170206,-47.610435865760884,-49.0081779467844,-38.707319457197315,-31.984698164552853,-31.539449058117633,-23.765832917172766,-16.21880467075004,-18.296359568694463,-16.919762575204977,-11.088736293429594,-13.18386529690546,-13.361945985505912,-1.57575004647626,8.05389222607751,12.20860650194539,21.993683413538506,27.81717840835757,20.48834703005169,16.442338244664114,20.346636451865,19.71521606304755,21.601781227127447,31.95116596417142,33.02942497491176,23.043826504214444,19.427771074466797,19.965212188706463,19.6780368381723,30.0931985129927,44.2215593819358,41.63622619460467,30.575967209773395,26.67495598133649,24.486035229641104,26.292465812683332,40.482034487178545,49.844575474236606,41.242784333179436,31.964448735583723,29.55508292784837,24.67323907998889,24.872396504856574,34.92139823436948,38.36526903395726,35.472174811808756,40.442309939296265,43.04029530670598,33.6571437901532,27.491532119842677,27.380109665423735,22.582438567361812,21.49187667320961,28.250789729855185,27.650038502917567,24.113230269831092,33.83885523022409,44.87104451525542,43.55610681358945,40.51050396493248,36.90001584321609,24.841594402611697,17.640998385663586,22.973853529377795,25.380886578620412,25.29679121130677,34.93302640057127,41.4731065388918,32.62036474020566,21.658667337271623,13.96219852699662,4.6390842513553725,5.226265111046192,17.25556974952097,19.283534077764287,11.708589816704386,13.26894486237567,18.575748526088283,18.47240997616116,22.069909094426066,24.291718428547505,13.567445820255747,5.604452776877687,9.883247702435062,9.158913824851911,3.827198103880623,8.575740486153565,13.240207596955223,7.9294690798237415,4.564520704218622,2.013283716527549,-9.269555411685348,-14.287622649111686,-4.028060224272916,2.686247129865676,2.659750470109427,9.647340542824582,15.3082225203188,10.87413006919789,8.344707134730482,5.956059163483715,-5.866768207494461,-11.088601155122934,-0.405190253746305,7.442687462972862,8.240150829490336,12.22760205404488,10.18443647478946,-2.0471910183584816,-7.350682629104244,-7.060339076669795,-15.09319618806265,-19.148699928610313,-9.734317747836531,-4.2522646724990425,-5.621045501604377,-2.146938685796937,-3.672416957892708,-15.37545241481167,-17.930073127106056,-10.252559655887428,-8.804687892172574,-7.677557944691201,-1.0894890261635761,-3.9849689750186865,-13.942322541150515,-14.245201934674554,-11.134387758703213,-11.942508028136091,-6.741821928664156,-1.419009855162614,-9.833589037184888,-19.88764367162754,-20.51353061025673,-21.62281210322876,-20.90735604422096,-9.615551741278665,-1.947723888438376,-6.426560032974294,-9.333659192310824,-11.5015778742495,-22.05042068401633,-26.836734068077405,-18.754285563511836,-14.940584260523904,-15.685506830317141,-9.420583747532918,-7.5618729066180075,-16.27304465669017,-18.797915514093084,-14.979234751421114,-16.579253791126074,-15.00692838555771,-7.44914668889866,-9.024313535801431,-14.220020347606585,-8.11017445092397,-3.336536030094546,-10.097708957898707,-14.78801294007758,-16.664303515239094,-22.806476615806762,-19.94814248751342,-7.312990567558704,-7.277742129259487,-17.572706586391377,-19.200869739255236,-18.220120666285336,-20.950825992711763,-15.20151610559433,-7.1641084970228075,-11.89173925012086,-16.92477910313794,-13.419478571760582,-15.266593260518848,-19.249349978983492,-11.678707595451696,-3.455450025563689,-2.748935008127903,2.2830778269017293,6.965003394649738,-1.0270565172689494,-8.09535458346109,-5.629509888592404,-7.088429765975932,-9.37528574779515,-1.708340483938224,2.1214465327919845,-5.43014017299876,-10.384734405245137,-14.713449926746035,-25.946187571200173,-27.19603346131026,-12.212735037997499,-0.3862176198949123,5.380761471829677,12.72915870301491,10.906977592322319,-0.06758229652552572,-1.167547548228433,4.3229722745369905,2.7549314349216774,4.140378876004829,12.573593698918945,12.514541565373737,6.602161585622948,6.2505624576469,2.007824063469716,-6.6850597835268655,-2.741565947066213,6.954629959295238,4.800520475736063,-0.4690540233156364,-1.3847196981802146,-6.628784862358375,-8.762696112099043,1.711827387796105,7.783274599388383,1.175512492198231,-1.5245804253116995,0.3018005392447003,-3.385794596247628,-2.6088363556132754,4.467553028093933,2.405500442935101,-1.5556949438114007,6.88893052288206,14.081087002291802,11.95209950386943,13.720487177426373,14.675713206427414,4.023040674679671,-2.2598239434060035,2.591742330660372,1.1252536635481987,-3.5663989440706696,1.3776073763904617,3.106473704160517,-3.726161909185772,-2.8353061495373377,1.4732615163550926,-5.107537718868991,-11.160504854028767,-9.40366724678236,-12.097178113061256,-13.74809827719607,-3.13367606431370675.307582166380093,3.8967088210519734,5.033962411762584,4.906033905663028,-4.315768996631322,-7.384240377982591,0.6968532583186686,3.4621651121274306,1.5660537534497472,4.048177680587172,1.44708451094198,-6.342672939940568,-3.926399432320055,2.423181171055429,-0.679222795417171,-2.557978515522012,2.030455244633349,0.9696525366759581,-0.34847539692158747,7.6231536522648655,9.801445380344324,0.43376213211246917,-3.3942703253259876,-1.4367282898320919,-3.1093561951495263,0.657870034065156,8.766448024537805,3.1748325480337014,-8.955707727316918,-8.556544201630395,-2.566932721688992,2.083741973006601,13.1482092194097,20.950102168772577,13.217923209763129,4.8224903237244465,4.440806732689085,1.5462874154193225,2.017992615813858,13.431616603064297,18.22501115177983,11.23281849603844,9.836883607656906,11.286329447486636,3.9297682652232684,-2.6370044471599368,-6.352806380829314,-18.211359935309098,-25.078300400701544,-11.662547256007517,4.036876833779268,8.418204318681353,10.696138728347124,7.0417557128211214,-7.3133983695840055,-12.864941926973959,-3.273886352009082,4.2205633250154415,10.919004891606804,24.725916158331266,30.08987767274984,22.554273830305462,19.70880517069189,19.693228574823593,13.31904999295784,13.044241485545946,19.015192301036244,13.095381865225544,2.3058606994926087,1.9974178290947775,2.3338110712264033,-0.13496712776974262,5.388735365918089,8.66236044474355,-0.8346688059529503,-5.622008091156469,1.1817362684960373,4.786128547964512,7.758002084999971,16.26378595322041,14.754390237259312,2.3332584500935813,-1.6545887173139562,-0.8299114811756566,-5.766199940453076,-3.403831121555401,7.393772645204862,8.95780208879857,6.93332987176149,12.641214647297415,13.462062799130502,7.4757699658106755,9.502607154987702,12.97198822938547,7.3810968803750185,5.6488887854313035,10.06399075442951,5.323953780852414,-2.634009164990591,-1.388934139617976,-1.0904873966697362,-4.377419774860226,0.4763655180871744,4.120790197948404,-4.453481719651389,-9.158837686871761,-4.744242619987067,-5.865176362384159,-6.642698685203691,1.6241630766606034,3.463575687343829,-2.741690744991219,-0.9907874191326602,2.212633046591643,-1.3622554410577314,2.4455065491415864,12.429964466084991,11.53404935822006,7.231727087715764,10.581039960187177,9.105845321879883,1.796799364051321,2.2700964821046843,1.936022195392116,-7.96748146213862,-11.861451080416451,-8.044402578777468,-11.284077853170338,-14.378347425363788,-9.004708766797085,-9.314392950330324,-15.361055736333851,-12.266408535710664,-8.365975317854597,-13.964854741007063,-15.885644511440493,-11.758675949969756,-12.724220660730131,-9.209627377334,5.79193395427941,13.054501591840404,8.441516596845808,7.807180862129648,5.240093485951595,-6.728329045567456,-10.594225051673885,-3.8304817161770237,-2.451378779692265,-0.6641997502480377,7.672435608229627,5.398568904001538,-7.117035204595931,-8.930686797010722,-2.8438113749997687,-0.18468201956556451,7.437546120495619,16.755376838665608,11.038538356508198,-0.47645865806600574,-3.430169781093379,-7.459855991184988,-12.756179934565715,-6.840960221113302,-0.12858524062480692,-4.128832590894361,-6.564914660786214,-6.160931367157494,-14.012568928886653,-18.159292878973066,-8.295430553976598,-0.10492101402090226,2.817339093181464,9.918462829641634,9.376673382208015,-4.313414848089928,-9.93503999133044,-3.9679035767151976,-1.5934952989034163,1.5501844788402321,7.385248380865213,-1.0509879579034718,-18.850566544944815,-24.53226370802021,-23.66038600502509,-26.49217715498155,-20.725044312490997,-8.224956113589533,-6.420769312983976,-8.431234643656643,-5.727001526291361,-10.789463369249223,-17.251941001693595,-5.563025530896402,11.562993956309535,15.20349462548483,12.285878535189802,5.115732570665255,-8.843634338612246,-11.137570552814626,4.232862551270528,12.46132922662802,5.973301638218945,-1.3007398657890237,-10.895016497364166,-21.56331971193581,-16.871108832600186,-3.140785098009913,0.3515729017453888,1.0295041680022448,7.520871100974711,7.538351984539396,3.362389499192748,8.737344148196373,12.841525604139203,5.877596597643381,2.8991514699942593,5.665344305716832,1.8968351303948234,1.7835819861438273,12.34253684016947,14.413127393869,5.064957770334337,0.19262877713847687,-3.7536599326841458,-9.253588211619565,-1.8278404537630792,11.345429235387906,11.146478603580581,7.365874902671175,11.116948753977569,11.279642191830217,9.169406112939463,14.145781844644295,13.66251194164396,3.214818325755456,1.1267097298122066,4.900315346647058,-1.7961131367497187,-8.111937894582546,-3.275778344900694,0.4785839223980532,3.923059378123239,15.381886031200764,18.70200053509431,6.771393142464886,1.225376895033781,5.343409670636195,3.9458721585487533,3.4708535800807265,9.638198146815915,8.52429781080171,2.964550082411842,6.04849754956124,6.473240095080707,-3.0683108548802798,-6.062057478025656,-1.3234204876279425,-2.5780073052380814,-3.944815845685146,0.4790720084471678,-0.4879066351363608,-3.3154703163251957,3.5892383405938055,7.349074126112406,-1.156682371118538,-6.461774299488635,-6.648255475301003,-12.556351353393982,-15.069889099769464,-8.861269747293,-7.90131669917511,-8.983976356297152,0.3813885952136906,7.232781322078318,2.0332600321669596,-0.35864857095142555,1.4226201874728428,-3.2491852330113655,-4.682517378061206,1.8760287060390928,1.4661665698269284,-1.7254011219652423,6.229477036632813,12.875962460310673,8.634144742227376,5.357779343988639,0.7796273631953101,-12.956257435235077,-19.9179711682247,-13.795756539621632,-11.787624742534932,-12.159053516647424,-3.480989344375567,1.7984146719680287,-1.827970812738607,0.6604914154554333,5.036891731709868,-1.4931187050455366,-6.387577735900059,-2.5707100244778216,-4.529229684501849,-8.903103021465947,-2.264234084577235,3.7136734204415394,0.40252134255341065,0.8482805111850878,1.6453284823293395,-9.321288804018092,-16.91040165895337,-10.45105623733398,-4.979556050994978,-2.099136970418761,6.235440424693557,7.451494203695827,-2.303135090068635,-4.27593106288259,0.6002664415035937,-2.590695276223925,-5.827253918366957,-2.1221471947688784,-3.007099626774386,-5.141229432510022,2.0961558754171254,6.294935477504414,1.2440373231693507,2.4761490889858244,7.918099696075542,4.085356548252481,-0.14027485585157295,1.1998329912216186,-3.1268063670898125,-7.429254981208914,-0.14603188366791775,5.006410021658457,-0.3435397346081843,-3.103142876933316,-5.413813708259198,-15.584410399767053,-18.08964778633223,-7.178344091372519,-1.4535620865671957,-1.610189487475515,1.8229223700701012,-2.2614468130990284,-13.685323084482683,-11.867589575514227,-0.5293734212129215,4.423484729360852,10.443575925520358,18.343194318422583,12.221979056802464,0.4784507525033934,1.0695441208672294,4.871222766787417,4.91718512918356,10.801630534175558,13.879906634363154,1.7541468050214344,-9.444106047596362,-8.965047307816182,-8.533555247795906,-5.149232221528456,8.880258454202682,16.539889162301666,10.33796332578213,7.254818988554745,7.8417896241201515,2.637749198890206,2.7491573502751634,10.206913979795509,6.298438728807939,-6.1029544552792245,-10.792374168852888,-12.991398604051101,-14.268315996950815,-2.118721369961731,12.912410416813048,11.58833446445471,2.9267760317506757,-2.53479204684237,-9.10291089354335,-7.285097806765225,10.256028617356398,22.802402970118802,19.709317881302127,15.240930778748208,9.107604534393957,-4.448981038362631,-9.63285535878186,-3.3983082038645627,-3.0626663156663008,-4.095070887477361,3.6209467637340476,5.785400253596352,-0.9159863260800951,-0.32895191384584455,2.9029017705243696,-2.8005391890811033,-5.528439965717929,-1.3491206974307217-3.700587821870199,-5.162296020800366,6.494802734538032,16.38433292664086,15.632892285861956,15.134135004104966,11.813723350300696,1.0924192549772211,-0.869670097771066,8.011986042870225,9.982252922056627,8.12283244076463,13.541958109603323,16.211061239305874,13.691109097538638,17.663785035152618,18.507251700196672,4.46501424942203,-7.8387688433408265,-9.706771344863299,-12.637810212220606,-9.969584423262164,5.863610341006943,13.63110355458897,5.284551513924446,-1.001116565018386,-5.797233371629406,-15.700046765306704,-14.559853715839758,-1.2424886483812339,4.070364657243088,5.377545301113543,13.756143704434521,14.760953643475535,5.7443626527666165,4.911127048734409,6.995353042405743,-1.4790416351319218,-8.545463288350632,-8.936099440724261,-13.781243945952264,-14.673294114011522,-2.944428574644275,2.4253281343084283,-4.573736775989991,-5.903907301411769,-3.39346005765161,-7.1292577481790325,-6.5913714096178975,-2.02255093673051,-6.823371057180941,-9.725909686275454,0.10498090850066788,4.1228204064860146,-3.3015117557613163,-5.163390935250296,-4.004848369759632,-8.511231031223957,-7.579610268870363,-2.112928379087011,-6.737526285784087,-12.344333168584628,-6.812650755785116,-3.492475726017667,-7.184444562884372,-5.389521546888021,-2.932751319306344,-8.018288461830263,-8.651584919598251,-3.598455701774075,-6.946582270624011,-11.978601778605515,-8.346456149587997,-8.620415674982347,-14.657011581507117,-12.286474253324636,-8.736031435772517,-14.473090670880113,-16.375754804816196,-12.26102362778802,-16.198990101478906,-19.77482208102965,-11.70747745416152,-6.4070351347216405,-6.926766001604701,0.22386673860807438,5.073753535046479,-3.2395670968525323,-6.3912621928516105,2.1176353112544883,6.272566440884788,8.956721359943248,17.123496757723835,16.065120559153026,7.188473190407352,12.607484843113538,29.085515588674788,42.26862423219326,61.865268816484985,93.25347015560304,125.62029725822552,162.86431548425813,205.47303169942228,227.1117935462024,216.14489982791375,189.49613212333733,156.10976260913938,121.61594156385215,99.6791526475136,83.7002836149805,54.62899479273328,19.120831589515774,-7.039784241043851,-28.720200264872595,-49.66042185153057,-64.29258871030666,-81.90444114044932,-108.14243902940296,-126.25638859678416,-133.9535198714975,-145.2561979636999,-151.84767089280342,-143.20005726385943,-133.49534243812795,-130.01247973444745,-128.52673328818844,-138.28769277317298,-155.73917610954675,-153.6338468623389,-130.79968096063058,-112.7524930946342,-105.26020918615717,-104.63161918434768,-115.95885371927116,-124.59886886095225,-109.7739797074481,-86.88058644733762,-75.57283997405115,-66.56409362974662,-57.80985119095783,-58.94835209610487,-59.37222588649967,-51.546175074245504,-49.33123563355441,-49.794100058963764,-36.984503271280474,-21.123358183450428,-14.831417552119682,-8.389773360068546,-3.0671451647948085,-9.560226360899737,-14.301574932725018,-5.201865229016043,3.7350650601793234,9.045479939925265,20.166684006602395,24.214455202032227,12.678254907444582,7.61825774603877,16.156401080907838,21.110617439423557,23.860177181513684,29.77910237214148,26.19878423462411,18.935853981227833,27.738202439480713,42.181556215703665,45.565768264938015,46.34292409593747,47.10211444179924,40.76143661530674,39.809063905974305,51.264415035772174,56.374994029527244,51.450091420701646,50.59108597854766,49.220997169979995,44.24804185182489,50.443737824104375,61.49186803277386,56.361826809567816,42.31759450512715,33.505512292755895,25.052688759824335,23.226943507488723,40.14414721931987,57.72549587783834,57.918518612720035,53.00718158326589,49.113903956637394,40.237978918551306,38.10053481419886,48.4362489629557,53.65818067752786,51.81878005700277,54.88539430625306,53.29594695056898,40.06481268009813,31.460289192001785,29.87376777114801,24.959903045493235,26.44765732019577,37.939044507088944,40.56345397008231,35.68402423647754,39.83487398400872,43.256702465651415,35.82913093616844,31.383085852385342,30.601955126381732,23.2943510306105,21.616297701072696,31.060502625486166,31.71250993280305,21.26921175645976,15.035648433782434,9.176124513835862,0.44470408829369124,2.229249443549138,9.98557147297442,8.748122061599382,8.374939308616721,16.689479723899154,19.372758788294327,16.171790294216144,17.88305741090694,15.778314165244506,7.021785393541757,8.135927376639428,16.374602864365052,16.499309139434455,16.120624106906696,19.491585809266866,10.736188074751745,-5.729946864330836,-11.673041859286034,-13.109760285963784,-14.369632865799318,-3.0933535815123987,10.099553256202796,5.598511452509402,-3.264958284668038,-2.4131053313299717,-2.7292845406007333,-3.221609128942939,5.145459691763168,7.71968160437185,-2.575418773888216,-6.873043882436839,-4.115040906106529,-9.381023737989409,-15.440838541130583,-14.15830585301253,-16.02945492290241,-17.79802103835023,-8.606637728274919,-1.9450181402798687,-7.618292987845359,-11.214615801767986,-10.472291468541707,-15.038127060612833,-16.87607016208493,-13.230418268105748,-18.212253235800432,-25.936063210092478,-21.22681708722378,-15.189973626042653,-17.557903907109036,-17.812585990426445,-19.209040952481818,-30.465391261897025,-35.1447684563949,-25.635269378359798,-20.24151416932632,-19.004505027459377,-10.394199848250633,-7.519287318036293,-16.6400462216604,-19.99890892518366,-18.257283404506136,-23.10192339631795,-22.702575013779768,-12.897949179265783,-12.300576479986512,-18.234589405814123,-13.83575719108129,-8.019738245374738,-9.831870081380053,-8.170495471706673,-6.776835554598691,-16.723427210040022,-24.043544508151907,-20.138544453200222,-19.434120997826597,-20.470254234812177,-11.574725064035615,-4.475593476922901,-7.539206937978769,-8.54384803556168,-9.409689031433478,-18.759451925998736,-23.630486867337552,-20.056769682996624,-24.1385879405721,-30.662369311028844,-24.36288489797698,-16.450619636380956,-16.143193635485204,-13.771077001716984,-15.083872995806125,-28.84025238071206,-35.62909840734304,-24.662494486901316,-13.709404865058273,-7.2861160367504425,1.5005237616134424,1.0971720423817821,-10.890674377149724,-15.353350797310735,-13.031102843535617,-16.813029568571437,-16.823360199174147,-8.261882269184374,-6.117115619369291,-8.178395861552813,-4.476092958056261,-6.142767410822205,-15.314721255117778,-15.302828023716458,-10.038385760825847,-12.385983000082478,-11.47125710281524,-3.1358304481935413,-2.952250603761668,-6.75333517427689,-1.6074758727348386,1.4405441252886113,-2.1501062233444808,2.10671331271034,8.47253200163439,3.0815599193444383,-2.0075841374248906,0.556632675236947,-1.5756864136762716,-3.8326013750755594,3.9633078329102474,7.125536571159536,-1.2716382953580658,-5.16504017698574,-4.610867546623321,-9.696243397523126,-10.936981025665157,-6.2059804227549105,-9.962424811429889,-14.545108059498904,-4.501598527949717,7.104905110704409,9.6713476871431,12.904138863492255,12.92833049052715,3.8727470844391965,3.3425625358012416,15.59870505109025,20.479529020257228,17.543466068111414,18.366735599925022,14.513872250200077,5.694901386317951,8.496507817777667,15.197285702607518,8.824454381290636,0.11872574286933535,-3.9098620900424086,-14.50416421618392,-22.67119484176992,-13.010261908208982,1.312325726294631,10.246259286916217,22.094650463246616,27.555720153172324,15.103352078401109,2.3550977847089447,0.23693864856637703,-1.4727849170129854,2.48555557042069,19.042431647451192,29.354641720074028,24.213785320778843,16.482496389721547,5.0965743345239485,-12.329818657371936,-16.77248000926111,-5.527574445996723,0.033148723658971146,-1.648936039041763,-0.3340434467315594,-1.970644288736037,-3.9468721099535764,7.13166676214939,19.09502757724063214.102128124568964,3.846744633967986,-0.9307901901927745,-7.416398011473199,-10.1362950537243,-2.4213434733105688,0.3679369859176017,-4.976753654360744,-1.9312571424785632,4.290031451169126,0.39624119943159286,-2.0949583847576707,1.566132780372063,-1.896509836514571,-5.621262173458942,1.7558682131521146,5.978917549857833,2.3326628730292343,4.5210788987034825,5.992381191605894,-2.155957861082512,-2.9510840767296274,8.385196222115486,13.175235233240471,11.237980355730826,12.178313876883195,7.0095201106363385,-3.210147170866464,-2.4209494275226815,1.6218463342417297,-3.6239431424313144,-3.413333712536265,7.878236517850436,13.114076395916975,11.881538036328005,12.600522986357946,6.95615873738042,-1.7008405313830872,4.004646871468497,14.426021187823604,13.008077963984292,12.495671208076642,19.431879488446377,20.228851377461414,19.064119343542465,22.95422034349682,17.178268226822205,4.267166721309444,5.6861296165296356,12.950505576828387,8.144518806581361,2.2077340912717287,1.2484403236230743,-3.615684960678597,-1.6544520240198675,14.95113259665097,24.36486755988652,17.68230494345042,10.532792300297482,1.7304904539544745,-13.877243406287542,-18.913107179162594,-9.764388737103115,-4.150775248057517,-0.6215215728665323,7.310063209039635,6.705385800507214,-0.7947389044694977,3.4684675100259734,13.372368055497262,13.943273626630855,12.254270780478048,9.53828391294921,-2.596708226993885,-10.320417986180653,-1.829884081049952,7.088879009526691,8.907541949737528,11.867585351032295,9.866362413008865,-0.7770154895218462,-4.068099794538685,1.0003991066701952,-1.2880857476044716,-5.79448351292958,-2.063632856272424,0.44039486253487947,1.563023127244643,11.601364975674828,17.03068206758109,4.767088620837949,-9.104470141749655,-14.913260040098756,-18.892595218420603,-12.458673098822016,8.08462307069761,20.385158675365414,16.34338824885573,10.758424380495581,3.099163287331412,-9.546753449890963,-11.550490080259024,-3.604824193683957,-3.4646241991258306,-5.084951622975257,2.4692862070295147,6.231097322564111,2.7144975745301387,4.1994796462004444,3.2241799754276554,-7.813288350836055,-11.476985122199345,-4.223814001106186,-2.8597010415474506,-4.105226684532958,-1.184473826645808,-6.774160379576264,-16.88428340173879,-13.041281996673309,-4.019204104179412,-4.266072838450263,-6.952437422942844,-14.429397779910445,-33.750675828475465,-43.73366185729815,-28.82353827719237,-7.435321349477066,9.095089457213211,22.99697643710648,20.105335272752768,-1.5604997045136981,-13.716330382929055,-8.251431895924469,-2.1980663810126124,5.660795181750971,16.38144255048192,10.735217810191074,-8.011689526594044,-14.978516294849765,-11.667022708332365,-9.771207896511996,-3.1030117207461334,2.04198194254301,-9.289973839411118,-20.910332093607018,-14.888584544214712,-5.723555181913294,-2.5132540502315903,1.6031216993173132,-0.9915600254812807,-11.927291489071495,-11.082825785574848,1.1402996270241026,4.835399203704675,4.4795556493890825,9.433002783868949,7.749322349343829,1.6813667983936937,7.2063849589537075,14.399519999894462,11.049642060992843,8.707756767785458,7.307555392662171,-3.85406531943994,-10.915896351376514,-3.2547116438017385,1.786965765881307,-0.6984666991201054,1.1582788170937757,0.28562706292681583,-9.11129597659265,-11.903979973606374,-8.380317304018185,-11.180727898121992,-9.335030096788966,4.144572576952012,10.144268453880965,5.858392328580017,5.67224591186649,3.664504817476478,-3.546983665965462,-0.2564313785463592,8.061845059768096,2.978226164912725,-4.653485960474679,-1.822627179704035,-0.1153061977215753,0.1714784786578779,8.934260391097956,11.49570564059853,-1.905739717894174,-11.697445160283719,-12.414198737854248,-16.59466797599706,-17.009488674093426,-8.147799503943853,-6.287532658200072,-11.121786364644796,-7.617838671820887,-4.099760840039828,-8.760455596115394,-6.753015302216841,1.7182270438721643,0.9512828460567024,-2.3367823968531463,-0.2340923939052273,-4.44442798143461,-10.209467317440776,-1.1459575827908504,11.053256001943028,11.416940918235111,8.596163542838624,3.0214948758104034,-11.753546761423783,-19.035300323455456,-7.968356261389502,4.130112395241152,9.709815830701132,14.979620235001907,10.847587830361359,-4.9586919881971205,-13.654302645639525,-13.598484105449824,-16.497477002679368,-13.387860183966424,0.6472335570280778,8.286497575223299,7.0758206494512095,7.707098453170566,2.4449504503074335,-9.715733654063168,-9.067806760738328,2.274245129013365,6.100046112701935,7.830634733651912,12.994395216613364,9.763830058655582,4.788738626489009,12.380723496466224,17.981377690038045,11.189956577394991,7.54662663957116,6.716028508528442,-2.4918645442725604,-7.275169140193331,-2.041545201895348,-4.304218024369157,-11.24029801675584,-6.952469436891005,-1.348058855863438,-3.6341443745576756,-1.5041759722144947,1.8424290256272091,-7.017302331347544,-14.86915993400291,-10.004453102934946,-6.595130576738235,-7.21895700256151,-2.1910088156784275,-1.2082032386905455,-7.526310429982265,-2.866235206170222,10.697568880441938,15.939926853905675,18.46332852145861,22.863587011798035,16.282040065060166,5.244750979190185,6.2508554182241,8.910942735838082,4.696618367825073,6.295330876226983,9.515980999423162,1.3392024413249919,-4.808716436630355,0.1038646469364024,1.3235683825777853,-0.5602996354257205,4.860851342814264,6.088387600857444,-1.000477686706542,0.6407364338055663,8.39714846564789,7.118028748909044,4.947974675454527,8.337737670373258,5.725971285674548,3.5853130688344685,15.483734312756974,25.3465498366811,20.203742664423903,13.223104771981813,6.014790624030896,-6.747401880527628,-8.687318717111506,4.854372112676742,12.040712957196757,9.25269211873518,8.219733986659122,3.010689529713221,-6.134113388516532,-4.0095924206044415,2.183000404891679,-1.9145465311341994,-4.721692740529736,-0.15437983648658893,-1.157772304217645,-3.701986565746539,2.442811307623803,5.326436187833324,0.9434489594682005,3.4150807437774686,6.467792093067645,-3.016423115823055,-10.51275700423119,-6.507347249845463,-4.759766122187057,-3.5896568975259684,6.343092916672806,10.469502247840548,3.337614295035719,3.023528488329538,6.53787732111683,-1.2195101483260151,-8.846008520943208,-8.596713413888187,-13.854786319619224,-18.7555269666395,-9.725159639812976,-1.6329844117281516,-3.6055695486712747,-2.2662184366424367,-2.6165907402536464,-14.865710613019134,-21.04459986697516,-12.996052033955733,-7.9390871850118,-4.799336346594264,6.189063270953682,11.283224824389816,6.048243432713325,6.607438957403295,7.651214250895709,-2.746559380071284,-8.299726803802626,-1.0576547691289973,1.757447648962376,-0.03134591694506339,3.2354248388468028,0.3493390180493925,-10.526612565895118,-11.605062489394786,-7.2689676097693905,-12.368381729602564,-15.973310018651702,-10.758179247302301,-8.930595381118536,-6.667329216787833,4.298187891567295,8.670634419409197,1.7297529268306082,0.5390865474079649,2.9392814369112985,-2.3386585973772784,-4.055014364094346,2.1270263586128375,1.7884785466077915,-0.6843247446267596,5.536818773702805,7.553303025590203,1.262601556338565,1.6391646241619848,2.89554989954258,-7.55233733181111,-16.345168744644006,-15.510117460082851,-15.940397622905651,-12.35649772243272,3.1846026453470824,13.306930230587836,10.094308299506178,7.73853349282517,4.365946954860134,-7.477447958473945,-13.436534447571788,-9.03667924527874,-10.02364204373031,-12.922609345784641,-5.092052354661051,3.3571816878417398,6.005218438633664,11.561462197439758,12.385438096467524,0.1630880492241218,-6.991773582376235,-0.0222281979785377,6.059612795941929,9.66782323561458,15.645566008160934,10.772472604643117-3.866065577072697,-7.1898087932934835,-2.605190417965388,-4.095031725116295,-2.4673008917881125,3.4678602628266235,-0.4237010067492437,-4.556333853346125,3.7150103894269897,8.02999306682858,2.2614452782883143,2.32818802897934,4.376963312020537,-0.566105629367498,1.6201160985255645,11.668261054395096,10.870252229531182,4.000554454561971,3.7612401930269206,0.9945603680497714,-3.1028266439359276,6.989682289096453,20.53726676529727,20.52582110711517,17.228085136289973,15.760489125900342,7.219132363448597,2.042545675178819,8.521682168915238,8.517319927179265,-2.157898916542705,-6.677665186611933,-7.771753520858645,-13.662970279576781,-12.309565148364385,-4.561329417975975,-7.3198502608160645,-12.216467515136241,-5.639597369292075,-1.0902568705256739,-3.4137034703391866,0.606894496585408,4.104442091269638,-2.1012166876047167,-2.643566705127923,4.138327253795969,0.428265665431963,-6.705476021178491,-2.854468908292753,0.42198014568888037,-0.5848029407850996,6.6919157369722715,13.179138802229028,7.220532600646118,3.3934520965082395,5.536500694828025,-0.9036665069449077,-7.424642187527767,-0.13190629879032434,7.049688689008221,6.402914124746399,8.13289856357591,4.684054525314302,-11.11518341989507,-19.308788164902175,-12.867755520750112,-7.526396247673912,-1.412491227935474,9.91675476121075,8.908388658123584,-5.856660120574763,-13.713097308338671,-13.987063090881207,-13.260944159934878,-2.1852717186497026,12.276340680732996,9.880448658206292,0.1436926106529648,0.9054992970913067,5.0985463717954245,9.269703163495494,17.668316930275438,14.87346912629748,-5.16825500796393,-17.49830766990292,-12.270761166488649,-4.689645701292617,3.0046700991043034,10.26767079498747,3.5576356159088225,-8.491998120563244,-3.999551078179147,6.400353318186973,5.918662176301155,6.304828191140685,12.75373770159728,16.335397386660375,27.544138730068106,53.79174377665475,76.40469034615104,91.88520232069509,117.97417916831247,151.58577341745007,180.58549641074464,208.60308998121712,225.7492984030258,210.38662338756114,173.9108885602213,142.4905659698633,117.13201617317779,95.08085495112319,77.44708137388778,46.58253140477105,-3.492719118842846,-44.804944278935274,-65.36871350033043,-81.77518524067915,-96.16207272459938,-104.3918535730265,-116.69647870096318,-129.6253642771184,-130.17595067186375,-131.18215677191608,-145.94933212572,-158.6250489552905,-161.1915119072233,-164.46305731330858,-161.9452204180125,-146.66706299605235,-136.83548441312192,-138.08320807650634,-137.17577983787493,-139.54794813487706,-148.23979167948337,-142.66547193385895,-121.58587054293895,-105.35663972232929,-93.91794022462874,-82.64331467585323,-83.0797770279571,-90.56132456326469,-87.12101953342126,-79.2545667574085,-76.98590226269792,-69.12228226391625,-57.34296949761452,-56.49283107193262,-57.83157975136925,-50.7652178398101,-45.88703569962398,-41.29944287572824,-24.600062008663638,-8.948143436714911,-8.271897407633471,-10.404292648357703,-11.989793384992499,-20.701280145214703,-21.492716154982993,-4.442727787692034,9.669574962989895,12.88714754122947,18.328105197758646,22.52995163044239,21.664945982348584,30.225853983375437,44.22180671747433,43.87153486301002,36.39702245231941,36.47539103197433,37.22606516568892,39.48820070478672,52.67758959803723,63.00538234453025,57.88400514536048,49.79251891975596,43.020335668179484,32.022377559925765,30.55830692875362,45.46145988550416,55.95031658151732,54.37557010632532,52.728183786929804,48.53157625627461,40.7783994810178,45.33777889931697,58.317353759881115,60.070512131723646,56.19759328710902,58.05177912142203,57.251271092786396,55.681438037345806,64.4393695898099,70.77450793181907,63.302098659185724,56.35459270893986,54.3081274237275,49.34131421416517,51.122798299940094,61.57817648698936,60.4254103250582,46.961757210133904,38.30076245354049,33.431506259140576,30.841578610031316,40.71007790323266,52.21379063889916,46.02689107016118,32.728261975064925,26.692029755582126,21.49413755749785,20.313013361392024,31.411644018680647,38.82321123501484,32.758361134846915,28.49164993905206,26.439564703187056,16.262199049311526,11.883210506916406,22.13496908420423,29.689947507509544,31.486003341894705,37.190948563861866,35.70153882739229,22.92442244621912,18.245684331959982,21.419975203501256,17.241483358372378,14.379871079731696,19.81001843671063,18.723276086043,12.761529261293347,15.452162300790992,15.82937562117258,5.632643689836012,0.637785904471348,2.4065284794897215,-0.045115295097052144,2.832998596205251,14.97465951639691,17.882935238916765,11.99897057916268,13.17409555379315,14.530882899639352,9.673473628076984,11.67837472329027,17.380377154045668,12.780915920346626,7.453353009547983,8.849186782853858,4.267434957094817,-2.3691731790581976,3.04836716798052,8.459084007633296,2.4647053302789708,-3.2543804389722886,-8.598152658812433,-21.095506885481388,-25.58393018166381,-15.138954423531231,-8.557504989473472,-8.493472705275469,-4.318735186171988,-5.114174206740964,-13.970240381704283,-14.825114058002649,-11.232722732590375,-16.698487759624395,-20.03674720526575,-14.469763321764239,-14.368785125410179,-17.44457209146906,-12.263326855937256,-10.515991027129811,-17.064861459488473,-15.594988402330134,-10.525900502861994,-18.035099028507084,-27.849433917613005,-30.283279577444667,-35.24703564405472,-37.18936031013159,-23.783545583186857,-11.462337280058648,-14.662854663150085,-19.730182334965985,-22.203107008932164,-29.68167094598708,-31.000666856143454,-21.284351000298585,-18.81646558419365,-23.765897269001595,-20.271963837389258,-14.780261605344457,-15.121918121774092,-11.202994119666368,-7.285931393536684,-14.563988292027648,-19.698101905662526,-14.319503517377907,-12.70057879073478,-14.902225671497604,-12.1017777149729,-15.564786950267893,-27.74293077368798,-30.031008260556625,-23.868138213988317,-23.23651262062025,-20.649198851433543,-13.181870064583853,-14.461571975106407,-18.266060985019095,-11.442713622454036,-6.722526893033313,-12.256757567047769,-15.022212519080904,-16.811415751716435,-26.891497635429072,-31.484842205152454,-23.9990713159035,-20.475873626443608,-19.195253631894204,-8.294357872566419,-0.29797186950751264,-3.080127061467051,-3.609386164768451,-5.5028827415351005,-18.26241458172175,-24.40623392283414,-14.43865458546113,-6.18723300553029,