139.42887667505642,116.16568705233107,98.04895113659818,83.36282257533664,63.20246336060687,48.30107171733441,37.199292034451425,15.925335957248793,-1.5272070680892686,2.2597018582320483,11.858898095143202,13.597632652888251,10.691352574183263,-5.21907100238772,-33.55984954098799,-47.47123387702363,-43.227953802606244,-45.39462641096908,-54.34413062313897,-57.722640667309506,-63.95200561443835,-73.40579168888785,-70.97078268879409,-64.19557210110332,-67.3420783015091,-69.28746399548602,-67.82584200443071,-80.66124274872266,-99.23330453856202,-102.13474230875316,-98.03108517116958,-96.62681007836854,-90.6423878863551,-89.74130972223574,-103.28310583867804,-109.85172824189186,-99.89066341199762,-94.07080437890708,-95.60246981332132,-93.33768364805962,-97.51810912899761,-111.06171845607545,-115.12591490158617,-114.39628004905792,-124.91158010510088,-131.5190812624678,-123.95392527405308,-119.06151333587154,-117.45951901741684,-110.65041702331698,-111.67094775673384,-121.56593920242372,-121.49814083146266,-117.84169306412463,-126.73654257306806,-135.03587349484707,-132.34042504679027,-130.57081084315223,-128.0584910519093,-118.15742610214241,-116.6241578613492,-125.15602770796119,-120.9210253349591,-106.8061144005522,-101.34046466946526,-97.46967057809955,-90.89087882785762,-94.6864582554915,-100.72742044489085,-94.41954485139544,-89.45472826450906,-92.22856120183303,-86.28236002499565,-74.49627247013558,-68.57220691806708,-56.510051841231885,-35.81906108737579,-26.844798900307314,-31.049295782855875,-37.041005565192044,-48.00347558262003,-57.50624934044579,-48.23084559566951,-29.471803948191408,-20.962867695916856,-17.42812010392938,-10.970396133713077,-7.58981033338106,-1.607148637341848,15.016372730526061,28.737536191383906,34.801436900311415,45.77256071141059,53.01162527202177,44.06305252893222,34.89990763714762,35.38186893281403,36.08285545866843,40.223993990284164,51.03297907994775,55.404307972878314,55.72625704666177,65.31546016502213,70.64735897312937,56.56782021893607,40.551401530995385,37.74660901921003,42.262011382636345,54.84869726274068,70.10562685938909,64.7550049150291,43.2294938169708,35.31301387524161,40.29100603153837,42.3518264132482,47.5565808263901,54.49460153587564,50.60537203166979,46.61353898835043,50.48771955433072,45.05135702203254,31.826546838966337,32.12489063929637,40.5255785184468,42.89614560438549,48.01952343488159,56.03319091907239,54.66963295315837,55.11034920871937,66.62946075146925,69.42192574673126,57.64247954945553,47.6876885072066,38.293152498882236,26.771744516925672,28.592408483862016,40.28164499645732,42.61030071960885,39.258522766300516,36.769191487609596,27.197408253234464,20.36363061372224,32.50904313674844,48.27070731801742,49.88217692632735,43.61393811311275,28.20177854221688,0.4031179528546769,-16.63939057809592,-8.691661454657627,5.948424325607812,16.85839311944444,27.47370570680657,25.2436031965629,5.419679084072208,-8.396001618286158,-5.193613572743246,5.283917865219495,24.63949619829407,49.02490905008176,55.2266671678892,41.604593690702885,28.32992952737662,16.306511084705093,3.1860886764545144,2.707331686801215,10.323656286562757,7.6179589429496195,0.9529654369382476,0.2082070325980372,-4.261517045194942,-8.654823884654995,1.8585145556690064,14.05183439144731,11.016063003300928,3.7861875626555515,-3.1995080507770477,-17.734587346238357,-26.60235118440994,-21.633292167103296,-21.98847901193482,-30.468163520916644,-31.71616876255562,-32.84172040595562,-41.30371675703876,-42.31240555756092,-37.08712929636036,-41.34316847654411,-46.40028744782565,-43.26952912641365,-47.087003405088225,-57.56631696513037,-57.338515429885504,-53.803691128660276,-58.53043408351986,-60.524538218849244,-60.66194754085965,-70.21558569992291,-73.65368747744006,-58.007895465334926,-42.03064605623129,-35.30706625033423,-31.381840256706358,-39.548169564794435,-59.40142646593336,-66.13853113526385,-57.78017048168968,-53.26004679007658,-48.10090402912877,-35.66884520505438,-31.41777963959499,-33.757711014599685,-25.464547175215912,-16.786804910828835,-19.623326046644138,-18.911483608093206,-13.374927517462847,-17.08098846744718,-18.604384032706044,-7.320103268695181,-0.4902669283493888,-2.1323763963296756,0.680317965407276,1.1101215829765336,-5.973137166059574,-3.7403910115236507,9.35098508090999,19.41919074721852,32.743117288773085,53.29023277422236,62.35903729379882,57.08067158276673,51.19516669196144,41.674733218969564,29.433075241701452,31.74047529189575,43.94891429815696,46.384688792865504,42.84087722058057,40.700504345539244,32.78058095133385,27.311381855033197,37.428720122712235,47.24827066553176,43.16664800449593,37.230038300575785,30.731719011979678,16.71440657287765,10.267816928689138,18.732568845451354,24.010637324928098,24.752105619254564,33.725162644573494,40.541120111295314,36.53003176930346,34.538930029406856,31.82513718930469,17.49309523302172,9.02072442192446,19.09076274107891,30.198235795723168,35.4190823016582,40.309411869234424,33.4034422760651,14.769170692674713,8.136906572672993,14.1391555113591,15.946982903688115,18.603588021587395,24.818644846808454,21.705487331451813,17.46988186594659,26.03622590020137,32.34573091668692,26.101257783207657,20.66079790388831,16.2430195923726,5.7367987295248986,2.702032621730073,9.881086387724372,6.781212430343996,-5.205149192557732,-9.50580856714577,-13.076109137140648,-21.675227455205302,-22.50207259413174,-19.313079102082124,-24.70652162971002,-26.79372922610727,-18.041305224090422,-15.647331304679446,-20.649363148974956,-17.69653258542627,-12.752108488944044,-11.352848258996932,-1.7870701087199183,7.505299315132836,0.5762987121574548,-6.621128066449152,0.2052306394736827,8.86309680749278,16.980676653727535,29.22562794424015,31.480517999035428,21.133481241432868,17.17659340842041,17.91932902018761,9.510494076739764,1.4211222298670574,0.8247472203694942,-3.2444737519973117,-6.368531069758077,1.067130939248064,4.03355694782995,-4.5308821539314215,-6.89896711034587,-2.410484294408082,-4.830590740658055,-6.625625105817027,-3.267685056573611,-10.796693815498834,-24.77386192149185,-24.81418641981385,-17.405820634128705,-13.100941806569725,-2.8168495053753713,6.658230075439284,-1.356548079833153,-15.192182676254932,-21.740910470259443,-29.223300170601952,-33.69715561371839,-24.102863240552896,-13.216461954745931,-11.247279216043347,-8.330119438864283,-8.761978298333329,-23.33945221665717,-36.166553556254854,-35.36577070649889,-34.16492816229663,-32.83920152253597,-22.046954083980616,-14.261478981620868,-16.944238708916483,-17.203409886666165,-18.631504931729022,-32.63748187434591,-44.89102000162324,-44.901223939121934,-44.3795293404201,-42.59370575672575,-33.2202078954303,-29.79586300513412,-35.858466972501866,-35.89936779322512,-32.96935018063121,-38.19656221177219,-42.67608071632677,-43.879300477977736,-52.18538160208268,-58.00232470690378,-48.51143581331168,-36.792563734110004,-32.09492613257789,-25.43262221935672,-21.120347725084248,-27.73461928695581,-30.239753345077073,-20.622512588098385,-13.673350135331582,-8.353273818324674,2.8026311298599555,3.0048978257508248,-11.154677920061523,-15.96721603372264,-8.859852450532287,-1.9575492355201176,10.568377376976517,24.749523090178386,22.25793637321839,11.927897997480471,11.185398597716354,10.707935269165118,6.4281755428007425,10.444490339558476,16.047384658776984,14.09254089513663,17.62991052165099,27.449521194945355,27.58943382268938,24.411885974758178,30.3436483432019,35.22595687642589,37.483532342241915,49.06884100099742,57.5053748397622,48.575094373072325,40.49362405069956,44.29202967734171647.87085769753097,53.304895458790625,63.392920377850444,59.976612427290064,42.42552869590453,31.991766280547914,28.434022246089015,21.80692986904453,20.95613487638508,27.507180120587165,29.28425699975197,29.918901333533583,34.48527928316723,31.580106864701904,24.4646244122165,28.990328989761416,36.334761659747,33.5514583379032,30.406898829199378,28.53150678991176,19.836049408520914,17.071800567159272,26.430667051341736,27.700844129811486,19.942016347585223,21.709148438316774,25.217916016058062,18.148912584555447,13.75334466809284,15.010927849887487,10.13717524776349,10.003889326054514,24.837691850835515,34.45180920631199,29.230072476025523,23.496441073678053,16.741888904198298,5.699352965828144,5.5871489122930775,15.162477113982186,15.99004278793215,11.938226002734485,11.824323497761533,4.627363429743531,-8.939555044957363,-14.52921142640826,-18.70610313013569,-27.874926688545273,-26.475536791371976,-15.60149454374369,-14.073320120423212,-16.197981292164148,-11.264183881891345,-12.2077458224547,-20.40544880604698,-20.75911575052178,-20.06731531337993,-26.32361063843681,-23.350545549258953,-12.514516040364432,-15.787941166936434,-27.129642961467514,-30.61311959400373,-34.17444148911469,-37.63898690215939,-30.68898398257089,-28.119559812107884,-39.812517614632746,-44.83788532058135,-38.341014541978836,-37.648002503477485,-39.815385329091946,-38.516087387938356,-44.29174900172754,-49.98612037457354,-38.2496678816801,-21.71414225498453,-17.431294142795714,-18.745322482381276,-25.562891329286078,-44.17537153256443,-56.720238628505854,-49.468958079172225,-39.602513483332544,-36.176047205289485,-30.756021917881608,-30.765600442981363,-41.529634397130046,-45.13357494627766,-37.62237481769384,-33.75758391069028,-28.732407651321935,-14.549483050633464,-5.696892558125429,-6.293352641608486,-4.574025109495912,-6.981752834486184,-19.75761854736424,-25.917198988098495,-20.309324622238222,-15.160499071743246,-6.995392201914795,5.760407552358066,6.454796055420954,-1.549050266425775,0.5430823954375015,5.140331052483909,1.8384674446891895,2.64821894570653,7.538433388561702,5.569841135193661,6.931576254195423,15.776688055988988,12.337313771674534,-0.4746822711656362,1.4347192889994762,13.25385556833195,19.89386845152144,26.153215030895023,27.080568390415493,13.307436670564103,5.371437994007264,17.94832936815113,30.51456796292708,32.345166738607794,33.003932051781184,28.909475128162942,20.26563099831572,23.972592557052753,35.616919401661576,36.51394283168054,33.46059479727185,35.950070247526156,33.89020201699974,28.89085688227084,30.217335002493492,23.9068296501992,1.4836938853269377,-15.078227801876764,-13.672146471353395,-2.565535023419706,21.543831993053576,52.017454327502755,57.314046812155254,35.575960815190555,17.27072744206722,9.51766704995706,7.013472679458874,16.73929222894127,29.1348021909284,29.107402205773766,33.11152576456973,54.99172067632576,78.52633280383293,96.75204782923262,116.2224542938199,129.43113011554735,138.31452096197705,161.7678847131627,191.7681114760943,202.47989995161655,193.89838574496676,171.61556467737512,129.60548879350327,85.73415394804047,64.75255404887695,50.90146167099646,24.29848130207806,-2.758853659485406,-26.905752077014093,-57.93764173324986,-81.72307846119887,-90.22309125599227,-104.37859522971712,-124.67261033087313,-130.54456846537016,-127.28399773208403,-125.96317890106786,-118.89616670138561,-112.06984378991626,-119.83000003893983,-130.30333475294356,-131.4397553363864,-133.13736578022173,-133.24417626693145,-121.15180612187027,-112.0048468824069,-117.27248927677505,-120.12211725491471,-116.42489200321825,-116.73801601759743,-112.97085599575266,-103.57376270415584,-104.86628624151267,-108.74080544135693,-96.60019317010294,-79.92853883227234,-69.23782790159487,-54.28746523504334,-40.27164034505454,-38.667852404993084,-37.58290043466971,-33.065203038128615,-39.501966236934756,-47.87445210284607,-40.61817526195847,-31.53781986595802,-32.304387192617256,-29.27986450815344,-23.550259713835498,-25.769891888139874,-21.70553263871045,-5.080850559962191,3.862317414967484,3.432991953080956,7.207134966474285,8.155587683084608,3.0741160831216385,6.285435223684667,13.923873066102388,14.18198398819014,19.602335980604355,37.474689680708515,51.37719679718017,56.23691260333351,55.78667270146693,41.47166577039201,21.06377269458766,18.310621585119037,27.498717350787878,29.515496848370248,30.82693213509383,37.59754012756933,41.02045337095468,46.05111722464275,56.581290370667425,54.512323804287576,39.81955483130833,37.09464634306626,46.576283603587065,52.89539803638425,59.316313475718935,63.73496105105725,53.550222004051236,41.31200336825252,43.920870310179374,49.4406308796197,51.46007536324047,60.33166142573475,65.81865122797707,55.253464283437644,45.34672046228018,45.03341490674585,40.19068877210569,33.99435558398092,37.110177275052166,36.71005873730499,29.02872689956763,31.072693315179603,37.81776283650697,34.492916398346665,32.90973784668007,39.59856336806751,40.18299488977069,37.90050023282704,43.63047046543684,46.23164179317533,40.92065986225598,38.80539284556605,34.370589253302185,20.470346657948998,13.57639229672845,19.833175596400277,24.039331443422874,27.255882015643536,36.036179551318476,35.97280772302119,24.994023677144195,20.178585722632068,16.14458274984504,2.416832670221035,-3.7106627947224333,5.358564016120972,12.708278023123452,18.038282201555862,28.44851864109842,29.9174373478629,19.39647906120438,13.742969192951154,10.019915985503754,-1.4747713107496407,-7.600051219427817,-2.769390500122025,0.6478875761575889,4.9253062979509865,13.755349582691945,11.166882146661285,-3.570981716824842,-9.849364699140406,-7.293554562562612,-6.041464591184821,0.8733079223922839,9.409686210032564,1.5457263568890323,-12.823555213098768,-13.7441262585942,-8.945685727570918,-4.596734717050292,6.894705914674992,12.536920472390578,-1.8696655352955664,-18.403835154710695,-23.100029022987105,-24.228861078732287,-19.333896844728446,-6.750822641935517,-5.530866006167946,-17.308259694892804,-21.840934237612025,-20.80758463322324,-24.721465330863584,-22.63793181882543,-11.503555039510594,-4.5349682119758,1.8614345546518616,10.992605953543585,5.727407295451534,-11.576927032199556,-18.017296194405017,-16.21107341858732,-18.03587167560221,-14.495829239744502,-6.454589196063258,-9.10992141980218,-16.200642898202748,-18.819466393613315,-29.366925068765433,-44.142440405844965,-42.42626293255729,-31.807724404756556,-28.147323322027567,-22.327835200820353,-13.315377537570873,-13.551593077888903,-13.32640853515539,-4.6174508839914195,-5.378831721087483,-16.15593579340813,-16.370435179930197,-9.679534365025631,-7.545323046389854,-2.755689286316659,0.08052841533784405,-11.371747339356375,-21.730471829552133,-16.305757851493407,-9.844209209985522,-11.198429507342318,-13.76836738078078,-23.222913841264663,-39.60662729460637,-42.351206917258125,-29.72187812758183,-20.856412197391307,-16.180001915959775,-11.161429886208687,-16.69688740511345,-27.81497779078454,-26.303101675029126,-19.972372535806034,-22.139142866862034,-22.44869838619852,-17.919133594391774,-17.51032465862582,-10.613332490869054,9.231024205599859,20.951248267285294,16.815786111818518,10.800122502087913,1.1843599617291045,-15.105944684821678,-22.556501080916956,-21.49639561301154,-26.444557759354485,-28.369914764580297,-18.399561814664114,-12.895365125672942,-15.70740688677828,-13.83291709290592,-12.464007301968692,-16.19954074186464,-10.360664970147855,2.3520489149516037,4.434065705235557,3.464263243858439,9.528409672349719,9.434570691707728,1.9443487812410967,-0.4099951894288486,-4.945324872440939-15.320541245626291,-12.470421003067367,3.6812202205853026,13.343227074760513,16.542294442167282,15.496758711140311,-1.1880507423743278,-22.077388987856285,-23.61870795946784,-13.65723667584985,-6.131173860664099,5.024441120251682,13.315319415921243,5.068083211764233,-6.387259090635311,-9.654835305838748,-16.268079670518432,-21.594896215953543,-9.389684705252366,7.825293609572099,14.310988946113596,18.64269401981273,19.87090341639616,8.514019048164904,-0.529091870893301,3.1597742989232067,2.7648772221453273,-4.436165981443605,-4.574352920844969,-4.383870805147439,-10.897001849272991,-10.790633298725842,-4.1038369688937415,-1.948347466469733,4.505486550894926,19.1908720484269,23.710218811126815,15.481854306755704,8.914647618740668,1.474422941016864,-9.192845624020233,-10.120336736789492,-6.0019746433469345,-11.258850647556283,-14.587700742061154,-6.522071222432455,-1.3512766569851706,-0.6229257630477921,5.031206039431674,5.091553379266328,-4.2292309265184365,-5.566016110311612,-0.2519114791595283,-1.205279902879595,1.5490425349139931,12.097994162680717,13.26738292645618,7.991788667601016,11.585231294194845,15.12345116789486,12.244532164851272,14.409761907162856,13.763261288861576,-3.1770338062790477,-18.065640286377494,-15.147242964701292,-6.51806963572242,4.327236578737508,20.66601368490556,24.129904477030344,6.8564606078127435,-8.707277157731964,-12.42777955647147,-9.473077723779877,7.317591489497769,32.362434241672155,40.5669531478474,31.497134068509865,22.292064708718122,11.417753711299788,-1.0489605274180054,-2.533949152558578,-0.13959975172473316,-7.035682358584704,-10.405521837907372,-2.578755083630998,0.5902942434531271,-1.7096078162433321,1.2427756553582865,0.14204033908573643,-7.2724579914196,-3.6229115030094126,6.136110796646655,4.961417674133768,2.9757932432666743,9.22150553340389,12.072485878229456,13.02477731975951,18.59528119624559,14.793079247359756,0.13714117838656392,-4.818293360970767,-1.1699915557845066,-2.708092590945383,-1.7577938827598836,4.696127472508614,3.563835977281357,0.5626788883587983,6.67016930851856,7.457556509028391,-3.090583453112654,-7.191236293325463,-5.310093428791269,-8.677042196353694,-5.743551200580937,5.9857627918927445,6.9911637430725335,0.6635559200084105,2.5379724061838576,2.493125261096128,-4.334159076211719,-2.6113471875963117,2.889274840225779,-0.19254002118420965,1.4448439529621349,11.674658525498765,10.892825681345492,1.0074727354655786,-2.031151596385664,-4.5204420793639075,-8.363520802927269,1.051709005784827,15.036298881455762,14.792426458835152,9.837657500083488,9.93547033178243,6.203866879455331,3.8926516228546717,12.667595248584181,16.884597214084742,8.260695634210304,2.5490456253190885,0.6476283315842482,-5.056549487529372,-3.0213820888456477,7.231840710719283,7.528822307577556,1.6942883576110388,1.7555154604395768,-3.2759589885526146,-14.34635901500297,-12.58480769709351,-2.618947955926509,0.02452990603361016,4.517339360383276,13.59343522425644,11.44723205052927,3.5458346857955876,2.166036247272915,-4.253536708013368,-16.040126247304528,-13.218503263637679,0.7986074190829378,9.398202800634142,15.2808310592601,16.54042667347729,2.7561418650455733,-10.022691270528288,-3.1022898479145296,9.990845220335247,18.036621792221837,26.004402945496494,23.690655654493796,3.9188401246952393,-12.899391144876017,-16.689881439451476,-17.609343913740716,-9.702404240301126,11.516772754803988,23.19410132464299,15.045252938627371,2.4350503387283657,-10.889389633479047,-23.458822327829576,-18.647069954712748,-0.9349679372277588,5.140391153302792,2.4258853811601906,6.003009119328862,7.918927196740019,4.787894335233801,7.035122240084847,5.613798472075962,-8.242542075992962,-14.706235206664275,-5.411945753458642,3.1295790332098705,9.788710289928975,18.31952793776915,14.42494334794507,0.1961667480584186,-3.576700497727221,0.32874006576028636,-0.46338129647812143,0.2465549697121292,1.7707550890004458,-4.198877154566629,-4.14841877666624,10.846411696315696,20.92339034795744,16.868302462976622,10.048710122824078,0.3809550311158043,-10.51161367101758,-6.329726520526292,8.127718889169621,11.563936677920655,8.199521280955016,9.608742800715344,6.740647891090204,-1.263112425616911,-3.2470295782149696,-6.140833662503693,-14.608393659066941,-12.47077268604721,-0.06506338263050182,4.562520446304749,4.363611975688187,6.705740144223377,1.2092274617407326,-7.797239693027505,-3.3316460938115697,6.794581965041365,11.57293471986723,18.805316015949437,21.79766438895296,6.532840866463403,-10.27695165216511,-11.389677384724333,-9.567951535688028,-10.529862866718698,-5.4954983486290905,-3.5989079379411986,-11.23095934157416,-12.577212080515325,-7.898741575388689,-11.835739491990664,-13.609586021510541,-1.166709619957147,8.871893095824364,7.3516122366430965,5.251114589300762,1.7236810712902157,-4.079116890611733,3.3946437919821397,18.97038243005511,18.139764827882864,5.779812428722295,-0.582463743078733,-7.230175789745318,-13.994898113051088,-7.576292505496574,0.5522150967446531,-3.455979607581792,-6.205271546411114,-4.834718075801446,-11.744814219860082,-16.20169253195238,-7.269596772600072,-1.338152139050235,-3.5494134526476953,-0.12001738270540852,4.1748723003782295,1.6560472465408322,3.40207657787088,6.268878876926675,-3.166080881161136,-11.341998527059728,-5.523200982806325,-1.070386251402315,-4.001748582945087,-5.7870306920722445,-15.076819212972834,-35.22828478315306,-45.247652247190445,-41.002549675496084,-37.38072833492278,-29.060514390871546,-11.646138505011535,-4.550693668967569,-10.672972847375112,-12.250655440854999,-10.72377301509898,-11.545867242382023,-3.6031450931002644,8.1052419714066,6.977614436674516,2.3757068676458495,5.431963177077469,5.481441528787278,2.998337555877592,7.601174103397499,7.767261654471593,-3.7890385649027736,-11.443087194355508,-12.667441513666173,-16.833007373154736,-13.919073713679952,-0.9627055197384466,1.0749884601435578,-7.735419444090569,-7.164303085071063,-1.4505505538358854,-0.3790302264694255,4.871716149637557,8.99324757811302,0.13002664461114577,-4.094174539120391,7.933889239347314,15.39541170159854,11.287923825993115,8.159547693097172,1.8494303482798045,-7.498624977753797,-2.167155862751316,11.788553053601934,14.57572415224843,13.132433445570495,13.480216823967078,2.8225724951997986,-10.935250581962558,-9.192130857724699,-1.8259108837930853,1.1934919889427071,8.787824989037285,12.894311024727681,1.4665417765307005,-6.289936920571333,2.726049351450027,11.434700080342678,14.596457396160318,19.524027779780436,15.82764616977787,3.2199473012999826,4.10075312417137,16.4666737275316,18.389801409210886,12.15118196701286,5.112685391422595,-8.363886034548425,-16.776458480199402,-5.80379912281227,7.974674074779447,8.862286801618556,4.010221828630934,-6.669408869371008,-23.859978626966004,-27.287855787440108,-10.444571111043356,6.585948498188788,17.67226076429687,27.323822857775568,24.690777851731625,9.807984719083995,1.4987904517280044,-1.2831290483389926,-10.013011097211145,-15.112970683372518,-12.276906408184397,-14.076849448095938,-14.442770002347228,-0.9720178795007444,11.16034255421499,8.901275321469981,2.0466966665895425,-8.4602364954877,-23.708347377347035,-23.865584378737093,-5.524887309937184,6.4494415333651975,7.45415277647853,9.242186996218285,4.617259244693206,-7.301429039653401,-8.732102078248989,-2.5745451477352246,-2.729922485727973,0.7898049760331338,11.763138733779721,11.396981965045665,1.4107253316074497,-1.633718601264328,-3.33856246959909,-6.507462277917277,1.2588678514886764,11.10771228936741,8.159913324902737,4.834538535303402,7.9247032435868565,3.4420875692681268-5.511258962711244,-6.722979644092801,-8.849498306425607,-14.563297521890913,-10.134031391057292,-3.3130069341775346,-9.469059052959722,-15.240018434611486,-10.813217806622017,-8.999960898059163,-7.235118154381147,4.226443129381516,11.684677084015267,9.13083248129842,10.056385203782384,10.113724929854019,1.3987301796367113,0.4785422794536338,11.411532807737816,14.162477649463199,8.905954913728822,8.03842525858949,3.4107755470948806,-6.149560986099427,-5.59825167504664,-1.8943699794729414,-7.696222828416142,-9.176860439661219,-1.289443669080982,-0.874231360425584,-5.669197692252696,-3.2589998073794826,-3.256535705752995,-10.580480120683578,-12.521397318694138,-11.917091280639088,-15.414164450321628,-8.489744171876916,9.731723052721021,17.64513495740262,15.721291505361425,17.825782014096834,17.221282118231418,11.904472381050365,13.69108295911696,13.916577175894204,2.260709709419503,-3.930204178962263,2.0683254397331066,3.737946233448149,1.5269236829159636,3.812385904789569,1.404351324371631,-5.017643521972705,-1.313184678704202,4.858633207155763,1.313780335668722,0.2027911039566324,6.182317588837128,6.7848717147146935,7.844762845966083,17.91473001202607,21.429444911296535,14.755418414028174,14.222030869700731,14.151729691491013,3.6897165377999652,-1.8619919311933013,1.3008474380590742,-3.1857537506630065,-8.21330844697162,-1.7589127322934566,0.06782344301796261,-8.24499626845767,-10.3278241672123,-9.832223327659378,-15.836410704168742,-14.730608174094694,-5.550925892977864,-5.550124777750539,-8.254070567544893,-0.0038418101784634118,8.22080836300922,11.033116536205211,16.271947535389263,13.195861270813658,-5.79725984075595,-19.38916210559709,-16.513614815905292,-9.862144509763628,-0.4602502532226551,12.535893672587203,12.136551289067999,-1.4182729985569482,-7.714591041030291,-7.8781646162392365,-9.343886121665697,0.32624288716957794,21.080333995841986,36.88715914171675,51.63300861011959,72.4202047641225,87.47102738811952,98.34769351952845,120.73744348415204,147.46666376466868,165.3917293021137,179.8457910590971,188.80789538597614,182.62253924093483,170.83114618843973,160.9043937274182,138.97202886844315,104.33544909111859,74.78636699876972,51.09254288128851,26.06792001132075,2.6372438160194216,-27.06040526882016,-69.73401739694648,-102.93226373481471,-111.59178060809253,-114.57677859630337,-125.58524989989321,-142.95651027010243,-171.13522096749304,-201.5791528545809,-210.00283942799493,-198.44920225810122,-187.61970698487627,-176.2182489306216,-160.63590248035726,-155.3813171351729,-158.3529423059637,-152.34257485659097,-142.28114816107822,-135.2811712538232,-119.45504751942148,-99.98027196452726,-96.3337191548205,-99.96761455974924,-96.03217042047608,-91.94183328636407,-85.58005989931561,-65.932011780285,-48.93363867119832,-50.6700958727438,-56.359665812211375,-57.305483819360006,-60.27157431228056,-53.791098957910805,-31.84438383665375,-18.87891853280388,-23.267816540389088,-26.690722697596733,-29.257484986445643,-36.355541916726395,-32.34000359690913,-16.863413796378097,-7.895769875549366,-0.4548425967290264,13.945201228549612,20.362012434853675,16.017803306488595,16.334533815737103,19.66574865722032,22.711836804374006,37.64531335985029,57.52299611651479,62.03894106678544,56.48429862689534,50.957389553700324,41.45651839515703,38.391390454744446,54.54745053418027,72.62306892814743,75.27769692058487,69.06248072121409,54.0855412610709,29.47129052992469,19.739707511560404,36.779769892544806,57.036674001299836,66.71599555581015,68.7169147090778,55.97488791309604,36.26458189017613,36.81595714863875,53.70317752163972,62.382494252519095,65.58848747922276,69.48223556652962,63.10488234678107,52.851010887647746,53.20707526833058,54.43078830793668,50.73070289689818,55.80761514401346,65.16912430064538,62.132373316853155,55.64849365237221,56.15455382831653,51.647766108699884,43.071485819470745,43.44050851670839,43.663357851195585,38.44838397371806,43.22584733172998,52.32811184225824,48.063807217609245,42.038965008300266,44.07645108126949,39.688156447677734,30.94872884526972,31.576828115983048,32.552691660463914,29.325364554527965,35.27533774376593,43.732159432387554,38.923813370402065,32.29942951004106,34.57568289620321,34.14984110661666,31.146550301629645,34.51275243585633,33.0639168188161,22.760675043867415,20.534119075477125,23.981531342190976,17.63036367727668,9.50810805967114,8.031509884913325,4.337562891182248,3.3081130468539452,14.206515380461894,20.392012626279783,10.537635043804928,-0.48384902329793666,-8.04737800072617,-17.815353206411505,-17.87521014967379,-4.502717198289272,4.110539729255618,6.750438216507471,12.512652307693719,8.637341121454927,-8.94118858746064,-20.243157299965056,-22.376392544154626,-24.10746908051991,-15.352151032467901,4.007014473875802,12.167352313404393,7.846223723464046,4.972953719482761,-2.0821031665747745,-14.112137430517041,-15.007216325415591,-11.294636434837162,-19.390949129291155,-26.750542154128404,-22.363295633890782,-18.277750665497503,-14.94175456136663,-6.89505426667283,-8.781387946184754,-22.245509646180164,-24.778655772593485,-16.68874145284377,-15.10557721008319,-16.676518612811016,-19.706312413712407,-31.678292786357616,-37.507596136665185,-23.69659114196099,-9.168726255289412,-7.101974858228015,-8.277219514548168,-13.746137375678574,-25.51946201972729,-26.909273943047502,-17.105691260047507,-16.508617936919322,-22.797038033871818,-23.344220867243763,-28.649161573005866,-40.4156426952775,-40.52773189516482,-33.45553492025639,-33.39621086346598,-30.384653234094444,-23.04499697288572,-28.88266373979191,-39.78094385794154,-36.84591220369852,-30.286450458869666,-27.650281640907316,-18.518318134669805,-12.65740156439109,-22.615970254849053,-30.118617314812468,-25.24265606345942,-22.783681670013348,-20.830564256918635,-10.776834260126392,-7.04997785039104,-14.175380867817033,-15.179043528236281,-12.161758546302078,-16.422477804325588,-17.39360412021602,-12.075804081615619,-15.29115411233158,-21.166630844851536,-17.230197465820652,-15.737852485118708,-19.7797604087629,-13.779514000986307,-4.871054721588747,-7.362114897772935,-10.976804769871917,-12.232277631469127,-20.762830618150794,-22.864767047694016,-5.692519205375195,9.314880893257966,8.91467235427493,6.070167969332319,-0.5771385248934702,-15.865275207703448,-21.03265057416003,-10.243362215966767,-0.722398233124248,8.122640398303663,22.412696685245965,25.21437040686523,11.419692293335741,0.6762363627428392,-3.7002911469246915,-8.31353927868578,-3.648014821336799,6.623043549306638,2.8619302579158723,-8.499397087777163,-11.437218159033694,-13.78973400923898,-17.99936268904677,-12.344303640233136,-4.963528508244043,-6.20151390461092,-3.129570961264683,4.793192082991082,1.3081007255348713,-5.168741838643484,0.2755682913940247,6.413945222176852,6.782935166795237,9.411492394883282,6.163862732643629,-8.16145868218375,-13.687931896711712,-5.360948821197824,-1.5052795742755665,-2.0114296944116066,1.4188598836602764,-1.5893969613839367,-11.316735476964398,-11.724678968334121,-6.993097357136144,-8.106248044904849,-5.439546307587321,1.6760391470825717,-0.16449283662870373,-2.852235221597695,4.088060488223453,7.096996507201499,2.9240549503383124,3.993910473138355,2.6706809259018085,-9.410264357727227,-15.747245411563574,-10.981395319425147,-7.211636690029913,1.037616127560086,16.36024666373995,17.608073893850104,3.6361848409684767,-1.797726772782886,2.201391529022928,3.1180575126478574,4.879513546821219,6.00942597641779,-2.3227493443929914,-7.811921296250723,1.0708781880579528,9.657260311894802,11.006307343489153,16.530986176995825,21.4652851394273,16.16616963357108411.538269414751163,10.42228312564074,2.8202724842673677,-1.33016647132665,6.332082400148986,9.851322047328075,7.382966246040905,12.59511366052027,15.822645760349946,6.837582209904697,0.9709027739944142,2.6046432027813164,0.7268452581277971,2.485544930543052,13.539218527941948,18.924126914069205,18.176146782502123,24.169492174170585,27.096493198395468,16.684777487549,6.812860062220555,2.1078788949063094,-5.067136450430131,-4.51638543213269,8.894848206729499,16.29912917391686,12.885152784230602,11.320651100639884,7.888863889217275,-0.45266556803277735,1.0073372177869566,9.312969551459965,6.8908993831572065,1.8169081572211212,6.1221465709917915,8.341026775388297,6.2429630105526,9.713501354563551,9.935422753217562,1.3457953000020004,0.35105459547570694,8.941780671989786,12.841768937411832,16.91380769493243,26.55858027916883,25.439906060264967,11.814672929048346,3.0025783659365888,-2.237972415638994,-8.834127548561257,-5.735060616566139,1.530643073907246,-3.5503180073563723,-10.254807824791445,-7.207005948756123,-8.148466382129651,-15.213303574677736,-15.693187811622604,-13.773580819735352,-12.617135575323918,-1.2889301568557903,11.785378004313667,8.370030238773897,-0.8548222656355118,-1.3857672607532463,-0.6333695314117728,2.079901959485978,13.306443575931098,18.19937104994173,8.113443557649063,-1.2474524225110548,-5.913293282018948,-13.38912301238128,-12.937468435850228,0.19261788619078146,6.443596272267093,0.9101321298458411,-2.971527834496727,-7.865201238880364,-16.198195824331254,-14.02692627094735,-5.366234388076094,-7.0208951277621,-10.963344186879548,-6.540102419915465,-3.3284288013937395,-1.0027486584780214,8.684523990875757,14.045734813858044,7.108129029297375,0.16892833546991515,-5.455147377983989,-15.199841128494505,-14.43010456038869,3.4999452831311855,18.45533564995012,21.991118844276475,21.663063250774442,12.03081793828813,-5.14836997742444,-9.612493372867135,-2.972207594730655,-3.0918999073891644,-3.906331890053968,2.165377829939968,2.327129461736501,-2.1471157294332563,0.7655102587032805,1.221106139542817,-5.612314340510224,-3.094113021880199,6.587771587119606,8.35479928088813,9.953728851997075,15.340246644221086,10.24954256122449,1.576801148668039,4.917387603196566,6.775327728025282,-1.1962135883669922,-2.162057561665529,1.7907121066952907,-3.852070779277032,-8.716826321027503,-7.157531728778075,-13.319343040386315,-20.140316306333695,-11.470678741937396,-1.293345994732699,-2.995271318448215,-4.835205599198802,-5.026941952039354,-9.948827461719427,-6.136198676335256,8.942300108851414,13.20361212729938,6.593724051725268,5.724975287100278,3.7890463279225783,-3.752262285967684,-1.9212317712791918,4.733026679049248,2.485001393034423,4.597360511445014,16.04179053799906,15.320606229785298,2.928121575010216,-2.639784735802023,-5.368812458606976,-8.09878286719022,2.3319833943249124,16.37227793498203,14.216920794037161,6.580367755651448,5.370749073028154,1.4619249484601622,-0.5193275435861283,9.43607337181055,15.625133495014705,9.209579821447354,5.297192129821941,3.5721096527649587,-5.32126709477194,-8.997841093406866,-2.9633973291319737,-3.649285319403363,-7.276689557836709,0.09423699283782216,5.945306763976784,2.497186607169337,4.236486259259877,7.815478340742299,2.1085195956206224,1.231793389690296,9.314443878119622,6.57008446719775,-4.079416355989956,-5.904029985202355,-5.742190742484631,-6.848280521867762,2.2998426919859756,11.402535431348305,5.740555312483071,-0.20468766927453874,1.734586530205629,-2.6932312591477015,-10.366085580762261,-9.272705284029945,-8.969571755593813,-12.555766889047883,-7.137044920737808,0.12938743272088304,-2.9386380870569955,-2.5673076149551397,7.8907665944416525,12.931447531423734,11.859197401117818,12.474504384181072,6.307925172480621,-4.296285506887537,-2.062197127336949,6.122166787289811,3.9025943286890223,-0.05554310548426211,0.6221730035446711,-4.401212024216362,-9.969950207369486,-6.307828733119343,-4.781291085856697,-6.823831870772874,2.9412577649753144,14.87926316685758,9.120134597934534,-4.761376312238774,-14.01724645698324,-21.728852842064725,-18.801965453648073,0.6092264524621038,12.147247849953951,4.110016181512537,-3.8665163671421356,-7.703865294106302,-15.567703535092422,-16.059972910189593,-7.187989712381774,-6.458454425132248,-10.278970613186791,-6.3068184861136,-6.173214191682303,-14.796704771806649,-17.019279548020307,-14.364050189316377,-17.446969968546213,-18.11743307662122,-13.599682863859824,-15.917701963397118,-19.945964210974516,-14.243213134231034,-7.877946484220892,-4.748116716339427,4.130085682938379,9.329674233525171,0.18845828666407094,-8.477643713021608,-8.809379541002308,-9.228377253542522,-3.2864290573088404,12.146339697135142,16.62396867875773,6.5781620850051645,0.40563377909477993,-4.447595110069949,-15.964635682209307,-19.61122569398674,-13.052711319531431,-12.024080652377954,-10.500180798223488,1.2085588600950494,7.350402695925446,2.911810677922783,2.767974877976099,2.7590874099687914,-6.625398457773306,-12.423263474371723,-9.90432672280782,-10.553789636045456,-7.295332307591355,7.811437082371638,16.613535754811405,12.601287361111673,10.892800545277105,9.218580176021696,2.155957018419687,4.812395139076744,16.113103493127657,15.880272003586796,8.630716370772134,7.003467757402064,1.723485224562301,-6.157896440987679,-0.9132608927202237,8.54713918612184,7.521801348347258,6.1776590884351075,7.734772248049794,1.7911573384996613,-2.7297290105141676,2.854302946946575,5.002517409201949,2.602116314007131,8.827354189464359,15.47427849899103,11.625520845758892,8.44746055949812,9.340528871383158,5.869855716916988,7.232238437210377,18.7916856053315,21.194914831143052,11.543148697077779,9.27900795759239,13.156250413823233,14.3192257804972,20.11336449460419,24.054790964021848,11.619111392656773,-1.9891349856540224,-1.2489117358260287,-0.2447366588491253,-4.831158701190765,-5.640100200057026,-9.656608992468634,-18.94948436788285,-14.116616517992554,3.2121905786623586,10.242770178371362,8.527666016384224,8.249485388306251,0.9215511868745132,-9.40669373562443,-7.035783864741413,-2.284541744351904,-6.216260564269115,-4.308209789936817,4.197578814209736,3.0804585660044976,-1.8932767473204115,-0.9156752751776489,-2.4845059634192355,-4.009659951612018,3.2445497131663936,3.1488919216945765,-14.098623119425376,-26.946016449742835,-25.200505004212403,-20.204075567417167,-11.06466588911233,0.49613437955496353,-2.924123073900402,-14.657712078764227,-12.016136990684398,-4.144714874371623,-7.253636374515635,-10.637754504306056,-10.218299193667065,-14.12778948583274,-11.271900160566217,3.5177457681076287,9.316439872525654,2.5673330442077402,0.24780518182068434,-1.0015467718229387,-8.409502457043923,-9.623078661183975,-4.132797169573969,-4.344119690721075,-2.3144495907179854,8.767274122272093,12.30642992392886,5.270620788539893,2.7472843341581417,0.7938423629416508,-6.935568036164274,-5.429272246429083,6.123015350397298,10.355927207291305,11.340715138532541,16.755869504073992,13.757893453152708,4.191616122892787,4.59904343554861,6.49433047745017,-2.9998068454206295,-11.6318422634542,-12.961853363034137,-13.531444135823937,-4.973763561779903,13.419192593068129,18.464209118714077,7.266499149208436,-1.817488769361744,-9.959685823178372,-19.35256255949037,-15.841795257387073,-3.76736591317733,1.7425876150909763,9.077348956202133,22.351576780106456,24.00077792858152,15.530131090896663,13.16731456306409,9.748350968369314,-1.0390499141866498,-4.396461324719855,-0.7393135107875857,-2.377422598952184,0.3608927321959957,12.510694945601207,15.011039480376006,6.2861648521858343.1038969556141933,2.5394152617508525,0.2952763920381378,7.535506288600005,16.098818572879182,8.12927130021506,-3.747369340227839,-4.309948652240194,-2.101351537967819,3.099755170432479,16.618227375632678,21.021041392885405,9.158674588636789,1.4495095925510677,1.8548040109784476,-0.1944415099007475,4.708140199176111,19.95132202813903,27.154803099335748,25.020157466729398,23.422195567349885,12.27302568853106,-8.743981211815075,-16.559392552717448,-9.009532850819072,-2.285638970998471,5.111538675331804,12.483615644578421,5.223318746513238,-9.215987191577298,-12.853562825021186,-14.210610593821476,-19.983509937289675,-15.955633806019334,-6.204281515003236,-7.073158288187605,-9.717287403725958,-6.74790548448077,-11.121172965762254,-18.3526546288907,-14.168668172989506,-9.917480754903456,-12.773784708624778,-7.708035861321718,1.7581577869053078,-0.09369092374918653,-4.14403993765228,-1.520466946605449,-1.6849807429303993,-0.5610055873415882,9.841208926537183,13.221891188794006,1.8554023112133926,-6.62799482844134,-9.02312490233045,-14.498819094444697,-14.685161663793997,-7.379129737681493,-8.103521903123895,-13.584670684504182,-10.548360357219284,-8.409405183843765,-12.094396811312954,-7.660090194220469,-0.6477477773395992,-6.445692205677766,-13.91220206045623,-13.502385260043276,-15.3782165999996,-14.488120599213016,-0.49375626742794587,11.090654845502462,10.69853657089445,11.263276387242776,10.512995139380983,-1.4339820719625251,-10.53932616512691,-7.566185682527293,-4.37699636487397,1.178268563469992,16.573659384631554,24.573982408775983,14.811128180465458,1.8664454058138424,-10.519845769206547,-24.474801318654418,-23.78079123398545,-7.221334626726781,1.5152612490590316,-0.12246644063041545,1.1788527888719988,-0.051932013272448896,-6.1128217761434565,-4.232090732721973,-0.34453036550218386,-7.530524283395656,-10.284557889820423,3.4498443887827923,17.179094326008666,25.41830367422741,32.83907417153826,25.543432733039264,5.440813423080852,0.9869873971207397,13.061230717240665,20.035971851596123,21.66917609099679,17.58648585244537,-2.602941016798219,-21.020995946825757,-14.865108089122032,0.9725819041397328,10.430810272135503,18.413753803548005,16.890975213307733,-0.548898898526673,-9.906091468248515,3.096051829725843,22.84764800498134,43.33004190763583,68.1309224749348,86.73858757647591,100.32943915345294,127.58045283876552,161.96076958813353,182.82945956107932,195.4379464079466,205.7719012887673,203.46593301587234,193.67979457544857,183.33320692652597,155.90220941956616,111.3378217543137,74.80792102317494,48.6953291787143,23.550525350453697,6.766196777335836,-9.978235416880663,-47.068197540282256,-91.07727381028046,-120.22920195242342,-140.2893352756126,-152.25572901340314,-147.9424644810332,-144.39322174193296,-157.45112415659082,-171.1780746321736,-178.28953495958183,-190.70818264489785,-198.37955548048325,-187.5404941526399,-173.62548167857418,-165.22589179923912,-153.1841931750012,-148.79358834872147,-162.2113266665125,-168.94952693550485,-154.16791924083722,-134.00344310413544,-113.83055516248419,-93.44688877573725,-90.21749935737974,-101.7602939129151,-100.09594926912573,-84.53302542633043,-73.07747836103898,-62.263297908834275,-52.906558623060604,-58.135253039455144,-63.94285281809492,-53.073321403189226,-41.612291015127965,-37.95534247697552,-28.741571951311382,-19.78620642751407,-19.448823908186455,-12.555176547474593,-0.45110437274890947,-2.9419827314816995,-11.291092616794959,-8.190886630377962,-1.7425323469606768,6.086323112345205,24.359276250004616,38.51699581755118,34.61026750879931,28.459887434325886,27.626836475231343,22.34394040421539,22.029541774746413,35.20350438139455,43.92737281704319,43.10337867957351,46.32710598399847,47.40889722675614,39.82216522671876,40.0063920733106,48.64387798074493,49.08588383364229,48.58725660389053,58.01553352176089,64.23511515286631,63.85984708928414,67.79741941388795,66.01692250244373,49.52515236380206,38.35394471423196,42.19747562613295,49.19919487047602,61.21736829824011,76.12361972952338,70.71411753854804,48.15851274371845,39.70086373102704,49.132383301446474,62.146062884614764,78.2563873382051,85.57894225677342,67.48648393188728,44.36907082671185,40.5379470479532,44.16352250624068,45.90415187708807,53.145813856753975,57.088482690671285,50.17750502542633,47.61540426362699,51.4515020768001,47.39486678808335,41.551545765941746,43.80360278180833,45.337464862406705,47.475219558322074,60.04956916555986,69.63656015811308,62.657983452797154,49.7099442292621,35.58919571407204,17.99702231000734,13.592413388239617,29.2780272956501,42.34852621586996,42.964983268770204,40.81172375436378,32.6729253718385,19.43201949944978,19.722508480715003,31.61666861372698,35.63993277092165,36.56475129676555,43.1208724219687,41.69763297778527,31.58589958617217,26.436994711116927,18.333396115767954,2.208246812137826,-3.2196295233018404,3.088901655645508,4.928864832534833,7.204309568339113,13.99840766214309,10.703743853170302,0.6065919211257782,-0.3624009078857744,1.073949616946354,-2.2493883342888648,0.5085855010583631,5.749137101265484,-0.4120266658577467,-8.024845850652387,-6.476410800617144,-7.176185253627271,-10.473558920135233,-6.2862036055923465,-5.322327595358928,-13.895414761600117,-16.32685028935365,-13.836131790513479,-20.468798614674952,-25.665685998310103,-18.39217437105696,-9.908520417067548,-2.8820591997206186,5.023568157077412,-2.7424219990758494,-27.561670164918507,-41.70360085425659,-37.16954336165351,-28.337055577968805,-15.324158648446858,-1.0365422735632723,-2.1545838199173266,-12.208503146709532,-12.527096882101752,-11.84685185498738,-19.539281655000725,-22.312505505011735,-20.548521567274953,-26.748689561345493,-30.502766714861554,-23.312518851394113,-19.91976628686612,-20.55895813109888,-12.521331399892318,-6.521318484674435,-11.521861021448235,-13.107153353515015,-11.511940096068564,-18.763993751682364,-24.29499135039178,-20.886986908424976,-21.43127628826271,-22.611937009286535,-12.574706456665389,-4.898362498730582,-10.911778664959215,-18.76744259284148,-26.18299032871475,-37.59873602938241,-40.72227256606922,-33.88325529161627,-34.29380083803451,-38.76467266730048,-31.675667160120746,-21.056382620337246,-16.32725656266505,-9.340251812133538,-5.153558243424413,-13.600475709511977,-19.19667279005454,-13.98334376124344,-14.009643541119743,-16.14419566260329,-5.43160730786842,6.341399843170379,8.425044485266993,10.259181706500181,7.184582665891005,-9.01748897740598,-21.3374987687089,-22.035561231490114,-26.52023032800613,-32.41083182725424,-27.564741322318323,-22.332489298523207,-23.136234166030174,-19.960547199920246,-19.354209597601983,-30.56395092160993,-36.93150283395514,-30.786262369747835,-27.766622107603297,-26.864598221637497,-18.868699411335637,-15.913752887036837,-20.90265163255063,-17.02348910892809,-8.447225405776082,-9.511652635278908,-10.772737461412355,-7.903902837492719,-14.229487426513485,-21.876926425122416,-15.48360963950535,-8.462486315667864,-10.928079485028897,-11.02157714184265,-11.844102078199485,-21.735031208502427,-24.34098289557461,-13.704677717639019,-8.35929214652008,-8.622151964273861,-4.363509386112742,-6.271402737427064,-16.79519726154259,-19.256763308922835,-16.541437405989086,-19.924931757703405,-17.378909562822635,-4.5415458031459215,0.11255051594298854,-4.795094220012462,-6.831992664996266,-10.863872129219988,-16.10069891478989,-6.771780547000365,9.258059049771644,13.481714696785401,13.944945384148438,17.3144806359704,12.6310449325686,5.106242993373195,5.303534677440575,1.28766644312539,-8.92146096632109,-6.824224923045623,4.085731988632027,8.605194164724256,13.91282687136436620.94473934841842,13.934425292515716,0.5294318560869544,-1.9777850783462223,-2.35178487552726,-4.916061741047647,3.9016667784417653,16.641000722037802,17.44046728121878,15.119116042754385,14.50395493344027,6.163819808353294,-0.28887357247834644,6.6772122558372455,12.575167832293353,11.07410689909084,15.981203660245427,23.832502771112882,23.373455608305985,23.41130216484249,25.041897856686738,15.309957514271662,4.312661749799534,7.163723828110182,11.775659139238044,11.817736342891845,18.64559497131743,25.440038813466302,20.55716908941063,15.41444874797645,14.047763550373215,5.6104647605025315,-0.3641029772533868,7.162667453218406,12.166125936601132,8.135345740068818,8.592454536674289,9.607333484223908,4.240888034109131,6.790934804874982,17.021843137974194,15.42630261173932,5.869052414153847,1.8807495493317468,-3.444025961221455,-8.197001503354516,2.9615791812106167,18.277590578692834,17.57541235163527,10.242383293682746,5.134812197838082,-3.210610214402157,-3.440807134311047,11.688884386944691,20.530567308767342,15.552804706917307,13.291220164058085,12.583367942243425,6.532279459782022,7.640244186922219,15.63017400836987,14.398966595703683,10.862397437391493,14.138109164845414,8.55000203932404,-5.082422381626014,-4.514578845999346,6.44676009938474,12.564997356287266,17.965960631572763,18.557749624640234,3.7760328257112104,-9.01980864945395,-4.0143296176647825,3.6535360237454615,6.562475831718334,13.631243037059031,17.11806875016644,10.001596011776638,6.127434660056427,6.834812191420514,-0.16733053491789063,-5.2759235768171955,2.354570079307433,8.353109688444315,7.8996019759056235,12.30351536976262,13.27872838290651,1.584428951512272,-6.062583192846806,-2.3982174834193284,-0.24559429922092313,2.937871765655821,12.464748985072061,13.640020836785023,5.50781457057364,4.267020820549123,3.424897358494295,-7.715713260015601,-14.829062579928312,-12.261167659481645,-11.415687067277506,-7.76844292442656,1.9227898899496165,1.3629550280845084,-6.933031669494317,-3.726287229946017,3.541897254993275,1.7543526969654715,1.5968339746058686,4.795659837528717,0.6219138268440041,-0.9317348447591811,7.347961482730751,7.946197429385664,-0.937731826535261,-1.9075930163011936,0.7016126345353785,-2.8923156978165316,-1.5285464982913035,4.836838622871536,1.3666498950262485,-4.003440236168537,0.18752075146557212,-0.31858984463629825,-10.289413776300345,-15.20690031916398,-17.730351383804177,-22.62778322083472,-15.464916033511086,-0.3942375283250472,0.24057234040368902,-8.606339259114897,-11.6608951640963,-13.487092924284621,-11.786951778079379,2.290901620818273,12.331036566580028,4.622674019045684,-4.468101920723319,-8.431520371942725,-17.5338778520668,-21.543229340123794,-11.037339716566189,-3.2657172781666954,-4.565934359799938,-4.989784626969309,-11.877957260882686,-27.508903015821836,-31.02647453764766,-21.783618309463655,-18.711907765100502,-16.904622448436374,-7.473232369913212,-2.3222012075942073,-1.9039511146315904,3.224791594662105,1.8879157830866655,-10.08078113867843,-12.018700381616043,-2.582287475901291,-0.24851599667405966,-0.5914485041928286,5.061407603579852,5.089840889464925,1.180685657559598,5.6090214349577705,5.990515440187921,-5.114942878321804,-7.636186477466066,0.87081207292628,2.1833651837971964,-1.253332970438391,-3.2360263896312844,-13.140701892714025,-21.823499388806972,-10.680759325330314,6.205097861056778,10.523430005463517,11.337570049623123,10.459996695403113,-0.7317519866366178,-8.173088014409329,-1.6587175699496446,2.5908459361872835,2.5437038836427543,10.14284928404852,14.935590347068628,8.594105171238908,5.033331412014626,5.221775884459433,0.211696678245076,0.14659182309060725,8.296218191874269,8.930054482727307,4.665805579817739,7.376850037877299,6.93783681072081,0.4575499719293252,3.708210658835795,10.875319239785178,7.542397972283476,4.439826847322547,5.18949993397275,-4.4254665525152586,-15.062453925916136,-10.034751046254359,-2.8208396324422633,-2.9217922951644892,1.680166719440913,5.183869726330811,-4.224389070414283,-10.071943174461975,-1.8431154944656591,5.230522768028117,10.415668240006795,22.69244433300591,27.31572796509183,16.84964379759705,9.233511426089947,4.785376844730287,-7.029941199456033,-11.220807841297535,0.46064912504913735,10.366883877571635,14.956557555348914,19.110362634256226,8.931887319259825,-13.735699195332801,-22.307821346587804,-14.99538774084768,-7.6897932349203,3.034557667379621,15.000142470116744,11.471510600686356,1.2788710155664686,4.183439721698521,10.863775147004029,11.364094163490215,14.304843986365533,12.110176705236302,-5.363396854671913,-16.989583732681847,-9.0326905569073,1.3953360339156564,7.059775589085849,11.789332079452869,5.186693738931888,-10.619853878385602,-14.290525812395558,-9.119905950760046,-11.816944483573899,-12.526013422612355,-3.148561148918276,2.6829472887536236,5.19266874510444,11.18995494797238,7.216257048041884,-8.066309541578402,-14.28984853719307,-11.847320561660004,-12.632634599683978,-7.504761851748163,5.626443509654125,9.77263420816112,7.171517765671732,9.338144333255958,6.5568335844211445,-2.558393499541707,-1.9377280829102221,3.493504202372657,1.8861886497281524,4.459719392898301,14.107164752344886,15.29405025372407,11.748789115476189,15.139715036279272,14.449016963916458,4.43059615021592,-0.29576060853565267,-0.5135791245127125,-4.948947897207099,-2.780693566771753,5.611305116179871,-0.02651278534324497,-13.065303278588232,-12.165428542621406,-3.5440946206631345,5.531779440720796,20.069198714842265,25.32006054216984,10.062654515048973,-4.446983172561226,-8.147833655027386,-14.731245164334043,-18.58545387947548,-8.894135143208558,-0.1295358113351024,1.06021203899047,4.8869290717436265,3.922419480833994,-8.85012749407568,-14.925136502293292,-8.301609786126285,-5.181740414545669,-2.6638962325234647,9.02835366196901,15.460947783860917,10.027505424244655,6.624900187519588,2.4558517241797446,-9.0881995478855,-11.102690053450583,-0.3426965581290933,3.4639762643058827,2.4982861979449646,8.19931644528601,8.71491247426489,0.4117483079154969,-2.256306978993627,-4.050251703034571,-13.829020262887386,-15.34287187996101,-3.14856486415668,4.089339121707886,5.563517820013367,9.685479855009971,5.296938065010901,-6.0409402172786395,-4.421732739054528,4.7339756480941375,5.95583271066453,7.121573920462055,10.71166060416199,5.38439603951378,-0.8665461735661655,2.640398856607095,2.8366877117249816,-3.92734695758839,-2.6944441396978096,1.1005752269716853,-5.077044426163363,-9.144782464621967,-6.064193069660598,-7.976394282225226,-7.48877400074878,3.2160496135160623,4.794352508795164,-8.205450381562338,-17.100492071777847,-21.46614208557434,-27.82427479430854,-24.294007920246287,-11.89724030742293,-7.698550619155418,-6.639038365264345,1.0183733213107669,1.402132314702266,-9.381536573813912,-14.929580111744121,-15.622773667588222,-18.18304358355408,-11.342128315152848,2.1107050218299888,1.5772920909276644,-7.900012981867093,-11.017848877447783,-14.71020213118978,-17.923904751236137,-8.165435898199302,1.1929108968130362,-4.414424833633127,-11.41302381238467,-14.647503159905074,-22.147097220181834,-22.2750916723759,-7.691896015674626,2.285330672188335,0.3772855288708019,-0.9095792429713281,-3.1034348078144838,-9.461054557015208,-6.436529211576994,4.119177451315501,3.4693616800715033,-3.2542771811085855,-1.8166522268775425,0.02062902982425277,-0.5659326665799155,5.092251081796243,7.499631426400853,-0.09767759759201988,-0.9644562489384474,7.7950072014184535,12.047142935273772,16.010759125952813,24.281549394176846,22.339853758994177,10.972102159142405,4.7900404777344985-2.084477581790946,-12.026081384303152,-7.064110811790025,9.421386580580492,16.812818380226997,18.15506950163807,19.918496087790842,12.619888098695352,3.4207866498805095,8.22923700946259,14.566010134198686,8.848505660909602,4.2907723978608,6.17014658003798,5.654988161319375,10.85815863512591,25.449921903430408,28.438637962757205,16.050548367889537,7.581419485954802,3.626174404869793,-1.1137301606665662,4.582300468959404,16.308471676491976,15.79934494297311,10.040515689422687,11.047993440135476,9.040190755238397,3.640660045987908,6.462515378136769,7.825751625061072,-0.8540028719357058,-3.9328401728651263,1.1524411369965963,1.0030892865622252,1.2569363102987032,7.082781149292601,3.598360655069446,-8.231458141230034,-11.051094187296023,-9.379055124476054,-11.046370229922346,-4.38771159644962,6.528253429628679,3.2743794761460676,-5.641595626142099,-4.18699322239101,0.993436514519774,7.259303574367368,19.82238092669057,23.368586666420143,7.519738173731966,-7.100788251541421,-8.79845704958322,-7.7691272071135185,-2.5275654071326925,6.8500523034202185,1.9848557874643231,-15.622141252647038,-24.393054723357846,-24.419649364348654,-22.006279920956786,-9.104284328950015,4.488418220903478,-1.2262019315240242,-15.924873806130575,-23.55191098171896,-27.78832082371734,-22.44669342054087,0.12454276641874795,18.628210477443037,17.525174872655743,11.124107983784643,6.274547700088924,-1.0033382305974086,0.08518482593644339,10.824701031298924,11.921130670164882,5.491986028603224,9.378655811142288,16.324140166557022,17.030016541946264,24.10968684910617,39.63259178242329,56.02869161360303,84.14487173769483,126.59744420962318,160.98050845795217,179.9730956157305,194.96989507854317,202.6715733736125,199.73525924926406,198.70308029137792,195.17204724174718,169.7783128486965,127.32714557624371,83.1144248925357,40.812825196449765,13.555946529338142,11.045437032093968,8.53007947891566,-17.257243168543223,-55.51403442470958,-91.7336065728242,-119.0527653711629,-125.71483444115759,-119.23968524913676,-128.66130840651687,-155.57876979326434,-175.60457615147016,-183.62153560096792,-183.99971647063578,-172.94009702679872,-163.6477443285998,-172.9519292791322,-185.68220638803825,-186.59541894381337,-186.7735569301328,-185.46769758646775,-169.3551104399021,-148.45357218969028,-133.6528415889669,-116.68617095107513,-104.64144281689424,-111.59002626277855,-120.63739836274281,-114.92979349557007,-105.38636744501771,-94.80755098226379,-76.9587792611685,-65.13785171641592,-65.32272547027475,-62.4587345763809,-58.2415647463135,-62.27414180408284,-60.303958940901595,-44.94200729926253,-32.28734091859336,-23.529510380880797,-10.113664682564329,-3.438081820988111,-6.719550981183192,-3.2974340835156926,3.1989121214065013,-0.1186129661679085,0.09748305052211592,11.936579230618943,21.040173243758662,29.13280199935509,45.04608440358204,53.64164703590793,47.70818678636401,44.04877278960126,44.466124654357614,40.302972161754376,42.103245774626664,52.62620279567091,54.493445126490286,49.847131144140064,52.26679267215586,52.261810597821324,45.275210544117044,46.404161969800924,52.11753295655179,49.610824521507645,49.27886116405631,56.128878838530305,55.68270850244828,52.13996781958113,59.453540018118986,66.6850472276344,66.98444792560629,72.9394626740141,77.16005309464455,66.18935365405922,56.340922219372544,57.22370493600914,55.09244353147824,54.07194658658135,64.5572144178799,72.5077229986053,72.17365928289956,75.52600346444169,74.58586794623187,58.60467251909631,46.0402409877297,48.28934527603032,51.9451984253862,57.043559245135164,68.89648028665434,71.18052548765641,60.37091587529819,54.70527854773157,51.876319875503405,41.759248733908855,36.44932066523784,39.08389057768895,35.47072455829245,31.609067319080545,39.05066824296316,45.395251859014124,45.18477819216346,48.760497227508566,47.0575069153395,29.73063940459874,15.162345774661091,12.912462838987997,10.170172412756326,12.274298830911963,27.951666484995346,38.95553763285086,38.13010821959923,39.07225406938608,34.2198644814356,13.513672439529335,-2.0452916835392716,0.4956421796790327,6.6051365048493,13.068246930638374,22.638478499502423,19.429932929769002,3.1838350856361153,-2.8398832974030723,0.9510968880700961,0.7038387161158067,4.277042187084436,13.065562860331804,12.549468732129524,7.873987671216124,9.104881111988533,5.995859395246967,-0.6700937189879097,3.8320519682721623,10.156344943776974,3.9621569293290575,-3.1566223272155245,-5.104004715206853,-11.670314321893972,-15.515536457576035,-6.843985011427896,0.3407063003144015,0.5102406818724436,4.475446158869307,1.919970400071719,-16.708560738577077,-27.83527891703481,-19.71698597336095,-9.901409929907015,-2.7896163740126623,2.6296070454044456,-6.87599122728335,-24.218936742301704,-27.171149908567504,-24.743263214285477,-32.528243390254474,-35.80132824357874,-26.402580111228996,-17.505217547294556,-8.355226363900186,2.78340304368286,-2.003554727766676,-21.564913872136263,-31.579054166460384,-30.710993533790074,-29.58621686715632,-21.385226263982524,-10.268097464683192,-14.904968409661455,-28.225869906904,-33.9029878935595,-38.33862125666387,-41.6995454148195,-32.550777693321706,-22.26275727873944,-23.712605651363916,-24.065062035549744,-20.080464223993154,-24.371232254926728,-29.157857752562542,-24.489916372261945,-23.96138927096792,-30.00999596142661,-28.061972296007696,-24.249891538277403,-28.350134515522896,-26.979018115658025,-18.02256536431364,-17.338112870701405,-20.193413150233333,-16.697809074585933,-17.86617612586478,-23.014698466123832,-18.23960655808998,-13.982866936908708,-22.103928956523294,-28.472174072200247,-28.69722213151601,-34.069014113361675,-37.185768912697384,-30.49025952374592,-27.963310144822636,-29.754159676864816,-22.061949436738793,-15.828158687929854,-23.47103761661018,-28.647175138852745,-22.449611756959506,-15.02020020294529,-3.2461210622772168,12.712409755015564,11.30405747096499,-6.756990152977616,-15.13664340648667,-12.498230027012053,-9.986741055271551,-0.8445836178336168,8.253776750124127,-1.1193669376423436,-16.97058818268785,-22.089382635213088,-25.66603429720841,-28.269422300410323,-19.010607185596577,-11.674494136613287,-19.549663945093762,-27.18428732859422,-27.000362503857488,-27.406897357131562,-21.239787407287835,-4.685735835586412,3.613590381731642,0.8589329544488538,2.8698761003377316,5.063474497541889,0.2720685392022104,1.9447242613092928,9.775173702347908,9.862082042361287,10.086284377180169,16.82389399447035,13.876519013770999,0.7730999421014202,-6.0180365553835475,-9.695521319491334,-15.361393854393981,-11.152771354875618,-1.4116259865280907,-3.079704570417003,-7.082063186153035,-1.012995524409634,1.9172270451333564,-2.572286790554484,-2.478607126067346,-3.5985427008138435,-11.310649760935666,-10.250975537197984,-1.899195723255242,-3.2136104953179476,-5.291459554608603,4.31626804100806,13.696900832569257,19.215996708293652,27.35619361210277,25.610200684580974,9.666292421283474,0.6376030625580682,2.406550145438445,1.6332384307881327,4.044510524449147,13.128973916244709,12.655026007319224,3.986142332429889,3.9572121466696943,7.309252358886802,5.774064438889454,9.073921021284916,13.403750574997344,6.18495062729705,0.34925764407679694,6.970675886600847,12.147772364863226,12.813777566549739,17.158754460822937,16.09043936643142,6.226522192480225,1.384378708568242,-1.4578564855480254,-10.632412185267967,-9.760189694142431,7.617691621709418,19.506279454183485,19.308511383436908,17.68144110410412,10.225420930197782,-1.3150732860979373,0.6980485838671306,9.616332402209602,7.207196598279296,5.385539123479425,15.03073462870775520.191540257212928,18.23692867547135,19.76581953418103,15.5933907042722,3.661492988191102,2.147626450089576,7.6189235485739495,4.452426947210606,2.1562802072586735,7.460185402282389,6.42840534667862,3.033722427834012,11.527332205941827,19.46617939454174,17.19607142025284,17.714354137692506,18.189624962821068,9.27421903129639,8.477824336492665,23.64489559854518,33.83795313227544,34.2179548100853,33.995734732973425,24.17476339224248,4.497081646531242,-4.112791684875066,-1.7569014174726207,-3.092402063727861,-0.7757594012604552,8.47003225902955,7.28162816977426,-2.1707968615310613,-3.5814179568632545,-3.5184750488512306,-7.208080876429064,-3.069055987746171,1.9147910578497893,-5.0896200414288515,-10.082910924407757,-5.389352347789469,-5.037829332647902,-5.991100663591524,2.792513983811083,9.68766663798303,8.996278358304794,12.654680083806456,14.748443464230377,4.823549106842659,-2.0952097968038856,1.0786679788241647,-0.742893253443154,-5.7693644997323945,-3.7813272899490222,-6.108614885626625,-15.883176489809172,-16.315709376181516,-10.329857960975943,-10.469960894247745,-6.607438630856627,3.1408618006271745,0.6688821439363863,-9.200687080913463,-9.960848033595754,-10.080286187600086,-13.976243627333911,-8.97103999845168,-2.690121126880364,-8.809564876165464,-14.44462684440402,-12.07219987741428,-14.242330416001334,-16.720009837450213,-8.317137692438559,-1.5315966785946677,-3.226741408086862,-1.2314646663529443,0.7557228971291294,-5.785793009575203,-6.5552639017793854,3.136347184795473,6.192551413097398,4.08886166746085,7.459657255419256,4.405968004094936,-8.115150567210444,-12.439718026315974,-11.181633829118304,-15.769772323760735,-15.293793774986362,-7.494661559420015,-7.737429194713563,-9.797471489412613,-0.29910255003299735,8.08738552944121,6.202322455923575,3.279687147379639,-3.2082093511857135,-15.872533275190852,-16.698900098046146,-2.085060020147426,8.14522506726745,11.387261994922135,15.655530417393125,12.168643864252104,2.2746454142759953,3.5419374995210857,9.580459607126661,5.524460765911277,2.719723379016484,6.166715316282446,1.983706674322712,-3.2116078051810373,3.212462768167758,6.829390362193203,0.39739317630392623,-1.4649664893938126,-2.239791740436548,-11.931975683960193,-14.447494683063969,-1.93855266141348,8.714978473967195,15.15820694090786,22.381260664110634,17.11495240402742,0.5534727167178124,-5.2413462910397275,-1.8483236348626322,-2.8262253924980403,0.3491442974482988,10.408765557827879,14.044987463204729,15.650129629857421,21.47681838492977,15.798892013394873,-1.438870450331578,-7.671254465562581,-3.0175592442210974,0.031037532543005508,8.415490826697203,19.18097561208326,13.683196747722256,0.5477456173731401,-0.6922129855011081,3.1686615628328596,7.602933968749577,20.863876298091345,28.57630324393323,14.886741569798533,-1.9715590144907824,-7.5149446292986575,-10.022439922124446,-5.622687402494553,9.59169513348622,17.542166230613937,14.52382585385937,15.677031628804805,16.09970827586967,7.764744684011409,5.222158144840726,11.370620693445117,10.934680064120576,7.303990349169587,7.358287123366617,-0.7368894477556855,-12.821794443028685,-9.712864186257788,-0.09886725782546657,-0.20352396179955123,-1.69043681639787,-2.2629406322345993,-11.34432209706946,-17.99537223124402,-12.47427455781429,-9.659476501863143,-11.730013324962965,-3.4798720365029343,7.774246857278338,8.24506689089259,7.244992559159688,8.23617809168522,2.7658978713664624,1.1897593996837141,10.203524933112952,10.274306505128173,-2.4777766932447527,-9.533418157986961,-12.688553877691321,-20.01202463031715,-19.38134379900371,-11.513794999004581,-12.51143627470683,-15.388867965248208,-11.675878847039353,-16.91503740889707,-30.27979203122535,-30.911316478596007,-22.292609292087477,-17.062400933340733,-8.787029847692098,-0.0945926487499178,-3.265658862322828,-7.056384721630836,-0.7985501234195569,0.05733313583131128,-8.243120871252797,-10.427778775948102,-9.826539210023004,-14.12488142981769,-12.228948564411331,-5.895663947181273,-8.316884728909654,-8.01585468800577,4.632497683138106,11.663227218379326,7.047041835500981,2.7562901073639523,-4.618068037064893,-15.442927034435476,-12.233489358898328,1.1426155640667357,3.9176585285486376,0.9607299030614567,1.881632056642181,-3.272325121845931,-11.064166359070244,-8.745096197106188,-7.024785355670046,-12.607677033008201,-10.247946027827084,-1.2067997569283677,-0.3951812258870151,-0.6331263721468902,5.561328741681671,5.539773689530319,0.6520336389752137,4.029754625653471,7.250986927156929,4.981144298220622,12.348172119286357,24.72544028410892,22.47490246381767,12.512880944067621,6.6325103630946,-2.133806448117482,-8.154856056093445,0.6171465591631167,8.66942111422786,4.061412914612995,2.068403881331896,4.7903805414614204,1.7645653120497713,3.9283480136257456,16.362338881114656,20.928209026622064,16.971726598190468,17.505802737476444,14.482016611354119,3.850648740437821,1.6748278251872675,5.150128948159762,-0.6602839045721423,-4.852410409526506,1.845667057446513,5.5122896812897535,6.4112118142134555,14.428809408601216,16.1485490148336,4.337750527865348,-3.3430671253937145,-4.824375180293467,-12.014203219695608,-15.986558595132124,-10.1474972688071,-8.124249914243563,-7.68404861890818,3.259137048471534,11.319801313604463,6.074255940943189,1.7100452774572021,-0.9931923016676643,-11.69506156817447,-17.732887219869998,-12.341640077683383,-11.111504691483121,-11.985959294052435,-3.028981449996814,2.334333497414042,-3.8754303704759203,-5.641853924699262,-3.3713289486726925,-8.532087631580993,-10.129560385587538,-2.161567951569299,1.0773747363002641,1.6436418527765673,9.703452294555838,12.857317319900524,6.013631267544998,6.180293283793556,11.916335440727446,8.811393353602366,4.112783050329916,3.0396252292379216,-5.27788904848129,-13.437577652462496,-6.903658503140127,1.706611168568167,2.170769909863941,6.679607449686321,12.305364246254495,5.720389953046306,-1.5175357638822178,0.49344140407518067,-0.7540050279434212,-4.467520535760818,-0.021413697150872046,0.9352600119633461,-8.527749224894848,-11.643300131250399,-7.008373841337188,-6.872169707018656,-2.6392172255242583,9.404090385372703,11.275622049987215,3.953885854387548,1.76055716620556,-2.8187560248332586,-11.841140819063295,-8.237770992443497,3.2582216327705873,6.379893519837407,9.128600910317887,15.063717506685885,9.915691311161916,-0.3820597474116836,-1.5593112084122243,-3.5384503991921874,-9.692007719154033,-4.3536373217544675,7.022077581700151,8.184648942607154,6.727148073899476,7.93722966528242,1.2764680989499237,-5.217186476722746,1.9194299290473475,8.358833412766911,4.666860482362961,4.024072796682993,3.6637946767160945,-6.769718833926468,-13.198806269281091,-7.723862318814588,-4.34121950035448,-1.5786268886397654,8.979528920729363,13.27615865251053,6.381222476480261,5.357155300924436,8.55456277857698,3.700647877001739,0.3772229131896887,2.647816398060902,-2.5733788064754513,-8.592708315497067,-2.7589697594149802,1.4614532590260287,-3.151749610104477,-3.817030010716108,-3.6999154086423864,-10.35502316334998,-9.049946446171107,3.956526597012457,10.319422692000447,9.70460752808093,10.760640653695324,2.804647864282944,-12.331376486859082,-13.312150818380129,-3.692352412599665,1.5124674388193984,9.622256581929022,20.152473644976403,17.32305733757506,8.554112213203105,7.095996346528945,1.0522164045119902,-11.240620240031388,-10.784624285487858,-2.2410560787363134,-1.2813341736171002,1.103788941986835,7.229355096819208,2.468802848678628,-4.543814136423084,0.6695827365975289,5.338237918503227,3.839990620300292,8.323833026883134,10.648725740457829-0.4784454179902218,-8.296083496620513,-4.175648959818594,-2.062671447377933,-0.6629122769546142,6.059008775420562,4.569212967364464,-4.5732775109696,-1.8840475095936542,7.520619863656343,7.018813253259484,4.055061556562491,4.110159784197046,-1.7063505301726236,-4.896084618534526,4.423695536396394,9.193350822465373,0.8396830801866724,-5.949529989568594,-10.388568069155617,-17.880816200551106,-16.395631863148687,-6.8178952878528865,-7.001532325284999,-13.651169054301482,-15.837582899929274,-19.939303481292256,-23.06384641052625,-12.3468446654188,1.3024918670842838,2.3928760944146705,-0.4848625919354763,-2.3900657065029987,-9.716979307780557,-11.297562069918536,1.9708455843660708,12.14563481258079,11.291899246470104,11.598737687616183,7.911102580746402,-7.000820011622607,-16.30333634322482,-14.979620390182301,-17.272527710081917,-18.13036506762851,-10.259356441786451,-9.669923319696759,-18.611365436113708,-19.552308969260057,-15.298325456783418,-15.19862589064726,-9.42738653161025,0.999507363825316,1.2462280514796726,-1.2394430974787782,4.241327947437104,4.81048505458483,-1.8487136401211268,-0.6967442845359331,3.8724179549118194,2.782413039585083,6.653548571242482,14.548260613605331,12.466711482847419,11.104685383031716,25.036697374357537,43.39740632163473,63.68380039212235,98.16889001365296,136.81299716375622,164.27058921262142,187.32860288082958,205.48184951687514,206.9083255915308,200.7298981793604,197.6767809583756,186.37104421767782,166.9193725133259,155.23865350736818,145.44821416835634,124.36392905625145,97.25690688356208,63.89549489510382,21.01456265855464,-10.971183529798909,-20.262913885552447,-30.234498429923292,-54.2617971132295,-80.28964610928833,-108.03971070103748,-136.90467702232624,-148.25759036183533,-146.47896804386127,-155.78585363998613,-170.01656426381237,-174.17284732530686,-179.8488949148781,-189.29883767112227,-188.2887307678909,-186.52051638518597,-195.87968771365072,-200.97997143567102,-198.62998752279597,-203.14284715340386,-205.81712387202376,-194.71188481029742,-181.99431582107542,-171.2353058446796,-154.40663717505532,-144.60471091327645,-151.25614741631534,-154.88793048611254,-146.3086015801011,-134.64134325280116,-114.70753861318457,-86.78150396195454,-73.44942812243386,-77.45685634532182,-79.65522353506054,-79.39645013249297,-79.22415652754806,-66.23853461560091,-46.157147737777905,-38.25793135555522,-35.00396730131195,-24.584843719853907,-18.002744966826743,-16.371493568795227,-8.443437299228778,-2.0770324720222266,-2.1475407406268885,7.188912163970855,23.37390478746748,27.327970413496992,25.19477005347135,29.457279695968996,33.64781440247515,41.03714408244548,60.19098832731445,73.91988100018072,69.78279870955991,64.43626431355794,64.27348769536341,60.35130388112357,60.776396163958296,70.3266995780336,73.43507359893627,71.00169801367565,77.38347423464735,84.45817318157975,84.49397263893263,89.52456117432764,95.91305928270843,89.23487352248982,80.76328179014462,82.41244676967312,83.3773236605738,84.06386385711966,93.75939169278382,98.71156545860961,89.76863147554158,82.42707808847192,78.89563464367224,70.62879479714442,70.99593560677337,86.05900875342371,94.52990385984025,90.56082689753302,85.88270705114304,75.5704994608226,58.96838602066979,54.34672348688653,60.560021765588914,61.808852249330805,65.16803799589583,75.97199215321905,77.07406904063802,68.3538285802807,65.71013553396737,64.50974672566046,59.8528862883258,62.34055216469178,65.90125499779974,57.32517145900012,48.575189906203434,48.8216218559596,45.589057106145916,40.818298009216285,47.4544583972197,55.71805747426156,56.0988443408043,57.65546188877445,56.04610302606785,41.38652640984722,29.11934491847247,30.586554193821648,33.42926509757571,36.123255017685466,44.95098019716577,46.011533057084144,33.417986695521165,25.411165017351987,24.69042143658458,21.216217465877733,22.187365585625436,26.24496234423383,16.717003873073352,4.243750686040771,10.403329599508043,23.31258003695245,27.53505505492704,28.615063977994822,20.42249918576428,-2.2115572111232638,-13.77966068107693,-2.6491391489615905,7.558467981119605,9.135006437849725,11.415482067516844,5.390562075564397,-9.388333125404209,-12.650458814594701,-7.986891514893443,-12.25810631024249,-14.961319472577811,-8.057047200704236,-6.353627912179876,-9.547727244328016,-7.61219915250177,-11.265776823474486,-23.37699375795369,-26.35172140886636,-22.63425790102945,-24.975489842108,-22.648246226548373,-12.25675084634733,-10.317366013086932,-14.032102041540117,-12.928445541696696,-18.12984289082206,-31.205386995143165,-35.17680731701695,-34.79988402793008,-43.930158293710825,-50.184089177746856,-45.5916362567551,-44.611914438183646,-45.601518481128174,-37.05855189602822,-30.58277914912867,-32.76839081256102,-29.993743736860324,-27.10918733262683,-37.159713202121885,-45.753426195098385,-41.54140459624794,-35.522247493930124,-27.174780291924705,-12.3744116326572,-8.307858727896765,-19.235968092185658,-24.817930175189268,-24.135613805028132,-29.188813733401055,-30.94727630257419,-26.14943355563082,-29.264114602481545,-34.521593710933445,-29.291042189842344,-27.21867608913556,-35.08543152281273,-37.258522533282665,-34.61496229649364,-37.46415946268388,-36.450433512442416,-29.37768826667607,-30.182826753397325,-33.90098481027035,-30.35898807392668,-30.44163787655607,-35.11377353887753,-30.092488991408107,-22.43134761368504,-23.94588623422477,-23.504372734459512,-18.36039811237235,-20.79508180708467,-23.623091109346774,-18.85858856777162,-21.63244968513527,-31.89104441355999,-29.97667956432878,-20.31595902498575,-16.447959477663954,-10.836371942870844,-5.359953888821162,-15.730221812914106,-31.92307434175897,-35.58779898705785,-32.91151998163297,-26.352021693620248,-7.600654167974674,7.82823808559134,2.398249337336525,-8.955147563581976,-14.592174753433424,-23.425321639973113,-29.283229265138445,-22.3815777271618,-16.523794951022943,-15.139492110245621,-3.0944320581525533,9.812717125418688,4.549171169533834,-8.492359168144414,-18.844486904232163,-30.612426331387095,-31.28107322077847,-11.116686630072282,8.034517677093909,11.81657740503149,10.196525216621986,1.9637948871507218,-15.588003736734622,-24.598829419219065,-20.674936257183678,-18.70653520778798,-14.630258935194838,-2.0461834957884393,2.3176962052962704,-3.7044270496812173,-1.5839677531637149,5.4337698163699315,6.760202802720251,11.094408995461515,14.553334642567611,2.141731245737777,-10.949297808787184,-5.990432121408784,3.04628959908075,6.5865047137194,12.796302258025062,13.783067815376928,2.6207077162128525,-4.016754225134844,-3.2016955354871346,-9.73096779309611,-15.058360183571946,-6.097434822138958,3.2417719708110364,5.649878258429711,10.355549557253138,9.368612722315559,-3.46448015387329,-8.844293222996294,-1.8462332644635884,2.0711195790746926,7.263915537102518,19.76684712103515,21.611770133636362,8.935204932693033,-0.20642278392842717,-5.3998227836873784,-11.655358616190435,-6.814804371703754,4.503279065807487,1.6295298743183295,-6.773854047391682,-3.6651851966569744,0.9202424977045127,2.5182353008754,9.409217166126219,9.97114339633738,-1.4076469298070666,-2.439940046887056,9.561711701192461,13.486112835191973,10.402454508769676,8.362830768847932,-0.758666795124896,-9.136874618036956,0.834993364301992,14.860985006852392,13.903594765278282,8.448856182083045,4.039368300765581,-5.1512167818823285,-5.2282634491373505,10.716635217082459,20.909984838807123,18.386519355783875,16.797958415236945,12.857506582080385,2.9236881696930572,1.4764798355610165,6.645771146645513,4.356278108147325,4.694870940980222,16.38917258435555,22.35975286488963217.45319484680155,13.501360575839797,5.572128542657019,-9.126650686821788,-12.778578279315026,-4.97315179667063,-2.4592646914854575,0.23703357967285033,10.35823564801493,13.478616263241474,8.83124029774682,9.882465412426214,8.931743850362567,-1.8710761087856556,-7.734508276009813,-4.559120133229471,-2.5407455512433192,5.38208897211422,22.944550091102762,30.239895122004775,23.371430283414526,18.09562628163564,11.165145849609726,-1.7530500416958787,-5.804278548215908,-1.5858745459065853,-2.1965493454326275,1.32337889459694,14.613330046248885,19.673135858603626,14.396751780669318,12.766879697536698,8.599034060847208,-2.820988785687151,-6.177528406996239,-1.789596303777523,-1.7858777751771138,2.696631628696657,16.474896841259614,21.819314740172246,16.362151267215523,15.111608449995863,15.752629858196245,13.446404057227495,18.17347044484293,25.197399724608726,20.068956449341357,13.264733549040017,16.15734994299398,16.719378187602345,13.460951503420073,16.72990901427812,16.586486285401584,6.588843292553559,2.820954646756246,5.546060598767327,2.257155291815269,3.056576782893311,13.786505494317083,16.483626271702683,8.894362600469856,3.9754082771588526,-3.1277077168821745,-13.136770455980466,-9.087510840172186,5.201538095466836,11.091440563854825,12.184261724365637,14.266550332711242,8.55136126515739,1.374750099257515,5.269911870006687,7.516909211589625,-1.1506127972945528,-6.230145742668254,-5.762408478277459,-8.389371775438681,-4.06824901043521,9.049762001163877,11.536042315176033,4.119866233846731,1.5611339056195899,-3.77695721530537,-16.02551688770026,-18.939166880249203,-13.985677289004162,-13.66405816425332,-8.874045092255603,2.717298533358127,4.037169368939866,-0.7779533016884224,3.4279677543111995,6.69101402662556,1.883707727192017,1.459022052359,1.6900549053929121,-7.521767345664179,-11.562803857189344,-3.5313703799290765,0.2803597416201533,0.19522526155741693,5.780649762762913,4.69457692523392,-8.192102665627022,-15.590543901499208,-14.808557511213495,-13.494337347511156,-3.0212535940348895,14.221779330615236,16.225594825195785,3.6844391650917006,-6.681982086315266,-16.769418639451356,-25.68305044380423,-20.135165823288595,-8.870040329392477,-7.51905343491694,-5.312862889419055,2.9867412626204706,2.883358847287453,-0.33652928379385716,6.705421088449406,11.780200815058397,8.567809017175346,10.140894195837488,10.565287155874392,-0.9542040619471592,-7.451861799849243,-0.8814750340110575,1.141567119951506,-1.7837705486586612,0.5676748949884396,-2.383342078401959,-12.52130863277459,-12.735272057708144,-7.7510520494348984,-11.755413680565416,-13.019084911332541,-4.912115230713212,-2.244217921261115,-2.7769160460481896,3.6244356595784564,5.016109548274438,-1.3524192999886266,0.38966221486085595,4.69168782782022,-0.9387960283984307,-3.3622813062624672,3.152773073373206,3.049959487670174,-1.9059950882345935,-0.7663978301451901,-1.8480722307327273,-5.895177447752887,1.352722385914244,11.582841493894811,8.515865874979784,2.6029908142407585,1.7752985904513585,-4.40121894110846,-11.636585187106483,-10.714674351365273,-12.724562386496512,-19.259167046992495,-14.516493440732486,-3.642739536908786,-0.9183852493723882,2.214463183723166,9.439267967984016,7.439881484805317,1.2401328863021073,2.6731667985223897,1.5626657099661538,-3.912476806151822,1.929775987875224,12.71867572739017,12.563876803801564,9.869946648911865,9.892284206863998,2.5819633330788827,-3.7524309077711098,2.042802762357496,4.779208901986578,-1.8925770982118202,-2.843510599658458,-1.0350188661328121,-5.755392304097118,-3.77923167491078,6.167703188830281,5.033871094420774,-3.2523019454124262,-5.525580673152705,-10.49272297353299,-17.14801141893784,-9.846368073357022,1.0879596957306017,-0.9215411008723553,-4.159851295780267,-2.820417641377553,-8.556680376167208,-12.559553479677641,-3.341116131525214,3.4877532761616044,2.4714822821958515,6.874218144331696,9.006145934172396,-0.32185884749319893,-3.874893413779662,2.1174041804777417,1.1734291008938615,-1.568028051015772,3.363973993469336,3.0773673911990325,-2.9695710472747976,-0.10775533479542698,3.1049835149171052,-4.566066902661701,-8.814226429439165,-5.0598680986109335,-6.2172377664369,-6.124676631803813,3.512555180824409,6.766964398358979,-0.7342950077761263,-2.8454241450755267,-1.7863040109128718,-4.918714862609681,0.8433829680384402,14.799844223206337,17.623680884613627,13.076885778132787,12.841910289892779,6.833088916239138,-4.904775937461748,-5.407078289187942,-0.07065409819885327,-1.0566452581470702,1.680069361154592,8.260785107365754,3.423527113529373,-5.270917277458487,-4.46029115831926,-4.263141892813794,-7.559547423818652,-2.889577869808207,1.2478664660514425,-4.941130007914096,-6.323985299392042,1.635060458109458,4.585380343975135,4.837585336312813,7.530157176396482,0.6572782180797954,-11.42803220728451,-10.194083712821733,-4.249946368207649,-7.474488890852142,-8.870098845122659,-6.121792319763355,-9.535595902069298,-9.184941415500568,1.4386316537408477,6.026744847905436,4.185428628448961,9.595115713598492,13.024954423646003,4.885197587373263,-1.628923349027699,-3.5706961619902167,-9.155616357923181,-6.908658999814104,9.645045823862443,20.80204675028999,20.146301339841962,18.44044280143755,9.391122065014342,-8.970240928244015,-16.69026764835349,-11.868854352329762,-10.051485686637184,-6.561267569484702,3.4913278993694195,4.610905674046979,-3.066853634356202,-3.3148755314144305,-1.3201195983006282,-4.425104422925971,-0.00404080070176871,9.878995910016382,9.5137289516449,7.450308752361009,13.925624697976405,15.40504003869382,10.07682890107364,10.088396327905034,7.583420296859554,-2.5861171441128947,-3.6193662146106376,4.264576454924439,4.8141287898331,2.7949478243984434,3.834763165795015,-2.897034317469009,-11.242391921472686,-5.530736466174217,3.5469774143886648,4.088231644262032,6.235454116004837,8.337453612058583,-0.9371973065459898,-7.92929397023013,-1.7567448123037348,1.556241029050301,-0.330233561118761,4.7023699680983695,6.111254351315658,-3.0888774123471636,-5.345083020072223,-0.751843294720028,-4.903873704183194,-9.712724460655934,-7.419600410414262,-10.446718683528172,-14.682164254534538,-5.324512923984398,5.648325443483909,5.219985935616046,3.6131133707449847,0.5952090394706431,-11.675644628557329,-17.220287037379382,-7.195122726245963,-0.190387248353447,-0.12066110471532177,3.6828650596113843,2.8170430492483876,-5.860074231555563,-4.446886298592886,5.100640664871286,5.8752243528262,5.4899227036765605,10.288701243351076,6.225455958783123,-1.2172901843181338,4.684949365051054,12.597385567998142,11.006256056583549,10.891810486139335,10.926990820418112,1.1952560405711692,-4.733881561847242,1.8829821975744299,4.072961436010582,-1.6874104066876838,-4.261365241442626,-9.831919922484886,-20.021500689777465,-18.669487347436572,-8.72131174297207,-5.096794459487073,-1.1325707657124098,7.178199749421407,6.3454072628051215,-0.7088015752834718,-1.9107798508839067,-5.189944242203361,-11.805480293924308,-5.083260302979761,9.367841860024818,12.425901474207993,10.098666306283869,9.273190129459861,0.06549993642413154,-8.99906930498638,-2.1527266187523457,6.549896430180166,5.237550988018814,6.0841589120804045,6.106731164459378,-5.756983781326577,-14.064100207637248,-9.758003779638505,-9.552032192553897,-14.230009067603335,-12.453078147891468,-13.608639711505965,-20.819967768400005,-17.792704814690687,-9.028487272638992,-10.055998963863662,-11.119061913465845,-6.258942667071986,-9.497053905668807,-16.105205381390576,-12.074288668098111,-7.133716285312898,-5.5181628896675425,5.18345729928714,15.309899876637456,9.064209862086768-0.03429734253805661,-2.207960285540416,-7.610047362299596,-9.943074953489464,0.4444756260411298,6.152821805835251,-1.4007203548231697,-6.105202021501151,-8.008655773447657,-16.385500015499805,-18.90741625036867,-11.316561084038616,-10.022752427225534,-12.333187249329118,-6.266176689519349,-3.3720661781994314,-10.143746024350344,-12.905285404748785,-11.963837378728389,-14.598892070518916,-9.340531881295934,4.908719461313909,8.753080069264286,3.468152384475248,3.3587634811326375,1.5987073312439999,-4.418461811621943,-0.7410998056402767,6.390978253341076,3.1797110397289523,1.8051441721855048,8.467313481323684,8.408742143587334,5.32539183430317,10.477866568304865,11.126709581291697,3.3906080813196957,4.027710642547909,9.35063883988396,6.749970831246211,6.115177678756855,10.281895373101964,6.962568709855319,4.713557563407594,14.14360621396454,18.184115743296488,9.459549831345667,3.9115778066136935,2.2015760084743623,-1.026587171386816,6.040548153125757,20.06403558884068,20.225178919974812,11.133900883209783,7.498164932310575,2.103058893835682,-4.553419961784807,1.9856671485160349,12.379013235145479,12.109620668305716,12.721240455876696,17.821290332145196,13.755886660221606,7.940314196439658,11.743102320649598,10.536093327831399,-0.2992728918118024,-4.97612515152634,-6.847260308012567,-13.566211016472238,-10.185745029451006,3.969162646253478,9.134153406932263,7.675408191970877,9.510736117937526,5.129648420591078,-2.7806170383072732,1.3019023499529419,7.43834724937331,3.2788630398314966,2.511396824139658,7.678601518044152,4.3837092678218,0.5313300488903341,6.707338301031872,7.759680060466456,0.19918695993435698,-0.7766372005614042,-0.6805153380015766,-7.196299343954296,-4.720682258054207,7.112448408745337,9.46146399269323,7.037435983889978,11.866515009703635,14.271608899658293,13.565532320481434,24.797351307528416,43.78744558988728,60.949265218175135,85.20925932767315,113.46575357220615,128.28502049090739,137.676606488461,156.0445237532567,169.37247018171308,167.19399940491135,156.139778267363,129.234560109569,85.64520365794752,50.640722779127316,30.353294426101037,6.621745013502098,-18.053921418166116,-35.12090660315952,-55.55767481968643,-77.0261993570862,-83.75653896613127,-86.45121384520786,-99.10966213434007,-108.76304800535371,-111.99704396611872,-121.08860874001579,-127.85827836538917,-123.75440205465743,-123.04560303579949,-126.37262414690218,-118.53670701840244,-108.05800838476847,-108.14626611621755,-106.63356646233915,-99.3320561313675,-99.42884397350217,-100.70812062470966,-94.13562823928227,-93.92419275106988,-100.62425410166945,-96.74419774935788,-87.01116756561073,-81.3772098950582,-70.61285219365229,-56.95674930427066,-54.223728774379325,-53.90474448053895,-46.006915384149934,-42.51748566614998,-43.68177248658391,-36.09132897733211,-27.8462196853794,-27.78318113099568,-23.076857481457722,-14.495303785563678,-16.021538556139262,-17.234577129165377,-6.307522976318853,2.2452670980715284,4.088416404797401,11.58623560636442,16.355490509582893,8.280848689648245,1.6192214769740572,0.9430506559371231,-2.2234569330605125,2.6188079295524407,21.073679228810327,33.2414747085732,32.64138888797207,30.917741734318895,26.083675244495637,19.326433653615886,26.655518083105687,43.157364883181025,50.16797489826851,52.034852950252244,54.31783474968527,45.9122710019359,32.3039775112501,29.34622648474293,28.72192080126651,23.613990450306005,28.570946130411727,39.948548330201206,39.391313210616275,34.27164767106787,34.49628820779111,30.65139761939407,27.51420808800352,37.359283832937486,46.62087425840545,44.910783430620405,46.05959016405586,51.0654944247615,49.09524303467823,48.169851224617474,52.0827455745449,47.32747195030568,38.84311163602033,41.65831722514694,45.69867554291823,40.5848116973104,36.29082008379109,30.768650111339703,15.923256556963064,9.43486043075525,21.655355137775924,32.9974490485675,36.87076863749293,41.396848921114156,38.151702412712325,28.533808254963727,34.237721292473076,51.15157350721577,56.70282702184625,52.584192814253754,44.41035831433118,26.016085356843266,12.022844934049623,21.47549591541036,38.508890080664,45.445449312228185,49.16016448029132,46.42324099525193,29.459048809990634,16.47733785266454,17.212424117789123,14.148756234466651,7.265039632924195,10.788008437133849,15.43649204859844,13.523938963983134,16.23941300530384,17.30673251639883,3.8789480832554486,-7.547228066432368,-4.594090855448341,-2.078534447998062,-1.6271820029522972,6.315516493975004,9.651358577420858,2.789084974532665,1.964426165919008,4.45285575394878,-2.670350691237286,-6.506487435750266,0.4666496277954364,1.4317014517322313,-3.9974978298101,-2.9560559603175784,-2.700997968558867,-7.087206858937013,-3.1452864991914953,2.0793281120263263,-7.517086432813214,-19.24153996176676,-21.279397281595784,-24.68560816198992,-27.461819650153004,-20.312223507512968,-17.021319969591026,-23.774169658097847,-23.885021968847386,-19.422777064840687,-24.040493851014283,-26.916757169809532,-21.7493107742011,-23.511431390478435,-28.718416086911866,-24.46445994459882,-23.033886786633563,-30.87153822382261,-31.92463030541426,-26.963632208008235,-26.710836365371367,-21.44035685940429,-9.347755922646531,-6.835381216141097,-9.51556468194035,-5.300503855517036,-7.001423066234815,-18.848730328126937,-23.02772993902832,-19.87610807749654,-18.29641213891944,-9.48763422060275,1.661970328638879,-5.1834723636066204,-20.50032130186326,-23.27694512636717,-22.19272440777125,-24.415368262399603,-18.156485016954647,-10.095902515254469,-12.43042912922667,-11.694836665154272,-3.836975427106063,-4.924704938280575,-8.419931963743753,0.282310885620225,7.330036809737575,2.3543074020043644,-2.8728918802570096,-8.855142636999524,-20.34977629444952,-21.12231410264965,-7.414995056580257,0.7273651363366733,1.9235095421568764,6.290504700286054,3.5396721043367743,-9.004600436979674,-13.906567150170893,-12.239597917652578,-15.855301083103296,-16.770796256058734,-12.299238626661136,-14.6532677062019,-16.68411806071717,-5.945858724508004,3.3694086394530016,0.9978089058261468,-2.26166505734675,-7.427447898311446,-18.448595293212477,-19.3178179561139,-7.94038128189854,-2.8112237942096554,-1.3827144914053362,6.482353905292339,7.584180297274834,-2.414428116683542,-7.621855461706228,-9.956261454556383,-17.52364736673524,-16.658879897644375,-5.119006119643002,-2.6089199088640505,-8.174135661028663,-8.951193963931837,-13.290352067851643,-23.118525335256866,-22.751931075472026,-16.323405700991074,-16.28598920218191,-14.125631684002927,-8.964278724916277,-14.560802739773289,-22.040374432839506,-16.28284946573276,-8.621519940255103,-5.585931365130817,2.897195108413172,8.56073431505513,2.0206358705761396,-0.4697017987616851,5.4726472833471504,4.911419496555335,3.5242100429765384,11.145452202634846,13.14383731295476,3.735278797021296,-4.06283076249693,-12.36336669427698,-24.61530789302525,-24.27825714816117,-10.233531127414494,-1.8510038171024372,1.632306302178467,7.520772719887299,3.8156990088196983,-7.716242033702024,-9.259023591112058,-7.83439466584805,-14.663328645456904,-15.163865367795442,-5.983045077036303,-1.863729497514988,3.5558638076650237,17.43075894239461,20.82508380631202,10.277311833908588,5.064143738749626,3.450701143391549,-0.9963842994571785,6.584514426996158,23.6581539275824,27.783714311022035,22.525167257791317,20.902264955939188,15.42396802629624,8.449193630089773,12.505617194428854,13.849862711738847,-0.5070090082608143,-11.456893276712414,-7.681307689722736,-0.009206446766915954,12.03364380226114,27.165692643733564,26.194408178081844,10.9327704867498814.0742584191646944,4.661249947414365,3.506075114282212,10.022495739841652,20.83659768317884,18.93758948524734,12.007345580846044,12.482213225752522,10.38196233515539,5.956837768385581,13.005941794370708,21.682507396592428,17.918654864695476,12.921962134051874,10.708022017042659,0.9695538352650135,-5.083508296666351,4.556167788794934,12.66038427192103,9.838548135966185,6.5856246649466605,-0.5475604012817059,-12.967175272947031,-11.856266271866154,0.8503893477501094,2.0707344973900965,-4.938542924111586,-5.969456576096625,-6.540120508829128,-5.013680479166258,6.982817695378669,13.621412037645927,3.7147731471950007,-4.292774602031348,-2.856516006836177,-2.856138533653298,1.1631996832052527,13.087694482290651,14.342494008734018,2.3912163961442747,-4.86817533097202,-8.979021436384095,-15.340111314716644,-11.438919699004648,-1.5782126783894843,-4.451280477444316,-11.885129480252772,-10.465643345613229,-9.822346082387462,-10.446519123812346,-2.4926202060327336,1.3022593685141788,-8.58558269121735,-15.359659513607777,-14.182760883696734,-14.855501905387596,-9.174732476207414,5.59262460638014,9.5181589966427,1.9081550593497205,0.5192205676350529,0.5129953187567368,-6.050778237210085,-6.332483400542722,0.03748715120428381,0.5492767099828935,2.9943805405977963,12.063697810892664,10.597572177356556,-0.3739570841497408,-3.027969848188153,-2.323398326539575,-6.9711655250752305,-8.022557217520173,-8.00962954812234,-15.12173040435995,-14.501105663735894,0.5280796682807889,10.01005701957753,10.33439517398326,14.345707242222907,14.683329765847134,5.775949789999972,2.5006082203289814,4.344382830230655,0.7808672697596757,4.300339821313972,19.8791154705518,26.16098386254742,19.705430875725117,16.071978311756503,12.60909521621544,5.553207909995738,6.205533671007585,9.859722037065637,2.766460333623362,-3.553924332518019,1.4645190065559528,3.173026167906233,-1.7267535815901778,-1.7761684530250124,-4.314547745166924,-14.864395155935359,-17.885430314558405,-11.993630805665351,-8.699773017325745,-0.4586844971544961,15.030992197764261,18.073987605478955,8.010415455837883,3.711823646525742,4.648682985491112,5.738240510834597,14.4541024281793,21.634519407141113,12.494095153342961,1.8428929313973434,2.650183166406903,1.0451616096669245,-4.551920952658338,-2.242826857760538,-0.3481933451721885,-4.028140551322094,-0.3006660292450656,4.303819074347412,-4.929394147350331,-12.828580327949641,-6.6079989399948875,-0.3791739518979651,2.5957108703889813,9.436134201391864,8.405987457732461,-3.355537215162073,-5.367761444963211,2.4935530394351133,3.137741493975909,2.36559961534965,6.747875847843353,4.302838003270185,0.1198585587061125,7.633158406961113,12.800632423732793,6.002472169058095,3.6002869027435227,7.158881380386972,5.986714479329039,9.636541188388197,19.678229071677453,17.221125069228027,5.797225710316618,1.3403080494210913,-4.279956585080974,-14.148292947838854,-12.850016286289419,-6.473414728934042,-10.956434796007,-16.017217216795917,-14.008589199282042,-15.825742877134582,-16.020221771125346,-5.142583862449812,0.40749120382519255,-6.653182369993689,-8.807701643037097,-4.692243639869773,-3.6244401687021917,4.101110236212552,19.14340435138586,23.388349181071476,19.001390956481856,16.894287884958988,7.714748029281878,-7.291122094855211,-9.209565883554248,-2.4760734595298457,-2.896316053003758,-3.992882300784706,-2.398632828243264,-9.181163733135858,-16.166158303396802,-10.662593377335648,-7.243322483391081,-13.753976136325559,-14.690829445176723,-10.712094053387474,-11.445443312950735,-5.484389199366522,9.81860082014039,16.474610990124297,16.06143616847127,21.26316100333059,22.305873329328733,13.93631767683025,9.407605949101342,4.10561921366355,-12.09477444681329,-21.5096617604886,-13.747646924736213,-4.823277242863698,2.8928593458771195,14.368016267039142,14.592603200722778,1.7428094101556946,-3.7815552058395223,-3.688698511087769,-11.348708047417825,-16.514120545710064,-13.469707350505027,-14.162996207706179,-13.90475928628361,-4.954112350384752,-2.7179730137159885,-11.099914655271917,-12.401555096129066,-8.325624291322903,-11.092778908642341,-12.247158602157675,-7.6313476457663,-6.957829145495078,-2.304336458188848,14.004128065069505,21.217143611047128,9.5626569748565,-2.6798273504775625,-9.777365056843728,-14.814265118657087,-6.921949055967387,9.079588542980378,10.982022430692286,3.337937363277293,2.950822469205601,2.749610369885378,-1.09387381694022,2.0144536778071593,3.557677483177379,-6.339652405977213,-10.208263133533855,-1.268030397499337,4.233309511111416,6.542862454126517,10.752822958935367,3.8537793395055324,-10.211980670957859,-9.830106451798574,-0.3523022255921773,3.178103249663032,7.433795073913786,11.170101547694317,3.2711117530768625,-2.7871641306643586,4.3691422398672195,6.531006865087299,-2.32480102264995,-6.288723138839121,-6.4646235784235815,-8.480879994804889,-0.8920030582981182,12.01064306519374,10.039135204677137,-0.29995238102420396,-2.4128399438937844,-2.5273464551953486,-2.580993504991512,5.6601807236849915,9.1526150398035,-2.8892721958999434,-11.44957256893711,-6.616386667891012,-0.8643484668444362,5.175096811162025,12.59398300158171,7.0021353750701545,-7.032240187285412,-7.82262379760863,-1.4297808365552274,-2.5540124712224426,-1.4344702398401212,4.39214832948845,2.361103225346294,-1.0562025519064138,1.7546513261076042,-3.1501074391574773,-13.953809411749459,-10.848400312331739,-0.31939341389323594,2.2801915937041204,4.880735019384656,8.453735270948865,1.2762394067274152,-6.025434296806037,-0.3613783730418789,4.69935412676857,2.5681941511907285,3.975169812497919,3.2118816328690314,-5.760318038593807,-6.08529498005474,4.640701194448846,8.01995682704781,5.310510232375466,4.151527412445039,-5.0899209380184605,-17.97570278149623,-17.378606358745422,-11.504815832361086,-11.442700261490984,-5.545370251279051,4.480170198773244,1.807976078507057,-5.890746740096802,-5.517529598679525,-5.858159928632006,-6.532579886128428,2.7294082195143172,7.96880216054977,-1.9322513096711917,-9.18538677151233,-8.188890624224243,-10.863183581795216,-9.977053065472948,0.4000518910143427,4.830076423824786,3.0000879603059074,7.353041417612485,7.980151703605106,-1.622797851712947,-3.2638748242013165,5.718676061371079,9.40963128459665,10.719406679037412,14.77801752026043,8.365515053826186,-6.0894052414741395,-10.90727295573593,-12.271453675825608,-20.03821681915357,-20.918344376859686,-13.51357431518544,-12.292075403767253,-10.756648822803607,-1.602788046282372,0.0889518655966125,-5.860275315579647,-2.944950118322723,2.6283947037278805,0.959421035591205,3.3868204397170087,9.642109108303224,7.543413214011615,7.887074451993563,20.02417955083591,26.993580373081993,23.439464159207475,21.26450480874774,15.730588630582925,3.4439591304133983,-0.06635524296379886,4.394848682507452,2.633156469314913,2.6933463901743298,11.557489173642436,13.449786093422933,5.674361334646994,1.1757298862805161,-3.8614440015640525,-12.030284004617215,-9.275819744177895,0.2207267161662534,-0.5269284267940295,-3.4718979949636664,0.9869841814663407,0.09754130097644653,-6.84458943266295,-6.390373181469214,-3.7727353148594456,-4.300179799553565,3.3957382779771166,12.97170702705846,6.7281126441713175,-4.7588473721038405,-6.047508379075592,-3.7102456350418644,2.8670360272322615,19.73588437899354,29.647005445250553,20.532384260699764,7.662221011750633,-2.4594085740400384,-13.587800878594894,-12.558018542140756,2.134657777266428,6.843891042552982,-0.9860470469518252,-5.229848606848709,-9.427095795780348,-15.659762142241771,-10.959023436565392,-2.299071087755739,-3.938621089458633,-3.30450180555353165.9751614060119165,5.321816053296242,-4.782133196159969,-6.375712603039691,-3.250737032602799,-1.1407912337350679,9.471482595745497,19.60991249313559,13.172056482075924,4.578299301049105,6.881796468187905,7.0363634411467455,4.336731443275292,9.974844367679433,13.873472649770392,8.427133271929756,5.979609526967442,3.9283282682805956,-7.936867222863336,-14.433224957062661,-5.955750637358189,1.3297624718893943,4.529594498729578,10.683997677868772,6.304523593147229,-11.649980065708373,-20.506522907860905,-16.865558457478656,-13.854427166929417,-5.942223405390989,6.538983727032288,4.7969462897919835,-6.952831817388708,-9.778405162890934,-9.679551410052504,-12.282616399900537,-4.026473141220878,10.19937705598003,12.950777685829326,11.098152362317329,11.95050852762111,4.447950014385253,-6.316441808752431,-6.535802014220294,-7.203689234383045,-13.840712573310407,-9.277890678311191,3.6724217014261806,7.098739846208774,5.291001516453051,2.571695352329829,-10.19448738664164,-21.66345229161964,-14.795413364760083,-3.5569560118394583,-0.8038841207958267,3.1573991198102282,4.164177236750272,-8.23627122109733,-17.862509994432298,-12.450537886482195,-4.097827123232194,5.774621478194112,21.260247096220894,23.910421637534576,5.875492096168491,-11.543080127175218,-20.40276651872771,-27.085851878996085,-21.70996386453184,-3.474649658849301,7.059634603628795,8.528493403408522,11.793424779190822,7.897048509339639,-4.603201025434048,-9.138351138232087,-9.116863127583567,-15.091622239398793,-14.026664599201407,-2.1412371992664907,2.777964086035933,1.2824406350564443,3.6071764048429764,0.856415285543376,-6.97555793534924,-4.009285232509116,2.7607366024586093,-1.10088214468401,-2.559983476561662,8.212272092942735,20.31665394482792,36.648637470676505,66.56889331224055,97.68442904590619,123.53431976337474,153.43183290340892,175.82882776839617,173.84250313669548,160.1443009683668,146.61142643567337,125.17610793579993,100.19713379780758,82.37436647110104,60.32647340151411,28.062356934616396,0.32674465962853816,-24.01931580827987,-54.53618450885332,-76.58586800672428,-81.29736244539295,-85.75392738359707,-94.52787552013992,-99.72680374670065,-110.9176601110673,-129.82027204464757,-137.5997830508274,-134.34087152499706,-131.68985734313128,-122.31167274871206,-109.01368263657542,-112.2035539633493,-124.3109981112448,-122.78107159558064,-112.2933756454965,-100.30433445912672,-83.0313377618829,-74.47192026615778,-83.84467323102169,-88.94108452312,-80.14102488097879,-73.85329533297329,-69.48260530464847,-57.410909871064106,-47.02575912186855,-41.182675612798555,-29.96990255172481,-22.199999489422034,-27.569056319185734,-29.885530032941723,-22.106906509433614,-17.61202133777267,-12.067873820454798,3.198496463674494,13.058749239084136,12.690786303214765,15.099162078801712,13.328445479066431,0.5611912596635289,-3.3340950714250366,6.685198904587199,12.990692688367867,17.749781876203944,27.68240156703575,28.750687465713035,21.28991043184644,23.302230847351506,29.81291121811818,28.706959933137,29.572117242794356,33.98847489278032,29.385501250859697,24.13253218238392,30.577473348763622,36.7804082700066,37.83422002408669,44.41250315786607,48.16433725580459,38.72702750617778,32.126953146678936,36.18604653130334,38.906531798584055,43.945498907628775,55.89211445409063,56.5872621638556,43.59307993421581,37.122192251398786,36.25449817769878,31.363928649798048,32.87538630604711,41.112909147663984,41.423406853141884,40.28967150358772,47.2063785148063,47.962827273198165,38.8860892611969,35.3543546236841,34.721669770949056,28.833130357025837,29.135912712518778,34.873659270465375,28.946158388702525,18.81993344643995,19.699797336257518,22.749472690993887,25.91642952356232,39.58073247933382,50.420469669661216,44.47977183551286,37.11097226544534,34.64841283578134,26.249571512265426,21.521495340432033,30.22673463226826,35.81151502175563,32.23467258033055,31.295632573193934,27.717304655190013,16.19380350500085,13.218070944046797,19.98270475123722,18.64986416687402,13.064211447576831,12.695321497562018,7.985481981263883,2.117101935819706,9.132651870400984,17.11604885281428,13.150066214666207,9.638423374341727,8.699987877417051,0.3742444498115627,-3.137463444511172,8.336006180831083,18.22849766965657,20.387397507435086,25.000308860728442,23.98218881949685,10.285289485672099,0.44899621664365075,-1.4685343792615628,-6.973329630347583,-8.02730199293293,2.7703621326900656,10.069690645293486,9.685074328740658,9.823159182864616,0.8126097595286295,-20.022682478741274,-30.46101811533477,-24.43562869063168,-15.624556043597568,-3.1635860347584193,10.949312310125848,7.321520770242955,-11.417367549698275,-23.081820384824965,-28.49772908318086,-34.551543590265396,-31.13197622736676,-21.567256275117124,-20.125194131311083,-17.814811930513937,-5.311711974871709,2.4847181015643933,1.3552514649409373,3.032723399067292,1.3379206129916743,-8.879290141830218,-11.972973879016713,-8.83628932296916,-14.758836230334495,-20.048414745578736,-14.169331125554262,-10.865720897682323,-12.571581599312807,-9.692518499590449,-12.294870179790315,-24.732066080525218,-27.834241162494983,-20.728418252225538,-20.404865397112392,-21.584271760536357,-17.089558239141788,-19.649849526773373,-27.077871654613322,-25.73053629573603,-24.757124374539142,-29.899864673675538,-24.74601947088385,-10.505247630599913,-4.349345045907122,-2.148533353655945,1.5768751270671115,-4.3140148994983605,-15.03547552881809,-16.719671950596265,-18.657727237940207,-27.238150663630627,-28.53637546954717,-23.54735147642538,-23.799136487078748,-20.27653893112857,-9.87660279217189,-10.237685090498893,-19.19671741764369,-20.620684090334326,-20.582948150651372,-23.070455306663874,-15.200186791108877,-3.676814837983141,-5.079451226031893,-8.801760556155562,-4.038388910647699,-3.1674414977578644,-6.9098918458877705,-3.8579599043564645,-2.2686148613415287,-7.717585459181061,-6.280297652388002,-1.5069715655811193,-9.119128353689465,-18.79848288273169,-18.210347941779215,-16.827381254080304,-15.017501575510327,-6.907549270273085,-6.829494013351341,-19.643225514163667,-25.583747260676883,-21.869712382387927,-20.908631513203478,-16.271638376359356,-5.284373997148822,-4.064292930227925,-10.258123582972079,-9.469196859974534,-9.390490751122226,-13.141336697594257,-4.9690988910655465,9.006012736071336,9.856980148791244,5.021651204729064,1.9588155102040234,-10.13996196718988,-23.603749921961196,-22.439055823223132,-19.079845212130703,-22.396554658525893,-16.70413779152325,-4.050532593307743,0.006251983329251254,3.1440016842022063,9.3969817245232,4.674524638178756,-3.618614573146724,0.5393762454074813,4.748042970248739,0.21700204963276448,0.583344651417355,4.210434270913051,0.5332522830326436,-0.3031391447747144,4.866541062929526,1.253423488690089,-5.4402234916592285,-0.6385310732732652,3.589045313712249,-1.5180809976082048,-1.8757691509151182,2.257959680492468,0.2810671421246951,1.097348294447828,7.228009255239396,4.108863104940815,-3.287436118536281,-1.4573816101895618,0.2025560292576548,-3.674832303885786,-1.2545494531292019,3.609980262453988,1.413055383479962,2.8522944710449263,10.31872597580743,10.222395746625882,7.940625846334484,14.152453721379235,16.994161110226592,12.463959936178945,14.38169682940759,17.17437356046667,9.088143725132154,3.554983491343447,7.391057016332189,7.654229134126101,8.59258219351695,18.597273286879712,21.28621136815588,11.445859542004957,7.946773476628683,10.591866569168634,8.0907441571735,10.367255655352196,19.795140726072837,20.14837966588085,15.485067463772168,17.534365133779914,13.814040804114008,0.0534541502407615,-6.262407939737515-4.9139801069211,-4.9614243993248035,2.921907042025252,18.305239887121424,23.492863306019213,20.5286200476741,19.393711753702465,11.561687314803397,-1.1975669058449978,-2.4115116569492936,1.9338503289024491,0.22452083148366464,3.6557872013368717,14.158418174134972,17.15060175866548,17.709789814733846,24.179859104575222,21.760387369237982,8.05948797837698,0.6678342905747046,-3.8244259238824587,-14.462769720472895,-15.9758114829781,-3.62242849240866,6.303086484496683,15.02717147603635,27.645532703064372,27.151416524506423,11.174121197196811,0.5353294105206512,-2.4465157863327476,-4.588855860666216,2.1818474000856565,12.4952111357429,7.4932261928076604,-3.591992659427863,-1.3306532469901584,5.142451531291436,6.725154771448139,9.705130653602088,4.474179102022401,-16.071338352229358,-31.646470031291848,-35.9163050801604,-45.35137217588752,-55.37349235851251,-54.37426682829561,-54.97464040408753,-60.80793853183268,-57.223089684285185,-48.95646534297913,-44.83675493337796,-33.121634673395135,-16.158548135157126,-13.153807977206036,-17.61387773914646,-13.944990378756392,-11.394402351820654,-15.03012423146012,-13.902381631633833,-12.172368596962595,-14.931047849048642,-7.319526831539719,9.685216659745079,15.012476737212307,11.376990403004939,13.515352808165947,15.712928625038927,15.574988312402542,21.206946651794002,22.871448324165858,12.926681726485764,8.614064078669577,13.448036089904964,10.326756214039111,3.9061041773072533,6.286014218180844,7.618243120591831,6.77195371588677,15.120098405024155,22.045691437085647,18.48673766968451,21.101570897901052,31.136885754049693,30.461860596744486,25.473967654739546,30.04650112170023,34.30772901322648,35.129577253998704,41.61676595259781,42.42465725446597,29.82938913837151,24.10462837678191,30.831122291094545,33.33126171743215,33.199186757216054,36.0044319491194,29.888162530652778,18.29637077588055,17.878594857665963,20.694745914765612,15.96293124164546,16.32314019844982,22.416462439783427,19.712665583488793,17.253001829512154,25.71754334167323,29.736532780703705,25.547147716372884,25.714759703596275,21.89976804152617,7.270314498790917,0.528484595143353,5.834819237191252,9.037806279268437,14.704707337786818,26.027260511558545,25.560794270243115,13.882236575013732,10.378933667562537,13.05738437298984,13.436802755378368,18.888270118066863,23.339540837932184,12.463988448467884,0.36193953102660936,1.639864219146656,2.4058561284620144,-2.326113849819764,-1.193560709026024,0.2057822500167087,-2.7694560177485315,3.875245156627524,15.224743239075305,11.086461369356973,-0.34773444303777534,-3.8785693186882177,-6.896702617857236,-8.138589318154851,1.9008259321824421,7.58472154945182,-2.390152639606331,-9.595051768394336,-8.036333279306739,-9.261902367772594,-6.938866468867285,1.8464874528526707,-0.09136733110816153,-9.996340026059581,-10.134525632218267,-7.8233794407095285,-12.178371769286931,-12.529561979239064,-11.456087917185222,-19.56115111969784,-23.41741994367293,-13.703782075036404,-6.584445629102198,-6.58540210089301,-5.764809726399065,-13.229569489381722,-29.51755041652902,-33.14211436857525,-23.35926190549501,-16.749849949444943,-9.452950915596583,1.0938082617737126,-0.372495692774802,-10.255049361285067,-12.797806846465239,-16.386662806435147,-27.65219119538995,-30.906418606118343,-25.335336752497874,-24.155952582148664,-20.186063979124675,-9.3741147122719,-10.480764456293794,-23.867302616526125,-30.439973697932977,-32.355783899475206,-34.74596541576295,-26.482190918432302,-15.017427564906406,-16.980556960926712,-20.092124530344535,-14.193783210162772,-13.987060554228043,-19.339740045886323,-17.79467162031529,-18.501214389293125,-26.436005273900264,-25.976233000859338,-20.494196012711924,-25.958958056856837,-31.333064491117923,-25.148138746268465,-20.081991639835472,-16.789724892198166,-5.755158043866789,0.04007638354964793,-6.835319369975776,-9.303677028629362,-6.455526638436176,-11.518320111816783,-15.27400475439818,-9.717640274829701,-7.454773864913449,-6.741298671048206,1.4903212789504812,2.05943576673809,-11.585193648392458,-19.42979628199511,-18.22104279800176,-19.37572744883507,-15.19883531962886,-3.359027132924955,-0.29505999074090483,-3.2575874316595743,0.9359808685286426,2.262235054470871,-3.981811062074705,-1.779374406218265,5.488394317641496,2.638620335087012,-0.8682548439125509,1.7840714718856068,-1.3979137111517115,-4.08043494119484,5.963335115971949,12.577008517067341,6.357090733017392,3.5130985768484275,4.541485958954654,0.27141413592408714,2.9025338872500948,14.872010943707322,16.539839139671678,8.648753214082468,4.136147673588347,-4.491123348108745,-16.978940392490227,-15.280201460506682,-4.337610020116219,-0.992188994740078,1.2937134419852543,5.783459618786786,-0.15970726530167,-8.745460911232547,-5.483610767172421,-2.7269003369132188,-7.477519637166636,-5.936469531546576,-1.3178660540699114,-3.6412339146074384,0.043015501526414424,13.528759950628665,19.56917086696695,19.678839077795157,24.366800793490924,23.755402546219464,16.35604217402937,16.735313088097932,18.36698901426316,9.211263024845023,2.3279506524351907,4.100796650003286,2.5278857376099824,2.377482442620643,11.668964113114356,14.601831740809164,5.700822996260721,0.4545744178145696,-4.239128889915196,-17.459413889789698,-24.02585247680208,-18.28354584710479,-15.514613385017082,-12.295822283832692,0.326544735749871,7.972331393416607,6.196925563012831,9.976581259600275,14.920295377470818,9.313590719948222,3.8708108026203263,3.3170686006350865,-2.3110964513844845,-3.948871554970113,8.869011390791051,19.44273752644485,17.972703084133943,14.566647415127878,5.753661601192055,-12.349397073715346,-20.450183358457267,-13.492738190378322,-10.02568004909713,-9.129774968728496,-0.9183047010537835,3.585587692605821,2.2085692419634677,8.116706220307952,11.462926138457341,-0.8585844095672215,-11.182907389239185,-7.478735595955905,-1.186721362679473,7.0671861589154785,19.27255739866404,19.871129885253247,8.988998589437964,6.8374889512638015,10.499220932976058,5.488451187255425,0.1719301035660703,-0.542630966674504,-6.387943330220337,-8.19754844384099,4.162122136151096,12.400456769563192,8.21831993868026,6.69641445379286,5.838222916316419,-1.5936799041456262,-0.6122781207349595,10.660085618892937,13.929285094844413,13.531515253010372,20.16303809976869,19.412230245430536,7.171490271265132,-0.6744569283906543,-7.115003821671368,-17.913992994881283,-16.91271675530256,-3.8342654812565824,2.2205896678582437,5.225340523377186,15.024710495472057,18.926980512027345,14.614879917619774,15.554212159740079,14.560707281151945,3.3540109184041667,-0.3577624675061826,8.815990441515419,14.138698914810917,16.874051165744913,23.458507249055295,20.541620246308028,9.185262550223886,7.665391863016837,9.535104520508455,1.8370437312772263,-3.402157140025818,-1.0757656160664815,-2.6320094027884013,-3.0565956891025494,3.862566023395941,2.8021080111441345,-7.813962155165989,-9.644626657355797,-5.50776764145137,-6.128033177153654,-1.4149219301454545,8.773062583746425,9.7400960196909,9.581325691916184,19.62332729660892,25.70758222195742,22.795085333602216,21.743284108569412,15.267853722815387,-1.5185399128492998,-9.372187465825183,-4.093690689319185,-1.3872577640269592,0.35217007299787073,5.014218166432342,-0.08583689823309637,-10.332518912647425,-6.73178936897218,3.0647702676792608,4.6413593950147884,5.404913553801455,4.7350929809417,-6.3082311435182925,-12.535553578018575,-2.930110124281442,4.277739135278965,2.929624919618443,4.310426469698907,1.1282849964082864,-11.554595041513148,-15.232820883108657,-6.43905626037077,0.6875469889554812,9.939881443018704,22.68039975913693219.22584718200916,0.6077138150542023,-9.393318612538705,-9.159961579879644,-6.681102727094324,4.358001077352483,15.302772394021313,7.927147330052508,-5.5258069193673265,-7.768692084933862,-7.909072987567398,-8.322057539424392,-0.5066775379201847,2.6059814827905647,-7.959413662277875,-13.974775823927272,-10.229911735830434,-8.677102574696804,-2.859866848331734,10.624749092192719,12.88437341704956,3.10553358456176,-1.132104197993681,-3.3075023564902883,-8.930054238748056,-5.019711270656131,4.846613855993289,3.5632109836301398,-1.4271544853846103,0.43765256158116084,-1.4959564035674286,-6.98745894144897,-4.506067420369577,-3.7958760549349937,-12.19944896249487,-13.858313998370903,-7.6388740014683805,-8.560519655308427,-11.678087887284182,-9.492418237897475,-11.858179428786107,-15.24093291546678,-6.052557072510018,4.072961674626109,2.4747402978236597,1.3231378643417044,2.5282759163593003,-5.187135063613464,-12.471305901327465,-10.4739567570638,-11.686677910340064,-15.612428585886345,-10.05494734062367,-5.892168050727176,-12.550905623257286,-14.340635392129354,-8.26591631572976,-6.077564009925302,0.020105496697029546,13.390801496619344,15.813925641066906,8.575162290297236,7.51991172509566,4.695438101569127,-5.73047432735031,-8.247991567664375,-5.186856147232385,-10.97112857174805,-14.349783588839298,-7.289755339721608,-6.2870169371372935,-10.60711174548394,-6.620528649331573,-5.070246951683945,-11.449769475236518,-8.366920900689298,0.9190885572039655,-0.11453514977397017,-1.4524328434249516,5.854325407636534,8.665895998748574,8.119877453791698,14.438396849636025,14.822630604238428,3.8918732496792727,0.7814557097875581,5.1987716744101915,1.8977308287522452,-1.071769717457269,2.7278740101492875,-0.3573083709040674,-9.233798088555348,-11.887207691473428,-14.009441974580646,-15.849282481724565,-2.4112410960032515,18.26693365691707,23.210517781684846,15.670648813543178,7.875524348376737,-1.8666855632838173,-6.18076491663823,2.694859921122811,7.4084274050759795,0.3078350433208694,0.4644079085316646,10.537385717696699,19.77280991075008,36.95995227681586,64.74454462299965,87.42507842931157,107.96314691598957,135.81151098407506,156.3508643158858,163.07968729899716,169.68563152945322,170.72717776190467,153.16109904805535,131.57749636957584,117.56000614729794,98.70900677608873,74.78200521039099,52.47332251615991,17.44911785261466,-31.431189583009143,-67.73037025655667,-84.91160064690851,-96.24092920047919,-98.99472598238359,-93.98011339783223,-98.12150099694958,-108.72742032483532,-112.10208426982297,-117.79338054717132,-132.08616084974412,-139.98696512359186,-140.6017375268777,-143.55032985932104,-140.04484970228958,-128.16458661915914,-123.93185901016406,-123.44961393330175,-113.596655260444,-105.96663384687656,-107.75487002259854,-104.88317132369899,-97.96802107961659,-96.26628317783255,-89.09448105051857,-73.63872790507492,-66.35710198248458,-63.47554384032085,-52.03688702788416,-46.33148436468738,-55.56942118170419,-61.897042569674596,-59.54335194281681,-53.55420944382254,-34.11215732225093,-7.257680373684941,-0.4213110252811668,-11.688352460261944,-18.180180040024254,-19.131122464093288,-16.467375667466793,-2.511858885160934,10.229277127910967,8.247505124749143,7.863669583130649,18.170015515317903,23.396331796519476,23.415374887010344,29.25636837329655,32.62542383802441,32.37852737412711,42.07698115069371,50.379069744052195,41.5094859061341,33.21135103198996,37.746421766438424,41.2044500007103,43.09911992159432,49.659524211963706,47.57877216108138,35.97851874903499,33.07364163055599,34.48953603755715,28.227120672525775,27.54729343072372,37.73411282945474,42.429077969244716,42.19941776003762,45.967840980658806,44.287747087970196,38.24389972858295,43.7748896471618,52.462583710508326,49.58885247187656,47.225764929272955,51.89824347152305,51.504648776345896,49.892445389079185,54.7995125214787,53.04068537017514,42.94051941073266,40.25482694123028,39.10671473135535,29.11107344979312,25.193421806363517,32.633507010910336,37.14758969017446,42.439269820596735,54.73866025896697,57.024583284192445,46.29884420749628,40.072665881758326,33.98481459114264,19.725471570612363,15.019976297564394,25.343059942782077,33.768490646764015,39.71220739647332,45.548713140056186,36.1626341768496,14.955658857712564,4.096348847528978,2.1174710353967447,0.01837934616396586,8.409742206624243,25.14851200599484,30.621244703994982,27.071184767377446,24.95503488248644,17.329256529635412,9.137519874646149,16.80870145818847,28.08651054865934,23.595547900781703,13.154295824571031,5.794515550334143,-3.362508264893569,-4.976636325210476,6.48347731278167,12.008517243156778,5.298159052132671,-0.11531071832159295,-6.45477049085908,-17.365135323312394,-16.983669410224856,-5.234440043908068,-1.3052694614916225,-2.477073065853341,0.9741094170622664,-1.6968791591353884,-9.432090728042661,-6.281075654194272,-1.0751488944503087,-6.740282113670318,-9.851908050494227,-6.706781149289954,-11.720405269993813,-18.79120831494237,-17.458433745949545,-19.855843314167757,-26.849940430916394,-23.115617687166022,-15.523440607345545,-15.20276968770228,-11.495909413287825,-5.603741246309335,-11.667739683047323,-19.434835360460767,-17.63699070394079,-19.175594001173813,-24.23151094284996,-19.260294536878146,-13.711636425045919,-16.80260164517596,-15.02502260054743,-9.592453944007755,-14.36324466076698,-18.73026879741324,-13.84017296442104,-14.599361189259298,-20.10505324480102,-15.347171716511484,-9.44331235878681,-12.061482513128006,-10.684047801197158,-7.0260139287929295,-15.215960559222896,-23.715831581404096,-20.077793197606717,-17.956466079029777,-19.846639245656185,-12.903075670709997,-5.911640165100408,-7.382098224741941,-1.7863446085012815,10.92524391186022,13.22971267497287,9.603535521419408,8.00014104659896,-1.528990277298973,-14.331581560339224,-14.38324413443609,-10.074384589325165,-11.715030041128452,-7.97297463671536,-0.06935920187737432,-2.609968364803338,-8.05452419777679,-7.315466652905417,-11.811094275431005,-19.3408492535007,-15.461431316087541,-9.485706785700712,-11.325880577422156,-8.321374072352194,-0.8365724068142706,-2.7010338238389657,-5.610582311139353,-0.3196905568972137,1.3201574789798358,0.24500644409209382,8.328537373653617,12.973329134880183,3.240076232546088,-5.015512717896279,-7.345359787233313,-13.328254700758903,-13.272188703797095,-3.3225543111394895,-2.6633117868377747,-11.171853240265378,-11.710230242799529,-9.323918441956998,-11.032078754718341,-6.98798860234789,