10.186709786270706,12.539490571711644,11.328661251366583,2.63114153844987,-16.659223253357382,-21.021519361088387,-3.4916451356417424,9.810090746344818,13.361646498858674,16.456077974302598,9.640394170279215,-4.20770056536014,-4.78992901889548,-0.09738256222421238,-6.008258275891602,-7.791960245578219,0.357363895657528,0.30589056270248016,-6.06216197497883,-9.163792922084582,-21.049017383127897,-40.51472003561291,-46.44980852981078,-41.94774066982198,-40.885110995324624,-35.29198392126185,-27.218369999176645,-34.51399319408788,-46.52857787216507,-45.00357850762347,-42.44353245597961,-44.280154330501,-36.49339264435329,-30.220804177337143,-40.21979992483071,-46.96645910789806,-42.87997977656826,-45.67248908916807,-47.26351223183691,-34.47869136710696,-27.861320958601073,-34.73006858198542,-33.769800483508135,-28.446499050564558,-32.06872189071777,-29.26881569113079,-17.700576112015916,-18.377777136319214,-24.549460157600528,-20.266246959197463,-19.286863501820317,-25.493049906502915,-20.63957791383215,-12.439954449793287,-16.880681186283706,-18.292712491202483,-10.133159226606715,-10.036341632422983,-11.0419158300345,0.13411096179324655,4.850286250891888,-2.7504109863379784,-2.6732397518007334,-0.9440712403449578,-12.098486149427744,-19.226692849970355,-14.907015888159261,-16.905238711215787,-20.22427203885632,-10.826044768894493,-3.960966293131312,-6.58811336811076,-2.082211163087619,2.8689980867731033,-6.695265620536251,-14.695590547438258,-13.584530321732693,-19.67511837523002,-26.15066633158488,-20.33809940393928,-18.722033535532425,-24.261129101274136,-18.214174026876762,-10.713952400693994,-17.911022683793,-22.10719439242469,-17.284501760797976,-22.455749161928043,-29.20794892307815,-21.035240788192212,-14.141565620596861,-13.976067935402261,-3.5644633829681127,4.498913652145763,-8.74185936793004,-22.873467363814083,-22.707899996032573,-21.438032997291295,-15.85731681794844,0.6017068004509074,6.626072958692076,-1.9256941070703983,-2.1381660814322148,1.5947339190007999,-5.5174176703353695,-8.982722885095281,-4.672590364784415,-9.587345893040355,-15.268945202076598,-8.64680681041746,-6.184600863904778,-10.239206691350931,-1.9910033449744766,8.043295964464317,2.9336011114752862,-1.7962928086242385,-0.4728890831597541,-7.459718240366707,-12.062722177319085,-2.0135714107256395,3.582923549060835,-1.3643064521168529,-0.5981985637934466,-0.8014118939842181,-11.51399894315729,-13.948718414539842,-4.580422954991047,-3.694327630457672,-6.757208530537335,-1.5960793641545112,-1.779604018547048,-8.762218510711845,-5.432823511550539,-1.1662663835158997,-9.373576502616041,-11.957047556657896,-2.8119377106910974,-0.5217178470553173,-1.5851944628938381,4.291684033968357,4.244506796039897,0.6878997220364957,11.904431231188651,23.692582499514746,17.16901593069855,8.07652168772515,4.714404006026851,-2.9468567792604636,-3.5482513580104333,9.980995081405052,14.144278763120333,5.557476559116971,4.9276280835114745,5.438274530098999,-3.7447673804078154,-5.943331711558287,-0.7535953345500701,-5.315607123830378,-7.9782598364633674,3.738430971817924,11.06588846588387,8.784800743412436,12.070839637641082,12.93026936746244,2.542984125836797,-0.6287414686773448,5.2450924262773855,1.1250982953031028,-4.506008774530774,2.5753610492109718,7.397931043585566,5.773964792590077,11.465259935326772,13.141421711205817,0.44186934294296254,-5.52683002215671,-0.5926344090631837,-3.115685843181566,-5.044072221788019,4.6563353605508455,8.770908757146437,5.808126629080834,13.241304635082876,19.883436181901534,12.666882984821122,10.13068172665928,15.736075892404468,12.268684578545232,9.182779098740946,16.98054108358758,17.705831130662066,11.002277886257943,15.350194192133296,20.07351520349584,11.480440931922992,5.257235329825821,4.831090062601596,-2.337888135247588,-3.6870045005921996,9.9751943701848,16.49511049161993,10.935683113866178,10.948799885963245,9.902415024899831,-0.13848354189548395,-0.8658814707853075,6.927044106186247,2.852835249188609,-3.4797463204212042,1.8241085195639624,3.746328467570446,1.0770204862682782,8.866583365667129,13.86107876134854,4.29220973348554,0.7400410340916339,7.1208855060513905,5.164606570614845,2.2658966399149314,8.528605218195851,8.57875288511505,4.148900913242262,12.189124600627048,19.635578167593135,13.557934324916227,10.879502967655348,12.154948454990807,0.9783772392799008,-9.396973981221453,-4.897512935881222,-0.791875197036872,1.7562517250301384,13.493452835950766,16.099055647160835,-0.7564095574538472,-12.674439546460816,-13.828592556137554,-19.118866487469457,-19.309984461215787,-8.360583171905162,-6.3042145039312825,-12.288786822111597,-8.423717642940588,-6.294829552292319,-16.004596390393363,-18.023391024059997,-11.707862143361528,-14.861374605431225,-17.065129884026128,-8.539008385189103,-6.707416636061008,-11.103044250710168,-5.697990331286097,-2.259754400723512,-10.621995178100446,-12.693487902470647,-8.053872409358132,-12.602530686503338,-15.667144952927512,-8.223695564280774,-6.047172644075119,-7.936446053791155,-1.0467657710823581,1.0810603854236773,-9.55190641200543,-13.567539791460854,-10.128729854679062,-14.691640317148012,-17.068084749480406,-9.512102594094117,-8.72313897478695,-11.443489088173072,-1.8587424292664814,4.780327045953626,-2.6498346366991394,-4.908217291288812,-1.842694457024463,-9.405736891783848,-14.3705656148049,-7.313628620343789,-7.4974174084121845,-13.182835163643896,-6.734461277277744,-1.4425346661124647,-7.894452463719441,-7.121334375985366,-0.1511076978461494,-4.62345422520222,-8.029813737948082,-0.7585666923582401,-1.8081122774336822,-8.489557737048008,-1.2681854526245022,7.7028179107939305,6.014802099500848,9.035250712557161,14.48112141623935,6.607137127868672,0.7282728517425063,8.160878826447663,8.534686339704589,1.3202426565373266,4.748337103046772,8.399766216096719,2.5173524020686306,3.0500665183101203,6.434934949129804,-3.158710826566742,-8.996504813677506,1.456935010182959,7.533027457156409,5.882940544360075,11.57557120074846,14.000112642106407,6.469770648592553,8.28548340716618,15.883705833923257,10.660289637539204,6.316319194807475,13.76777430301615,14.484855659195755,8.948516839706478,12.738055191002772,14.332830817256554,7.294369378194618,9.208999965355083,13.98095725737966,3.85748902571725,-4.63599748548262,1.4557692831943774,4.015303409895601,2.151855159155644,8.992928617873211,10.696399282018385,1.9520072412471752,5.543199137975994,17.69101370199834,16.38390523746359,12.007663722904947,14.97330967368862,11.231970777715649,7.20429734429649,18.77080817968517,27.906415282759898,21.42270862640082,17.821129477660335,18.599273717319093,10.453839268571567,6.391609524750075,12.961874349556135,10.043632154208353,1.3034799814922429,6.066095026905646,11.378753433842308,5.935343274118634,6.157352245004574,9.419699631928548,1.2939454542474476,-2.5008931805459653,6.057301179598708,6.202876193740046,0.0617207992372113,4.340537091658462,6.579527409968382,-0.5528925405467393,0.2587581768339511,4.0525208254249865,-5.854066353930115,-15.029252840289665,-12.522038550597063,-13.364486638377825,-14.225699620266173,-2.3291480723591995,4.670566628771892,-3.8965348487663927,-8.377522051643552,-7.176815074247957,-12.679115142174249,-11.709996095365932,1.2801244108160539,5.786321387903859,3.3932047179012925,9.31198455054951,10.477469686697079,0.12430985277080886,-1.5880871800407736,4.501727309858828,3.0355126955370104,3.890116727807281,9.68757135369212,1.5509015488512121,-11.767191473216407,-9.383407727126587,-4.936977777988005,-8.845572306744067,-5.004605388433512,2.355902277383189,-1.5979134669082296,-2.8227951449740862,4.0299441609060960.10560511927317906,-6.585145099444637,3.5981947788382627,14.737473644834676,12.546146839766422,10.561079275422076,8.09146638415569,-2.3455474175094024,-2.4373818821368856,11.52809207852176,13.760877109830513,3.943204229871273,0.5030868474396712,-3.275051549317726,-10.913992658325654,-6.552618884761136,2.1797838257062825,-1.972810840954807,-4.770253420201776,2.7320833938795435,3.3583098902984085,-0.04684996915445394,5.97684949525828,6.85101566194084,-3.3741771035370256,-4.5258994515142925,1.0715482376251675,-0.4789219222636567,4.327827951878915,17.869173156674034,17.23020451101064,7.214635557427077,7.201394622204911,6.781827567258986,0.8410755962433929,5.6065144975581465,11.592650609948537,0.6204811561501318,-10.502697354943534,-10.166724637332651,-14.072158643970937,-17.953708744932015,-8.715794796143925,-3.901636295815843,-11.646912214305374,-11.546613760506862,-5.310020851990418,-7.6248712145627815,-5.880177762245676,4.211102692212034,2.6080532781800834,-5.739218687853801,-2.4939536111454785,1.144062191473515,-2.063579076480619,2.1025019924251604,5.718137985983976,-5.952490246262711,-15.420215683308228,-11.732045525181505,-9.796822213794021,-7.061342723835693,4.7612446218551865,6.956967078852955,-5.3750000098286215,-9.698152059884864,-6.795121260080835,-9.361939818624249,-4.812332751505444,8.117397988501253,8.563636743920938,3.30818902882158,9.3246766652431,11.666027203217322,4.050441643185218,5.27379471114517,9.21575463924085,1.1788820018126716,-2.4631099141753188,3.084502026650574,-2.1549899522837124,-11.100156516458862,-7.3843187420791985,-6.404879617620869,-13.785351149600707,-10.352944106678818,-2.9974600493433856,-8.40807636593324,-11.856936260165412,-7.927320809072439,-13.859301725897923,-19.49134069763799,-8.011558496514054,2.397664963473697,1.9101459537070653,5.167537526371558,4.267158622473277,-12.220841321944064,-22.0889909535664,-15.46413871629479,-11.703476864649453,-8.641914389317455,3.553958016438716,5.8321717840886045,-6.277891998972661,-9.861758106886292,-8.703603989310764,-17.28200315447642,-19.684358400776603,-11.101795279338543,-11.288439608759948,-14.384783225188027,-6.211636653526538,-2.087623758196463,-6.031304323954948,0.46380415623237026,8.490124059158754,1.1854659622591899,-4.965720677000855,-2.1180794133501735,-5.731573784878349,-7.827521948973302,2.332710054418799,4.542280003873185,-5.488294406874236,-6.305632368191111,-2.2603099438027083,-6.417572252860463,-5.193717168736974,2.330686660828894,-3.019961514817613,-12.147202840505551,-7.763855212572491,-2.515377764351774,-1.0511037548475368,10.188559421508273,18.613445927951954,7.993422906136493,-2.999294075846821,-3.7374173396192956,-7.998431530664633,-9.510410604818981,1.547878545964295,7.064357812852531,3.0767621779031344,8.044226771051138,13.803656733683104,5.515694188069547,-0.6801261285682242,0.4855709488625264,-8.040658295462748,-17.208896041366955,-11.442243449157584,-6.133105817856729,-6.566730094412564,2.4448694638845976,8.98879368036473,-2.1282775819275823,-9.307904737843716,-2.2653428872384316,0.08002457224514914,0.5814996912679359,9.505464481979896,10.826573689520833,5.399111573827727,16.870414995790462,37.273445803586334,48.61913674985832,65.02555952264521,91.93404391984161,113.55545144378532,137.58801618459992,173.10885908982328,197.82732126819045,204.18992357843615,208.82895056336199,203.9335533860842,177.20508774912588,146.57957668374172,119.03524764938842,81.74323263942635,46.94554991331327,28.48344818194671,7.3460144624935975,-22.56535921087479,-43.24518639920797,-61.52635617690219,-89.2348952410477,-108.73397931583183,-118.10530928410724,-138.15167605221475,-159.5099670478383,-166.09742354141596,-173.60233588465874,-184.14416737786675,-178.58636755237632,-167.77748647569416,-168.0451657726943,-164.79384527206105,-157.545103608266,-164.47361145069777,-172.05007056010567,-161.61271090906348,-148.07467741285978,-137.4752465318319,-117.72580039256147,-103.57128910621273,-110.43130332136765,-117.14269118698854,-112.43982731578939,-108.69099844154528,-97.25818819097375,-69.78544164008285,-48.280112607493834,-39.682132901392556,-28.3354145645187,-21.524130057285774,-28.2731504312879,-29.510544034105227,-20.84809374010414,-18.549952493084223,-14.72032180193434,-0.005932795771951049,8.131268606543099,9.163205960071526,19.63686136576281,27.112794960111675,18.932386443192932,14.082950464799062,17.80406283695079,15.066212349846872,15.678180979168161,30.328011875298586,39.63668032092551,40.129833089175584,49.15566943101733,55.96832190728684,47.837159398222155,43.89808930383335,48.504449047764034,44.90900150058208,42.60350190932215,52.880877732227944,57.500768642859086,53.25084514235061,57.010252023505195,59.71688035497727,50.493803256907896,47.700929420895896,53.753596808431396,50.417224560925106,47.01883173009273,55.934933427421655,60.886728798035335,59.44760695053612,65.64598209411344,68.26265162699235,58.34379194814046,55.44685166448761,61.06502791075319,56.65940928203254,51.2737901899499,57.06086652707559,58.86121971643846,55.68609995531038,60.49806311796757,58.7758104793373,42.19042639767824,36.035525167792514,45.17091917099651,48.955457203452625,51.33733250695242,59.23984882718529,56.14864040680814,45.73544785994579,48.9076826234735,54.62931764999106,48.35951280971079,46.09452411110764,49.519062810425844,40.64430789943544,28.72514496647513,27.234447136180837,22.93562389006167,16.617110998352942,23.98168262177343,31.536629104604764,25.824768390111693,24.2342630704193,29.113477115028218,24.561317177201055,20.88842929232862,27.562661692551103,26.53435312029903,18.78210034811837,22.0529012908948,23.544263014221624,12.514971456707126,9.774975643040456,16.193616189277748,11.84777232158939,6.343768322440484,10.793904156015039,8.052655297211144,-0.01938358761868031,5.9189876310907605,13.518813861634017,9.488414400380705,11.347586077256018,19.584401787660138,15.860077056994628,10.216135027179064,12.965760679515764,6.805459654536969,-6.660232104390685,-8.528280680412845,-8.825834415226606,-17.340368979397386,-16.274843965085708,-7.0619385796517316,-9.288969648903027,-12.951206084056398,-6.650147270615955,-6.84301321818599,-12.609059431884331,-6.540976466471465,-0.4132619678201872,-6.359621910980087,-7.608954597714892,-3.4113132230481424,-11.031726774186088,-19.738341577863466,-17.193100681220102,-18.93586589486995,-23.338591556367934,-13.79484167046359,-5.869278597466565,-13.820549252538244,-19.943744286491395,-22.39981102277904,-34.744583168916165,-42.4255575768,-34.77050576821309,-31.010747898668885,-32.06949034092225,-22.46048134951497,-15.913007997763444,-23.897540788810257,-27.009144316310405,-22.221525537766958,-24.22226446001932,-23.100694777468007,-13.247144514849783,-14.961434521127156,-24.965852317662662,-22.72436434232693,-19.581847498501553,-26.39077511148742,-26.77730325618638,-23.584423629543693,-31.84973321801676,-36.13280350732713,-27.395179019257554,-26.42889618172866,-32.204144403104436,-25.98179768441622,-19.188256759572923,-23.24705449344798,-21.99213756013939,-16.805057571490725,-23.782303256726497,-29.31758022506383,-21.509583019107197,-17.94017658345713,-20.00323246407105,-13.690243351994305,-11.210538474587612,-20.637812804865685,-22.637280709295958,-17.839775083635296,-23.099832410772493,-27.281775341313576,-21.88859168347768,-23.092032529897637,-25.968779951358947,-14.885163121329137,-6.899649143746722,-13.268131194534645,-14.945700493668673,-12.051243290937947,-18.428101148876912,-20.418356030488972,-10.45240019000449,-6.589728681692275,-5.963047890049941,5.3445077821424265,10.570394056685076,-0.7771352255479558,-9.270527480356055,-12.80534397487471-21.999061677185797,-22.591988841621948,-10.04947524917728,-6.365598287190156,-10.278446242246925,-6.210430513578516,-6.394627719545309,-16.229198659129462,-15.5838317116994,-7.96404223684897,-10.598174501603202,-11.244650273334715,-3.50287696783249,-5.980559302455862,-13.47950183577089,-8.53811202318421,-4.797537599969884,-10.269225696986057,-7.070058015212266,0.3899712582458914,-4.581625270837948,-8.097834386518615,-0.9878602889698835,-1.0138520052280828,-5.3515000322027415,1.13486516212456,3.2975553424789372,-6.845968940204614,-8.52787075170928,-3.560461766948631,-8.399413581477148,-10.39915027160768,-3.0285363827432428,-5.204891367402381,-11.483470515606873,-3.8769604100280035,3.156470051896007,0.6682963148193419,6.753194012003279,15.957881215506706,10.477234517928235,5.645094660672298,11.112222356294446,9.229497142324544,5.3420282851536705,14.807809990987847,19.4262162250192,8.913542225941963,3.5941151827793463,3.824232908607329,-3.0861741454696454,-2.8776276559183307,9.656213607922139,13.00012971303953,9.95299327582738,17.461845441078566,21.32311894328139,12.004012250035137,7.610061208869705,6.828084744145791,-1.8750424094415257,-1.2016434115830399,14.289705421575276,20.328831164516686,18.121660968614233,24.815382522858147,28.398597938556108,22.678749478536144,24.367296626090763,25.445406274475577,10.115085728185399,-2.933248450750518,-2.727986609344904,-6.33279255947604,-10.122745199230362,-1.0150034324392805,5.290312241497699,2.3007783915932594,7.644118698521566,14.277316387101145,5.794054140680846,-1.189367974679236,3.7120220476819816,4.38251989362977,4.427534697642458,15.068786122547664,18.46051915165529,8.163718360369934,4.935584723061176,5.86357620529162,-3.4856667952172513,-8.341404715451757,-2.5926799426568277,-4.65329587341136,-8.545635054077225,0.9696421276011806,7.441891868231841,2.6414989234635895,3.560445313403947,4.662808503884163,-5.700653942879523,-8.34488448514762,1.5687667924552358,1.824193207415557,-2.7465635851637433,3.851567111148761,8.265739988345972,5.31547896689934,10.246202927114586,13.814569487295675,2.492981302123903,-4.09311999993889,2.247448857428883,1.9849143236952704,-0.7072672470427182,8.273752975653267,12.91225365897476,6.6081541946376205,7.594621893701141,11.008922003325907,3.816899996359644,1.5381554251114402,8.090994718677019,3.688933482775118,-4.8243442931882985,-0.02310103952879894,5.032647742300861,3.3979232494716127,9.197197441829246,13.880484257812595,3.226138292416337,-5.662998535156196,-4.490154140993319,-8.688958256274992,-10.54904492440212,2.729102208948902,10.38067401282397,2.80815747902367,-0.6677853296479446,-1.5038801920101286,-8.99710301678599,-6.401659249574465,6.597061786866666,5.161056467931169,-5.503115812901797,-5.29555994828716,-2.1109548108045924,0.9783579446988682,16.409386776517454,28.995276742301822,20.70538658710082,11.574486857466024,14.125948138483306,13.605116256848664,13.215219965562895,19.969524547623216,15.752738629302812,0.45749639769971306,-3.1924703418269833,-2.273262508059841,-12.705743569563444,-18.88871215574469,-14.819338595014989,-17.152275142720438,-18.476131477551085,-7.075293125358494,-1.7913765943367062,-6.40261204331569,0.2050536908068139,10.557325819429346,7.724587047215966,5.582434716458333,8.32876717672719,-0.5267858855018703,-10.330325359801872,-4.573366851118098,0.2600065866218344,-2.542028894368583,3.191463310385317,8.294491161832996,-1.68422625929976,-8.718267439595783,-6.056507768711949,-10.541568380953112,-13.537985832402857,-1.449392441448298,6.490071850476698,3.235830696889054,6.293311284919402,7.9562453299373725,-4.086203611635418,-10.572727692554718,-5.105908053831634,-5.050640493010782,-3.813155733050422,9.638761475930291,16.18829840493632,9.759617938978067,9.277975923270414,11.023996753329348,4.912511720651498,6.854118715631489,17.376218011130987,14.869340937397803,5.962164560322417,6.074737153890331,2.8470095370023687,-5.046926929024737,-1.5990539242727926,1.0195373256318245,-11.856428446885406,-21.184630539736997,-19.13272057942227,-20.135001773167247,-15.699837040327203,3.082055231963806,14.04485970290928,11.374245340195557,13.847077799876278,14.946538076061811,4.834657139124849,2.532578326754056,10.052116913321024,7.784858425811034,4.080293469339375,10.456320440055284,8.863125526787432,-1.2279831678068436,0.6992822457910113,4.006073266111,-6.626809199661924,-13.943964018122184,-13.37463295541096,-20.042126389466183,-21.691127635463722,-6.757515804987656,1.2988311809805761,-4.5997517895112185,-3.5229695018903557,1.1537032307340624,-2.1104304533617477,0.8683860918573973,10.235694464229267,7.328873802627429,2.6355994201934747,10.265964978887864,12.529853981012574,5.28248592501012,5.240896773073675,3.748795536323953,-9.447153764012963,-16.038906863997813,-12.93894916963303,-16.226284467861827,-16.194311128153103,-3.279946390113862,1.7691243090734843,-4.600787945248664,-2.823593358215697,0.653097818435184,-5.02946474827617,-3.7805370493968717,4.978824689218713,3.068360436515912,-0.05010556308370473,7.70230841663787,9.780190127765872,4.852833858406679,10.165063841323862,15.032578446822678,6.914125430056513,2.582825345766465,2.9197395069933316,-8.452030618615566,-17.611974407783325,-10.967455176954616,-7.552943157347784,-9.805045339623359,-0.7495658030314014,6.995993521512196,0.5591283215587319,-0.9982620103568082,4.2883887042104085,-1.1444804426960116,-5.075433081779364,5.1348274727702385,10.045413792352274,6.377488051377281,11.17151668893415,14.24655837017049,4.7553084606960265,1.0387100602577855,4.144710886370437,-3.6415185711136773,-10.932765849856175,-5.366800407218175,-5.384532845598861,-12.815309678542516,-9.572582829830893,-5.443977216736089,-10.861245775036208,-8.183733185704078,1.3753740977374376,-1.5771548821694332,-6.073460256649041,0.9081507141451106,2.6862294549411607,-2.122658106305805,2.345564975533388,4.778278272679843,-4.535105854261001,-7.54389260932584,-4.816889397215974,-13.1027774204762,-20.540863565934686,-16.15461738085778,-16.01651689546986,-18.932178908248346,-9.614821889804897,-1.3391610766075703,-4.719310541963328,-2.252769978030187,5.175632334405989,0.31754271237272524,-5.53560024408968,-1.5169674796525614,-3.380025827201271,-8.461096153313557,0.920063393563689,11.438360191714146,8.096063199958648,4.73767890192037,2.566549379853228,-10.054298905780575,-17.0687428093972,-7.0805061244482665,-1.000037754564288,-2.74864021864054,2.5805691957588888,4.434027113705898,-4.01630230300659,-2.8151866362708673,5.755191133952591,2.9625469531886015,0.5577716363725392,8.136718007853966,7.275974504205861,-0.4570704865679245,3.0363100768181286,6.635837046603701,0.5014588330815553,1.3089260623998216,5.426460007544854,-4.30049688851804,-11.56883643901966,-2.5625949908082495,3.77841371570726,3.717297668021393,9.324149623101988,8.079782834554532,-5.042567451420673,-6.861973993142381,1.4946912314214376,-0.8628430484205243,-4.371173597324403,1.2589973584060883,-0.23962648758886984,-5.76460832698262,2.1946643707771187,10.34307176411902,7.313969226046041,9.296946307476311,12.858581410593482,0.9892009851357901,-10.475885244133634,-6.265727842584167,-0.9337080807358046,4.341772596223286,18.378451956644756,21.769437396157617,4.576695248434184,-8.036726042449471,-8.561262760594127,-10.771239375179123,-7.059287547604214,4.905401109163167,2.884178231442286,-9.734976473973589,-10.104857752315016,-6.606790248391093,-9.241094309229954,-2.632461252208066,8.588978484407994,6.221592800700755,2.5211018645180956,6.825076103119135,2.7551344196856746,-5.0109725443071556,1.620529609970946,9.7697360756037178.465791470806426,13.039145429952795,18.97829452023792,9.390527782199332,0.1814306669140291,3.8014054282683025,2.549026077984781,-1.7343745345260468,6.10847865741775,9.663818951795182,-1.210390901888137,-6.015358333682485,-4.955503817774218,-13.505455728487224,-18.66316427011082,-11.167628962345066,-7.64733984263673,-6.376099555508314,5.644960141994067,12.831284488902295,5.529620391012445,2.613528511172736,4.519852199355736,-2.3724687243196816,-5.844509843855954,0.8974219813564921,1.0819758606921022,-1.1037525547750908,8.123210265491124,12.404038874764785,2.5306607861684007,-2.8013040852472098,-4.023094609782273,-13.344730569158388,-16.149434048778495,-5.825085200794859,-2.1017496967428118,-3.442853410283999,4.549559658333867,9.04277924320081,3.912377160291552,7.438942672401136,14.479870129548184,7.575699244353105,0.9161540654087843,4.843931971007072,3.313283834124218,-0.494571126228307,6.900970135201531,10.187258859226167,1.9393742339243318,1.1478874512674753,4.012702836645849,-5.361273779513483,-11.725098179655475,-5.688789736862909,-5.230108807905729,-7.724454510039952,0.8431698821617561,5.926294564488266,1.0294424964896902,4.337146449273332,10.845287427116059,5.697058234156147,3.4045632865171456,10.44181255130475,8.758126127027626,2.264837172607109,5.994225553074834,7.367644238588272,-0.5127212013910851,-2.1161961590768406,-3.1609395180504305,-16.467225734037513,-22.662339556889236,-12.00137777463393,-5.367813717649203,-3.418474125584157,5.183628242144534,5.574110517227856,-4.6989517881383325,-2.2178852210058304,7.655706194046882,5.220221692131939,3.8065582488687144,11.256849472823733,9.915890103343777,6.02604697340994,13.867738090283861,14.359234626814034,-0.14158130600578822,-7.299552975036815,-8.705470984076197,-18.02585994766789,-19.65954377926056,-9.245953612174185,-9.180086040892533,-14.937194294948135,-8.895870285037748,-3.7758941667262276,-5.020055199770087,3.813353901428133,12.402873228655391,2.8893600454557786,-6.29535756406895,-2.560516409800285,-0.9940022192015922,2.3158696986578686,18.062813980059396,27.077843775851093,20.888732342660873,17.125206412235002,11.56473198025149,-6.586702936073451,-17.553493933868992,-13.192747778488886,-12.708750674067506,-13.625426086446026,-4.150792034108234,0.8879297281984595,-2.8064158434926085,2.1545578292560768,7.468766672071209,-1.4108605159679541,-5.390131698848541,3.7297402376123787,6.176140037506791,5.294745490840709,13.202595707644189,13.147369610244507,1.3702180186684534,-1.1560164550969398,-0.3004266325816135,-9.513271171083794,-11.112649042670373,-1.565958804345016,-3.3538633648982916,-11.755053334614404,-11.134081298363284,-13.257290463675528,-19.26421088022753,-10.982189864013051,0.7521912178999957,-2.6216101280885935,-6.370064562051638,-3.116654256091815,-8.266837553836272,-13.634616492077395,-4.596610754727411,2.2030657117518544,-0.521419355136342,3.5857148192444854,8.303355130560968,1.5367815590731393,0.5256286836388406,11.7064448762958,18.974293329795476,29.759349142902387,57.80460792830726,88.11395525686066,115.52634575426113,154.4029699225783,192.20037862851524,208.42441839584592,213.46999779302953,212.34144196606678,193.5256044379398,171.64364829014664,163.4985522408267,150.11288700872245,122.39402108253094,98.03792311652067,74.48434200356178,43.484456518625976,21.922161201728294,9.113315357757777,-18.194258709716802,-52.0442710306701,-73.73689551785318,-94.02332291951336,-114.74539985016733,-120.59924094612873,-123.88054663881786,-140.36373047975286,-154.40412806084743,-161.5068938293282,-176.60955648042716,-189.3460515366014,-186.78596867900256,-186.1954450658211,-192.31993698662873,-188.8024236977468,-183.61025296059177,-187.61405786345148,-183.001463361188,-167.541527401331,-160.7541754130729,-155.3359507262258,-139.58850086581154,-131.25080816550104,-132.81070198158721,-124.36663037728417,-114.64262528725253,-117.55461846358634,-114.30136414250163,-99.74258166903763,-93.00990297103124,-87.15045781497699,-70.51247596698938,-60.94357621542086,-59.93713969279628,-46.99239885637046,-32.30166846511847,-33.19756864314969,-34.722537625197056,-30.833472667867834,-33.92427375859121,-31.85864200182276,-13.733583558799058,-1.5799644487702986,-2.0569414373873647,2.622695656893434,6.474318900218974,0.5195600528772704,3.692296551588827,18.46588788873399,25.6544958030321,32.89216204878736,51.5390837547488,62.94862108875639,62.09688594581333,65.62283516150326,66.00006349405405,54.14612195889778,50.95192074755972,60.98865196251465,63.8965715653689,63.23222414480573,68.81826683493153,66.15807317058805,56.64507486447843,61.17786661695581,71.09323758241928,69.7373778092415,69.52219952551036,73.01654766125745,65.83348558367271,60.86957383021599,72.21461996648969,80.23111777881452,77.40835279883173,79.42367786692157,79.79955982613707,70.25278087916374,68.95394779290916,76.35141288759766,72.982517127985,67.47204336545883,72.81622694415081,74.25319548205653,69.0920596396541,71.47460618883014,71.51757484292193,60.04698308018561,56.083352952629895,61.985412284586275,60.40857681909783,60.0672022773753,69.86781229228004,70.6176492694965,61.752498269872945,62.48991274126284,63.37536771542305,53.220762387713506,49.57195257961574,52.09906835608516,42.61775206135304,34.63280475052013,41.98425490746203,45.185554190789546,40.4618447466556,43.71360569824506,44.09639202679823,32.24579112049258,28.775874988014248,35.16084462457318,31.976158567039583,28.75693973740507,36.65596907357791,37.23443951987919,29.259782884618396,29.996704534671924,28.7958572168863,16.509679010444398,13.18555468079241,18.3880504176634,11.810846814247537,4.397507002216406,9.955512270738705,12.416754359586903,11.017986899979544,20.746124580423782,26.500069851507128,15.711713559189239,9.149510567457153,9.47191825549851,-1.3002728239692471,-10.905185338074226,-4.961360034401543,-0.4634203243021402,-0.27615448093105366,9.328020089936409,13.439727628694438,0.41012895881289335,-7.425826180923459,-6.173237326522798,-14.535865166202294,-23.427919670419808,-21.608154065946334,-24.364149818948164,-29.447977691937616,-20.752942092669684,-13.012670107770692,-19.126169757288,-20.4972710439192,-14.49605367664918,-17.670946521322264,-20.623055024550126,-14.60280486908156,-17.940975901997863,-28.53375134576262,-25.806001830077967,-19.677610552159788,-21.967296839156784,-17.33200380166113,-8.837954697897855,-16.02825798843344,-27.637560486525423,-30.440540484690125,-37.774499384938345,-45.76790037526183,-37.372375061017316,-26.966921750937665,-28.498741296772018,-26.93087365101396,-22.669949158138966,-30.132619163023914,-35.63824360689399,-29.12962460897361,-28.993105064499215,-33.96073693168432,-26.613375080161248,-19.189286224210417,-23.277631877370002,-23.15688479264472,-20.92695000086902,-32.165821284656204,-41.07876026719905,-34.68408155354976,-30.68449750957925,-30.041018315729104,-20.181219563878884,-16.680151470958137,-28.852103363886904,-35.6409852277438,-34.20566757805826,-38.04649829193647,-36.150759482079145,-23.85098468937969,-21.960648293139396,-28.20036336599808,-24.535172403849494,-22.251593346752678,-30.330813039942832,-31.13252440853194,-25.63530959189671,-28.77401470928126,-28.02633941782897,-16.77363427803283,-15.969809903539565,-23.254535929628574,-18.868953298127952,-14.292476318663896,-20.43720956412887,-20.360790360454885,-15.825482993917044,-22.25953926905301,-24.920421746986587,-14.8569310792785,-12.992505461371419,-17.83334375283871,-11.090661565324577,-5.326031814345285,-10.537996427776084,-9.072482967758605,-3.2658263339923317,-8.955946144656595,-12.483786580108484,-5.691120262503642,-7.410938122833259-13.734004824700998,-6.393324365521008,1.2043108853433164,-2.2732547754304706,-1.66987783956883,-0.49255060331103406,-12.758371789283995,-22.1456858952503,-18.148513761241837,-17.28038178242871,-16.528509575451967,-3.305984749055537,4.365096148592484,-4.019746896375336,-8.899078618165156,-8.97390933940155,-16.332051373437398,-17.818178399683966,-9.560246971445473,-11.813005645865003,-17.47212191137943,-7.070077266162125,4.069823654652453,4.101599014918307,7.6261748623637295,9.798104971577322,-2.123170234741294,-9.944995651110258,-4.6088368914970115,-5.2486457414885175,-8.002771912671442,3.7544955469485313,14.470650732499053,13.1776592543849,16.33353734638032,19.18790816661675,6.74596635780522,-2.8517559034394635,0.9954469471408682,-0.8838688589070016,-6.311526774091514,-0.8133311694260312,1.3083715258268727,-5.850343749098739,-2.3580070595859923,7.487022354869597,5.898047656026362,4.896251274198081,11.865524900144875,9.572025939262403,2.626152896068282,7.105502611053076,9.488673743523986,3.275896933913642,7.2212788868802855,15.577780242726412,10.070242032195832,3.446833936825116,3.5962895977425773,-4.661331331907526,-12.926850836537701,-3.765734210642462,6.991856109548716,7.943815096183726,12.897330995702683,16.640551451197727,7.107350421119037,2.6640663700097345,11.787252961470402,14.099956995522437,10.755840419195128,16.707237395142112,20.012116476458015,15.156079589979914,19.473204380336828,25.992548317951712,17.813687569071767,11.269480242957727,16.22327090171045,14.774402907197436,10.245033412485613,16.63634742059491,18.66425927753935,10.043553049525315,10.369886752149371,14.85267735222154,6.71611035267659,-0.20145461984873592,1.6407632843586069,-4.158371392832215,-10.52747852066644,-1.5906259239843275,7.184131061098755,8.13946159635699,17.148203418809917,25.914613539711556,18.20741611033057,9.373129048414949,7.2203051460945895,-2.360762771037365,-9.425458913049903,1.3634003074158914,12.264579486841274,14.060186846972083,20.693041690826416,22.605720251573395,6.951763646287434,-4.6048312954008885,-2.00880579537041,-3.295706917065364,-4.637434878057418,5.138536369591149,8.466533046408015,1.3303199325398198,4.916379133742475,12.024197413225181,4.794900574245696,-1.093678697208707,1.8510014214407156,-3.697310611238657,-9.116436915172187,2.0372091637076375,12.013683034390896,11.435976051767346,15.964739866490437,18.08228110308439,4.465994259645475,-5.2236435671956265,-1.6924279893794398,-2.6291087672158215,-3.887920774730473,5.894035501917737,9.474130103406932,1.1754006143608318,-0.8929485407533917,-0.8316836115685499,-8.717263426360546,-8.027517911609845,3.3960421622322543,4.610110355447336,1.4420482231152518,8.461263555513014,11.706824002609348,8.318911811376754,15.11756209678706,21.854643116549603,14.716190583893251,11.582043351988416,16.7039315595385,11.684832636824598,5.319446406500175,12.139661013527185,15.088536540345808,8.512578485816075,9.081094286749446,8.640388325174932,-4.454471348490287,-10.632136895507106,-4.151021207383138,-4.145721644761056,-4.960224338802075,5.956704410758764,11.379722941858407,5.47729040363862,6.486274763317489,9.014746320294224,0.6421779604540196,-1.309840386831235,8.895487028122753,11.70506040020289,11.003927835243347,18.464246879995816,17.91376250696367,5.620046154868199,0.842950848554598,-1.2950251513200948,-12.757722795367092,-18.530023336823422,-14.727936208293528,-17.379479533019563,-18.684151310656233,-7.326881844429326,-1.0010024430476427,-4.140591743046497,1.1200755049617466,7.803007740483328,3.3833327584985695,3.2246913328370232,9.640228822259738,5.5271626740609765,0.3714022578233429,6.922870873691236,8.006385778809427,-0.2912938717330502,-0.0049092303385895875,2.101622041778296,-6.720342492009186,-11.643571135085617,-9.637265409323781,-17.320356395794743,-25.190171759221663,-19.4979357285059,-16.998260745506357,-21.281749865916453,-13.854724295299182,-3.273768518053993,-4.374914546783669,-2.392036930004072,5.691968443147245,3.0482085283159006,-0.5816740386511687,7.748076480026349,9.059136158599879,-2.1293461315170736,-6.890691932698212,-9.51602438956577,-18.99128614909247,-18.907563657613217,-9.48679184477675,-11.379727478179495,-17.23674853873691,-13.259444069612194,-13.05142600742272,-18.10837294476151,-13.35300670623436,-10.330746179494202,-20.450940743310777,-23.896812563831134,-15.962351059525508,-14.452293274450103,-12.596943247567964,-0.8689860794073434,2.0184432881117553,-6.00756440322971,-4.647285716990586,-0.05011795262523755,-3.377185105647411,0.6495617887495366,10.823222441377203,7.057978104395257,-0.3587403526416608,4.734243469483161,8.905104978245532,8.185719301505062,13.853032133290439,13.318537245961956,-2.5128301867923293,-11.645176154885592,-9.000350015152236,-12.722627789009241,-16.423808856019473,-9.817914143975218,-8.427381071179896,-12.752509598574035,-6.481087478913568,-0.15248787813363784,-4.816987902876668,-2.7048502523366875,8.07384877449071,8.557094369033903,5.070011794319019,9.104426027223697,7.740927233171102,1.953271574578969,8.401957574911274,15.54954047578832,9.708061098820085,7.291754401738005,10.979149891608087,4.371368414481747,-2.3648552239897045,2.5181355790689506,1.9441773575162637,-5.604702011155331,-3.593210379964964,-2.569074624143936,-12.104378532807232,-12.995476668048347,-5.3302745103255,-7.95242472341975,-10.206745939211824,-0.35903757288830196,4.406189800703632,2.578817688391758,9.405977070052069,12.65068429914818,2.155438223621951,-1.2188491407266873,4.630463633561009,1.4492056417022883,0.4190565027180038,12.375114340423607,16.61410273967166,10.433865986075496,11.381651143412087,10.089027581141565,-1.1561953952226016,-2.0094242447819974,6.161589047258281,2.5204340300496755,-3.518839117798202,-1.2815720258927565,-6.302615346382952,-14.512246015360539,-6.543254738345553,5.498228158793078,7.337739985536702,10.592642360525922,11.734132135163467,-2.1904216563192582,-12.352246574453941,-4.771941790577518,1.9342841563823379,4.904546259184124,16.10984877385994,20.870046264045392,10.3536435246973,4.893770079706885,5.453601416583515,-2.9430430262316585,-7.571281680327594,-0.18306922818468951,-1.1635109470836693,-9.767428541395164,-6.767335952417669,-2.587190734899878,-8.823568321062194,-9.383779465648702,-5.051342871935226,-12.088363128906304,-16.77516000567981,-7.313320489249421,-2.873066587252104,-4.5250350132247785,3.3817674797785204,7.778411019661219,0.10095840468341688,1.270375722481945,11.039245874111689,10.970011952943763,10.56836660302741,17.631506311596393,15.356057967518545,8.57997889732664,14.594562128483046,17.550993253468118,5.3245132964911015,-3.1178423403791125,-6.229012675845779,-17.168518552428488,-21.785433054062693,-11.69648457457675,-6.9161389389625265,-7.487782173635297,0.39685688875228786,1.435823756467737,-12.030328891708994,-16.121692737857405,-8.344674466761113,-5.916378828410921,-0.9938276168973459,10.829313650596504,11.384531506782505,6.53349920597946,14.984055888266754,21.947004315605874,15.445188124837394,13.665312250109114,17.244184909805977,12.173620313968723,10.676986487386017,18.488860835518427,15.471851488501981,5.099908402955022,6.54342277348087,7.756436867852679,-2.1369773847728717,-5.980556561218539,-5.5956904438334725,-17.721371129790732,-28.326226954146037,-25.808665183950644,-26.319427557844932,-26.05130480154656,-9.25297998779563,6.404362655025276,6.6592141814347485,7.525928674135839,7.859106323140293,-4.227008297667857,-10.486663307172222,-1.3994693488993808,2.7692386670653937,3.5686817059606044,15.446201532080673,22.65868604188029,16.498075485493764,15.855203413003816,16.91519762553815,3.371336560943714-8.357369345486894,-7.009087843369111,-10.523139328652256,-15.98897577741652,-8.15118191459985,-3.4161552699023225,-11.637876296243544,-12.91187368604292,-8.108288837297302,-12.578841030245313,-12.679582661569441,-0.5607931112802911,3.1895028613593728,-0.5951791450447312,4.523045368083702,7.180608023044397,1.1302982621636715,4.8396529541999795,13.37639178725616,8.142046627470359,1.956515876604948,5.637820743055453,4.464393083696853,1.7544729298588382,9.756563838771706,11.847465119248996,0.6294030716228773,-3.4485024727380846,-2.451097725996266,-12.605515849775788,-21.430479685009974,-20.617576916084765,-24.835589496360605,-26.86727415215281,-12.14213335229549,0.003413588618629504,-2.3002235872838708,-1.3180126799769176,1.7455601330587118,-4.1706828502466635,-2.6168035155305347,11.005466823274434,14.050193520481669,9.01706884762541,11.928975035829982,10.522435005734978,0.8096422732799149,2.285346625305709,8.94673283905674,4.046133525581725,1.6700764805344313,8.278174144527028,5.591039093294793,-1.567049327950405,1.0325366307880128,-1.1190048300733952,-12.14614418515326,-11.409696697025868,-3.206889642734505,-3.9336000516665206,-2.4306752056403917,3.9864547242493296,-2.6423655096059484,-12.181804028168814,-5.836546724121677,1.1172673857886604,0.4718154264178036,7.80622520924396,15.319326793218055,8.623657833574597,4.6914074801688805,10.613637354095438,8.272757611467897,3.448195247611126,11.704770855387123,17.866345298762255,13.459642182791235,13.564563894015029,12.035907802670508,-2.870110501391448,-11.759157234810342,-5.518453851316702,-2.577729638045121,-1.8429714132555164,5.725167478914773,3.6111713325220003,-9.743767150562297,-10.833736836278288,-4.014054665713332,-5.86811761370841,-4.71605880316193,1.6615194524990207,-4.564524018470287,-12.893911169189929,-6.310371096839129,-1.8337895252799614,-6.51146689252902,-2.836684497071991,1.9532843783404472,-5.526214293945435,-7.863293907358102,-0.1727426551851896,-1.0420072246093846,-2.967383690763156,7.4494473344883785,11.868357572323866,3.692262798814957,1.5566245681025639,1.2155451616099233,-8.033537809717473,-8.967077397133187,1.1695239915876234,0.7564996462694815,-4.478467036832982,0.9037510518648939,3.1936877821411978,-1.0307107511009939,5.4779527196950895,13.242039973325793,6.897152496976511,2.7533379663063973,6.603257028871235,2.036166201191092,-3.131330989630147,3.6555388456416207,5.203628704142518,-3.6340774943242313,-4.616732007744492,-3.4597140960782093,-12.311092503875285,-14.466649505547307,-6.728542425349938,-8.795664493587449,-12.500829393604821,-3.0405211888924053,2.7935767149077297,-0.42108468621300066,3.573920908524089,5.942459765870024,-4.951299199102306,-9.645687455042737,-2.9649744183346374,-3.8703643904391196,-6.531077498287821,1.6476255807619138,4.881598147671901,-1.5468376779986732,-0.20255424841054825,2.4822262899599106,-5.742065200640578,-7.431925229506426,1.8454590142659,2.125107412550463,-1.445218952349674,3.064115807943942,-0.11456335991730504,-12.36357881018038,-13.086938865430907,-8.251264452183108,-11.279429069736702,-9.16266891672121,-2.0498788082284354,-8.46549371141804,-17.157286805893662,-11.004549987770748,-5.029687639984047,-5.006744905873024,2.228629185106786,5.468404387924298,-6.109317958892387,-11.20692943076891,-4.477065399503452,-4.767777247187228,-4.176204468570798,11.51650102883017,27.384169523851583,40.3229637539295,66.85307139998258,97.51216038968414,119.46594500787378,149.57383946043265,187.29249130604805,205.0493505639012,204.10563165168344,200.2478237264809,185.0417630948685,160.99742654613814,145.59774310774242,125.59586660830921,86.54423552587221,50.71720780609905,28.217723859038486,2.920330825799435,-20.20001831040149,-33.63671176557315,-55.91775626711716,-85.88523452695306,-101.13257986041813,-110.09150585881929,-127.06787879769874,-137.53688130386087,-140.67480489504675,-153.1023372188942,-162.66914211144223,-154.83658365543033,-147.28084161491802,-145.760236900238,-136.13502678850608,-129.6570303508016,-137.68897798986433,-139.54677885827988,-130.3674058726844,-128.12187064838756,-124.30434204138707,-107.81627790742773,-97.47637368431346,-96.52518947985226,-88.52279468321177,-84.3991008679358,-94.5960278993118,-97.4424675449013,-88.05676482151416,-84.4404113563019,-79.53835820383802,-64.08068711877908,-55.00518022122774,-51.81081170773906,-37.2771639116865,-24.871629310290626,-28.831965408173524,-30.80456354324275,-25.5702893214891,-25.932907233219886,-21.096697009293596,-4.501777262290068,2.8091131365809003,1.178821875797,10.773628695885886,21.853777761740243,21.132122383294366,23.136509320972486,27.783571298088457,19.89293535730477,13.452927948102662,21.52170887604691,25.848018835687665,24.158073469356808,33.017399281291716,40.64132537443791,34.38192949637428,32.227003881512836,37.0858011186694,33.79121782303615,34.351429301300584,48.76950334604092,56.18901895278012,53.952150553726625,59.407112755141796,63.04781942921136,55.670245310690774,54.999081754683594,60.549440707449094,55.81834019487477,52.99058550828588,62.10419989580838,63.04868087152366,54.58658696491025,55.17816221398787,55.799083403788934,47.846368999485236,48.44388032447135,54.3123324627039,47.382608952437515,41.102506502978684,47.611860642911935,48.59199317101421,42.5562111753903,45.869602768931195,47.981336910451134,38.82238428789762,35.82918760277996,39.72913561482039,35.45325724042286,35.11346530657081,47.246997521814926,50.4609006695738,42.52203701048282,41.73881233892354,41.002943222199626,33.584657266671556,37.00725737405157,47.223901180553476,44.477120883923924,39.750720281251276,43.18251297018439,38.92071393078224,30.196300083876885,32.97661041783861,34.039489144913034,24.565720537881255,23.388347490180017,29.314660973352055,25.263417899310852,22.128145837919952,28.124352777416895,25.569057135202485,17.375029273170984,21.17429844649445,24.076857831114374,15.286286919912746,13.468956041359661,18.812813364366654,13.889792109467741,9.645056614520946,15.699477753336424,13.549847254576889,4.813080874933856,9.04730880094823,15.402343499845006,12.336083730779507,15.341346275012542,20.53694575413437,10.458331583888015,0.33660655290269714,2.9074898411815733,1.3291544718322745,-3.128184324746526,4.114033662972416,8.247865494354137,-0.6172003242941448,-3.559097750754197,-1.0372494550361375,-7.7760185650806335,-9.751346721131856,1.3715205841504226,5.560761106322995,3.6446084601995947,10.73881731475921,12.935340359277953,1.8923437800438787,-3.1837031642986116,-3.497699013146138,-13.638141942774014,-20.174772921762596,-15.71042780571231,-19.094310336309015,-27.0139003665897,-21.946860483427923,-17.10364870061345,-23.276683717053597,-24.91655944692195,-25.22789614517157,-37.5216706193981,-44.574909789492494,-36.766112261833854,-33.86315679755232,-35.11604818922204,-26.104492834340057,-20.25361603347722,-24.77406206929622,-21.939900497186553,-16.68172068728502,-25.221105602744522,-31.57689319146757,-25.029776588622887,-23.48618506957532,-24.910045091233943,-15.00155489998613,-9.614379801571172,-18.104589431167856,-21.11935362916706,-19.822241579440742,-28.658494927759687,-33.178607538135246,-25.62858669164389,-25.97568506413428,-32.65849499338393,-29.970623951323837,-30.003128104935197,-38.787804633704944,-37.495106516579476,-29.801030396107507,-31.61262224759812,-29.822452488306087,-18.536653261463258,-17.986984180731266,-25.512066032838447,-24.481407665450106,-25.198551060242107,-31.396378352368988,-24.302072246102448,-10.880217350702853,-11.297148129404281,-14.326296580006751,-11.553911337821711,-17.25739806544778,-23.42524654108993,-13.87651253411786,-5.237273598188886,-7.548578255583806-4.806339952774689,-2.1981099943506304,-13.553708971570076,-21.616540823289583,-16.927220967407003,-17.064087615721625,-19.011118769605474,-10.00765524255117,-5.867004350973799,-12.56637282752736,-10.372165663618627,-3.983014075422329,-10.156858890436473,-15.55180555278421,-12.188129525088392,-15.100920676556726,-17.587870166607733,-5.824685549783713,2.8438413729061733,0.03458789247168381,3.4293839343804455,8.09595783758954,-0.7713653419079103,-7.716645534826535,-4.9243389880996205,-9.774050729813286,-16.976113908844585,-11.098325963467095,-6.121731143303332,-7.875970788323937,0.41960874179177,9.612664308719186,1.9548371205107218,-6.542225506014999,-6.366765845352889,-11.771716520721837,-14.00106540376477,0.13070339409780551,10.148978656344589,7.018731136087928,8.164154874194095,7.405127476929956,-7.469828278019231,-16.780611767200483,-12.781603370113158,-13.854733638870833,-13.3911809753336,2.9114403472752084,16.264890623211674,16.72808886021479,19.672498116310972,18.90650874520179,3.2528299931451277,-7.143640182742413,-3.2473408880349464,-2.755071280021012,-2.18801099672643,8.944438392643761,12.608255936888646,3.2695883652777478,0.9297403736157858,2.1190610151535796,-5.3973323110880385,-6.381514139292259,2.380072441738566,1.1358174058196184,-4.065328094419399,0.6064802709906183,0.6487517876047666,-5.9506833979416,-0.5747472405140934,7.301623817053737,1.538153428196524,-2.2415037274478635,2.5099801747046957,0.6699401806864045,0.04486868974752606,11.82207013153659,17.419620325243223,12.334184454449634,16.07688410746733,21.73238254821118,13.746469879141205,6.682700043259047,6.976017997355328,0.4169946985329114,-4.224950327427024,5.180071485165255,10.783815026812652,7.719364823276308,13.814981564151285,21.31340180715174,15.76415258069759,12.147342540727305,15.371801529335718,9.802783199912653,4.010535442358497,10.084545415621998,9.784086411292902,-0.37067272893968095,0.8006998714084874,7.019621758770536,3.110256502244183,3.0204475401268995,9.101908859433713,3.7836476853431646,-1.7749611133954535,8.570289837310723,16.993165444959082,15.371076258789742,18.680052805780267,19.355665070363642,6.453425087596124,-0.866752442293151,2.945093194084401,-0.4904297552640857,-3.718179140154478,7.169684651605353,14.804309372892728,12.045671239402663,13.859793212020772,12.66723070003125,-0.9215116619103574,-6.6801646780943695,-0.4305108974608691,-1.8700902836203768,-4.109403717662554,5.700463759112649,11.073845523824724,8.525704756724968,15.272143710247416,22.136083886466135,16.02152159290128,13.249085076046905,15.371576238972011,3.9941707463910796,-8.50542644604786,-4.334270985356335,0.30711284418229723,-1.1557831256971582,5.580263749203391,10.284551930139619,0.9675779051699007,-3.2435200624330727,1.2718005398946355,-4.801772425902423,-11.422091004419073,-1.7081547904046537,7.996687932230419,9.965800185979749,16.964241576123925,18.455915828158357,3.8613067434406063,-5.418767585835336,-3.068530437825552,-7.21058367066982,-11.070206290831766,-2.2133678494061986,3.5477134104463413,2.912986523900078,11.062554264243577,16.656674224260815,7.83075023702961,3.5535484055049587,7.802574602740127,4.858943848142254,4.167915842137746,15.278716753756417,19.251820150452183,13.351838412309407,15.050249367367252,16.251171341283538,6.959100037143586,4.655522328477072,9.929090365161425,4.098346072838265,-2.7658834967196366,2.132669893935216,1.7161667571218433,-5.51702284602576,-1.1691571980709186,5.046024228231041,0.42251303778146454,0.8131876432200956,6.179371334732475,-0.7872871615779635,-6.599449372506956,3.2723269860389443,9.650367944031471,7.165655952650102,11.326112624329587,12.891170972199308,2.738871832933296,-0.4557808137714018,3.863318815032857,-1.8023597212040623,-5.984765004707836,2.58970933564113,4.722236598245161,-2.431205666065964,-2.2574875648820605,-3.1031310458827477,-12.45894041085334,-11.874403712296001,-2.4413906397355056,-3.557058153971957,-6.2013927164357385,0.4544220459562176,0.11570958278316845,-6.632577129069249,-1.9804710242468488,3.858332390592147,-0.31518421756901294,1.4390541623997017,8.156882319656441,2.1346104505309436,-5.730776784089194,-3.7978931178484903,-7.497893877648951,-14.36331080383804,-7.320384658234934,-0.9940091022711401,-9.070840839119098,-13.942959630464351,-13.221658233874436,-20.383125081998216,-22.39628091473085,-10.840428083136382,-6.684157436965575,-10.246905699143563,-2.2615598388709017,7.155894941768593,5.57065055035977,7.850709150481528,12.848439559039132,4.724305402555046,-3.070517146891505,0.8556830592442624,-1.7386725052185095,-11.029181164634492,-9.735124852591628,-8.160774191707992,-15.815704794748777,-15.697280961247607,-8.8379760221554,-11.870816936451524,-13.747664893272239,-5.076473521790058,-3.1582806636966008,-7.172010656061544,-1.7889497024622383,0.7733692508959611,-7.199293545274918,-5.870546561603248,3.946584819176119,4.503297623959101,4.880152841639548,10.935637055826293,4.982594145630815,-6.418164610519989,-3.105831908723091,0.7967050141620456,-7.1627702464588285,-10.081527016950556,-9.12056899160734,-18.297121947998566,-21.421082641308807,-8.562878042015598,-1.2971314743330167,-1.3777739979386312,6.705406690180981,10.838954937262338,3.225722034844896,3.559147000275517,10.225492809371216,5.734626813832259,1.765065645883117,7.502057679327879,6.165233055624449,0.5910225098491104,5.640478030709572,6.43932991598761,-4.9956124406725415,-7.473866155889157,-1.388506987552407,-3.369144263213477,-3.570360660498105,2.424762267851413,-3.085099795355962,-11.906215874840141,-4.471392297197002,3.556648578721415,-1.0375124870621768,-2.756204436179193,-2.999531339219889,-12.931580695559616,-14.805874441189907,-1.1762244840554814,4.852409401343379,2.684661106569046,7.5975872368832045,7.0004104579088935,-5.442472680936973,-10.010056879411565,-9.055740206816182,-17.462692514781367,-20.373697031316514,-8.919181562985042,-2.9074443949924333,-3.550462068445036,1.661309308076929,-0.48671057294452913,-14.438845126720722,-17.223897081432867,-9.833004390689492,-9.59658859273368,-5.81062880490474,6.879781108643091,8.790228342342894,2.780555183202625,4.35808607755199,1.0306682427370666,-11.637429255922418,-13.238862281585103,-8.125495569338849,-13.619038339901978,-16.652766012084186,-8.806455453570791,-6.554382691774115,-6.25214771795762,5.164055495485597,11.480330685771237,4.475056544475775,3.2405520283047125,6.359074269874159,-0.36213105945617174,-3.821241933099736,3.300489494443249,3.6082774130984854,0.06816707303674274,6.5696491899754825,9.31236166623635,2.084616477637305,3.0102287836341786,7.553700320870301,0.6985042965696664,-3.6025326514367704,1.2726374531002538,-1.0592221951315373,-4.561363173339814,3.562669769881575,5.602375939643535,-5.412151425231548,-9.50442095068992,-8.023004749419119,-11.715448965713975,-6.121438698874254,10.076994197025282,14.701344554480457,12.158880496030442,18.59841354371301,21.69136148514532,16.25842667604004,18.29752445891873,20.266560183876344,8.789266622486414,2.4169227944447167,9.122937996103714,9.290072189974794,5.463580678913212,10.516495509040153,10.100540085973265,1.4775743725057184,5.3590167464737934,13.355866469166651,5.834045923603968,-1.5119499178029447,2.5656501542468955,3.2409504065716863,4.819304171319105,16.352329161926605,17.172893308572615,3.145738495671148,0.19209477133717923,6.693763206465267,4.902866412445743,4.348421402401499,8.368123009292162,1.3915714404516097,-5.849235604646052,2.8171182334864695,7.968006955106081,-0.47025437584534835,-3.0815526543142244,-1.0346415700855087,-5.006106728116766,0.5068010778786465,16.63226027893089,18.8079434298773,10.74983719473360510.340772625438127,7.5490801353226535,0.9853412913326016,8.919757509402357,20.322404332973147,15.772395979879077,9.473527757096212,8.988743033126521,0.19510578540446932,-7.477546224204639,-0.16480992866393063,4.153523424374922,-1.4283672925926116,0.8419401346674,5.343483618419244,-1.5977388219761335,-5.6224788907191945,-2.029924258130882,-6.914719093095359,-11.910547008813733,-2.8648287647898236,3.779567874645591,1.4219156049068873,6.121829435380659,10.701635451645615,2.5975965036333193,-1.5789729106459307,2.61328647917314,-2.79758508723012,-11.067186894467739,-9.284300397843884,-12.803999485058183,-23.264138319841013,-19.437792197946603,-9.234087050967286,-11.27483017558607,-13.6730559589098,-12.271940265925947,-21.213694033626375,-27.36307014687029,-14.356526889104195,-1.0825759709064937,2.732420774153952,11.352358377215866,15.739198713372499,1.8199245877678063,-11.523291120568025,-14.280816334604143,-20.495346499278057,-22.482560920648787,-9.087775527318694,-1.0182599643259043,-6.413736438248337,-6.538054082220297,-4.386421690332327,-10.144924781149866,-7.990940562687078,4.086021585787849,5.43801806830718,0.7662332638850573,3.560013534930643,1.5165712706159613,-5.656937996135735,0.46398652686146535,10.139675586140392,7.8313051606633595,7.581727499007542,10.952996608271931,0.9145514973243825,-11.390006501430275,-11.278488608708164,-13.399725503945547,-18.542885426689068,-9.722348773833568,0.9558821995807749,-2.0242640172945126,-3.1270245045426748,1.444741404708839,-2.667815125364677,-3.6371077106119185,10.254165934249528,18.14801071189914,13.842926667475446,14.978849651813533,14.93328623250735,4.180839415964982,2.35717938608865,11.03859781212326,7.8704556949733195,-0.05409960004734993,0.5156290704247342,-6.192211831679697,-19.04017603612196,-16.610730365985553,-9.253832654067889,-12.85550417906332,-11.631805505966579,-2.5582403930397914,-3.1101253607022015,-3.9961232346080786,6.805306922555362,10.271002280714738,2.955518138660215,5.497482366545198,11.615042017991037,8.128461208673537,10.110153858231609,18.351228676701535,12.315659681419714,-0.1204031954290663,-3.7961055863503943,-11.55013658935078,-22.705146030497637,-17.721023404731426,-6.8698919590393634,-6.432337823162674,-2.7662718739958128,5.279476946922166,0.28785229870552476,-6.702420018658892,-1.4498258679123364,-0.025784160543389167,-4.4166671995161355,2.2953452557797194,9.286802089671099,4.364880060353264,5.814361456278653,15.385233102817061,12.985289499572135,5.499756873397158,4.498776868785461,-3.9547314909636704,-16.868809849756495,-13.654590513030517,-4.758544891561958,-5.880618860450573,-3.099026391570386,5.0488204639161305,2.569700000006698,0.5622289676832773,11.59893118627839,19.691740577442197,24.14229754653303,43.24153404766431,68.76661268833878,89.9470192946855,123.27198409294084,166.57049800160294,195.12430459531282,211.29784570303002,221.86622986027197,209.87923985660308,180.28418785308037,158.85433342472047,141.1442184226589,117.87107597452945,105.0084298850745,98.76377325485502,76.94242707547096,48.63169361490294,28.41501906108283,5.265848043720223,-17.884114822105172,-25.603619754813195,-32.839747375975385,-54.51096851459952,-74.42835868339421,-89.67922855021351,-114.03326373277088,-134.8393445767029,-140.17376649397528,-147.6502274568086,-159.98455896306606,-162.68948734900988,-167.87238612150546,-185.5512325975224,-194.95859390024083,-193.34083823066203,-198.5490759815379,-201.27550671477914,-192.02805669634444,-188.76925941050442,-190.6519014830865,-180.24930968674482,-169.70837968207988,-169.88510462181813,-162.4838855455056,-147.34675129340644,-141.43189173709516,-134.64878915748827,-119.75884148227532,-115.72922585566536,-119.06956914648065,-108.24442351048167,-92.2844017935219,-82.34487727004887,-65.3810771372273,-47.85960821140054,-47.985528892750025,-49.917462146248674,-39.467958208209595,-33.48288415051755,-31.82124103459166,-18.767157337554217,-7.12569643758647,-6.685498599103082,0.4652587207039014,11.714785695487807,9.037604133963594,6.629658631891854,17.901572550067367,25.51881949320728,28.240141603737456,40.06056308719928,47.682785539017786,42.888387853320566,46.3355252795251,57.97100679353491,59.71612062969268,61.41276201628652,71.89283449110188,74.03359577258524,69.61221483079663,74.25404652340188,74.5199452133453,62.187589900124735,58.77210785144025,64.86538946289836,63.52025299686805,65.68770052762359,77.5816538684598,78.32216155680209,70.92687024368956,74.54512498172578,76.38347411568193,67.26862565964628,67.92889155915282,77.7869783775076,78.7273099851459,81.49009701683546,92.76440893568724,91.51888207767195,79.82291637731029,77.77155673853231,76.68757716995107,69.737978032978,74.16972240927116,84.16226795634655,79.41538802290523,71.01645442238194,68.96234112351317,59.705012629211595,50.460734183875246,57.643750932318994,65.08427888093483,61.883071642059356,65.172679436655,71.8954242420619,66.00564698701064,60.45937485571589,62.90284842837115,56.52502925086053,48.273820735921795,56.07450159183048,63.1871655198605,56.30439150620427,51.517388565949005,48.48045419760079,36.75380974836014,32.342958597570124,40.07954133633799,38.098516554167055,30.141809584194654,34.2727025289418,37.902967049423694,31.999529662394544,31.807108845848187,33.16256922451402,23.38693356471972,18.384398142245985,24.791093075590553,22.71552547959835,15.407688964463983,19.91253467444031,24.263545805038426,20.02110375464399,22.062101041060703,24.44794020705737,11.834571073550096,0.395897598306028,0.925058511008777,-2.33350131240633,-5.326355944085705,4.963302628797261,10.514584452795967,1.6667387320726323,-2.259344271926997,-2.5385450201535273,-12.205527964767755,-16.43444519089081,-10.17099776955488,-14.315728154266866,-24.235985152596385,-21.62472655474621,-18.555934183490894,-22.082334001022076,-15.628342999594269,-7.102969680897604,-15.022674069872064,-23.644350905856292,-21.59901761419591,-24.393971009100724,-27.496703519977217,-18.08977392586155,-14.246329858059301,-23.827357473328966,-25.53013277905206,-20.971659306570665,-26.21353675256802,-29.58188805663603,-25.080396476467406,-29.290869866062692,-35.226389996743286,-26.62898144394605,-20.341894764775034,-26.811627568630723,-27.585857485521956,-23.746208358513517,-28.22096214660325,-27.53148239854975,-18.192441592437596,-21.07102121844733,-30.0673270573056,-25.630846412697178,-20.255887304912402,-22.808433897429257,-18.79938629620611,-16.50157684327292,-31.855812352369682,-46.10152835336348,-46.863630688339995,-49.85063787578649,-51.119555621540165,-39.14817190120318,-32.44131268808967,-38.102994863905906,-35.821888923770004,-28.37512802997759,-30.033077306997388,-28.428322846685887,-20.28507227523952,-23.16280171114823,-29.093143841501558,-22.63270984159812,-19.091275394818375,-24.679202433504383,-23.04188220970184,-21.65649745951925,-33.54313417188685,-40.381786907514524,-35.480529145151124,-37.3887720496742,-40.119826293002184,-30.504971149940246,-25.402273882270737,-29.225186953765224,-23.220910218328132,-15.48613434882055,-21.680891313887688,-25.95856727522901,-21.339442906620704,-23.745908844222004,-26.5000056416144,-17.23575253556753,-12.680812351899839,-18.153564437235364,-15.91677529758318,-12.374562479367846,-21.12171764073037,-26.578201566346273,-23.365958517336622,-28.58881738021754,-35.39004413760474,-30.024538813228055,-27.762922035063596,-32.36692845176001,-25.75834748271531,-16.5330688820236,-19.601928426751208,-19.013887670253567,-10.268020908279976,-10.92832057927929,-13.157305703916181,-3.545513290240671,1.8277554345765348,-1.1853638924136896,4.763114497462899,11.564020048509423,5.2389651423744565,1.21063557233029063.253663611694938,-5.516058896653552,-15.297332199202819,-10.574651102175704,-6.4268554775429045,-8.833967008291275,-4.084915198312759,-1.1371479548500496,-11.115850304108413,-15.040513119269875,-7.268665890795002,-6.858515814125517,-8.978426073327588,-0.9075848180704833,2.6500814243683886,-1.7060960621209391,3.0568800588780825,8.21894787788519,0.22878491211058538,-3.492655092937319,2.770711154351546,1.3782639317679048,-1.6939298965745961,5.0877092008058264,5.661976223296206,-2.9089107125098628,-3.112325738678738,-2.2594305471112763,-11.217293473413532,-12.473873316188817,-1.8688330995811056,2.6340998774491102,5.696824740815938,16.46711421295557,18.265885914245466,9.872806215405074,12.03101512091729,18.573869741981298,16.385945615062514,20.102141822754824,29.574598546575107,24.4254475605795,14.4918996308425,15.385667008617226,11.84353193237796,1.8127374287365416,3.6038231607837146,7.645816721693793,0.5625359302923871,-0.0717358442756395,8.803783618511652,7.728662144934066,4.463482875471694,12.235447491842752,14.491201296203045,8.115215601430691,11.47033425729988,16.89458542722675,12.093997407193033,12.940977341045928,20.89253322081162,17.318912136987542,11.105387265626678,15.824903139101929,15.917926314972256,8.647158688470444,10.65225088098525,12.755811759308784,3.494526323199057,0.647485420527172,6.639747372417829,3.91484361004152,2.3763698215541824,13.737921786420086,19.660992964224523,16.635179496244266,20.513424124051376,21.391466637281347,9.966004480347033,7.318381820909056,16.331959283083396,16.293263959958264,12.945997435171803,16.637043729551742,12.695541514496107,5.407118792891183,15.405021364247727,27.046375107090658,20.325881086894668,11.592903653606436,7.722220893032633,-2.098522945788832,-5.44063761514381,3.5556314347716644,2.1086723283198325,-8.38217830705496,-4.774746429759547,5.5732221402801585,8.518792838590981,14.032685758143597,19.515987230502535,11.889220229514786,6.839483218826134,17.001516966786085,23.674825937105325,23.065406252064726,29.39316164957662,30.735602035897678,16.612504432938522,7.426031605256985,7.702386662155745,2.4440871391298393,1.4306539510108502,12.33498977834224,15.040826535357944,8.264026145609872,9.57518002831251,9.78038223302607,-0.3824007759992458,-2.4201395205846024,4.671381541780789,2.7669171043762333,-0.0649759654723362,5.223112231403629,3.3660017664840116,-1.1701927021190648,10.148891630934918,22.575694193857714,20.61090224091066,19.104672923273448,18.30557478110559,4.904331816948903,-5.45200931375872,-1.3123281256317076,-1.7314602216278625,-7.221628501174273,-1.3506082565683335,3.352995121547903,-4.352741564578655,-6.783160161270401,-3.625752595457915,-10.642602604605216,-14.89441553113287,-5.6055531292754,-1.8675728654075585,-4.651586064114456,3.562936284355169,12.161102062010906,9.382947592885703,9.75434517731058,10.532634215796435,-3.80556244940235,-16.226361432921628,-11.602054588937776,-7.978941159211799,-9.501489331391012,-3.5588713522541915,-0.7769809677869093,-6.239059175858715,-0.6573759091438678,10.326272477928446,4.565337157165139,-6.280623770769806,-7.294890121088365,-9.795804026901395,-10.560270815918994,2.7282636119621593,11.896535967370044,5.207319517855244,2.8635192628260158,5.992831808974458,-0.9663727208112851,-5.29765311150499,0.8431800704933479,-2.1546027347386882,-11.684077517233705,-10.331530521794345,-9.378673275491735,-15.379316307067342,-10.62169856592207,-0.897279914788828,-5.8594482863704,-12.892171706257134,-9.935596381893976,-11.084215175502495,-11.798701198058577,3.02059713630167,15.338031519627355,11.852508112976038,10.425220283289569,10.180237256841563,-2.5495430875384004,-9.946721058111118,-0.8879598266917705,4.207797184966858,4.6440139416165,13.179611554267485,13.85370629470162,-0.4558198994144034,-7.421100476466231,-6.643506580128877,-13.457125834663872,-15.889885120916377,-6.685462183011676,-4.171878360581509,-6.018853176837557,2.6335240269470854,6.497862358305403,-4.140298712643972,-9.453362347577293,-8.035066842841628,-12.283349876103625,-9.78921963387352,2.382426238494749,2.2222433079794492,-6.164804066315865,-3.5012108128884663,-0.8813403972510158,-6.152816574480045,-3.7720469880917236,-0.438206246570364,-11.017926434591335,-16.45955954496532,-5.786004599839278,0.5356211883252963,1.1867621620261706,7.618818459465494,5.406466434750156,-9.170216060986995,-13.092971234847163,-8.177794426036531,-11.527964195262904,-11.126978161014655,0.14986155713400517,2.673550150658877,-2.666226578935145,-1.0560200038571161,-3.785301779587982,-14.651406617872611,-13.459476739697461,-5.356498970504852,-9.310702399333364,-12.605135377951376,-5.173307429058593,-2.8598643876732526,-3.3612267087098315,5.3676195813791185,7.875675839926739,-2.396120014795302,-5.308909735975989,-2.141623891596181,-7.268164749916917,-8.083052650228154,0.9778933631032936,0.8252398389334781,-4.503094264771878,1.0243816186832762,4.019549202916398,-2.4213998346359182,-1.6380157597955989,-0.11461987619515013,-12.284942291590621,-20.25539259239374,-14.671968242183237,-13.642438187072287,-13.724730301694738,-2.085031902646752,3.9899666862730627,-2.546968388659566,-1.468122996776664,3.4778939677954517,-2.064436365503325,-1.9768229545184728,8.617756477969376,7.549430204898342,0.3165231441155627,5.281558890529817,8.406278271778204,2.65752478075023,5.112801747364683,7.804162093282575,-4.554526176035648,-13.048951100199128,-7.8357113422460545,-7.3605657812270495,-9.28255215470934,-1.3019539448269635,1.807200963720709,-4.653765896629338,-1.72434687042144,4.603143182179819,-1.5523878816111538,-5.425846960056929,0.34496652580187126,0.1997795252900474,0.7752313664792272,13.840057275481822,20.340689546661594,13.360634368406622,12.963649270764423,15.366181551831238,6.498600817557862,0.9751579448105262,3.869505716458118,-2.1086176171463085,-8.579591051397921,0.36921318151972926,7.051738008492147,1.5451236681984182,1.3133518362331031,3.282032064569691,-4.786174188482657,-7.313655430670468,0.21894146474789222,-1.5619863671382965,-6.141652306708259,2.8454135277843933,10.02041622696778,6.216774901692396,7.107628034715158,8.804188484204168,0.4168073186098238,-1.7373648477842945,6.103884491433285,3.8054043904397994,-2.937546195388708,1.244415415916159,2.9603619025946446,-2.9626808905630386,-1.3794259831447229,0.3173437395747529,-8.981521703977076,-10.896086194142427,-0.44043099032409394,2.0906000679020935,0.908433598052792,8.862636630244543,10.567505806624219,2.995454230449198,5.85499749794739,11.102897350085366,2.5564332247550055,-4.012223071265108,-2.393088837501394,-8.91490257588522,-14.74139978793329,-5.354213482162075,1.6240458382218728,-1.3144734215660194,2.45324340673593,6.376054823125043,-2.088553193458852,-5.360991912703432,2.197828836947987,1.6826382751398647,-1.1856949444287461,6.58815301395918,8.29261559283951,-0.14148930529304593,1.3160939941558214,6.247292732230035,-0.17916568765469876,-2.8527661537824387,2.723518866944338,-0.18480241582661838,-2.369856998715929,9.049753774606936,14.50892730936479,7.498289226559075,6.419819150876547,6.67828915651002,-1.0444670998568815,-0.026344291325082203,9.47068262482348,6.275291111453242,-1.406021888831182,1.0536515948988003,-0.8511528531651036,-8.116402925542726,-2.5293190295847454,4.789890947366203,-1.9293633826141585,-7.111983645990641,-6.631630340383067,-15.192110907978464,-20.727219385989557,-9.219563108928178,0.24620837585950306,-0.07346700478657953,4.727689429965756,7.106875737647953,-3.4591679440848644,-9.063844756822586,-4.698630031806705,-5.7362864943580565,-4.054694123618806,10.091694784094702,17.29943985250768,12.230630529773972,12.18606371089691512.705421864040199,5.909120291026016,7.5066013239116005,16.320953494443373,13.391993006622355,8.034555503088558,12.833285956421598,11.443637524973287,1.4012012146236321,0.10784004536680936,0.05969355040736091,-8.320289278241054,-7.958468969881874,0.20796780107865986,-4.066053181721562,-10.402642540699436,-4.185326993042575,-1.3756776981819525,-4.078438071178471,4.9797470910636505,14.564514039117812,9.803104557274601,6.739915912350398,8.173502630560606,-2.124979185854367,-11.66565103838264,-5.619303019714772,-2.6474382194427344,-8.925690410856905,-7.658392981601647,-5.8096818267594585,-13.363585471517492,-12.526111018327914,-2.8496376687318516,-5.127763676870906,-10.191230112337447,-3.4413171362384,-0.7582614460804188,-4.8855607201158815,0.6534561747885683,5.941590696775047,1.1564281483283039,5.629025792546019,18.20662487466309,16.046432072977034,7.223901342435384,5.489464295188349,-1.080677903166272,-8.17272358030503,0.9121371668775105,9.606103490388115,1.4156441820878358,-7.078771236888412,-11.047637003433524,-21.557225297605765,-24.714951698291785,-10.61677285073392,-1.0444243125886488,-1.5634700898775125,3.505318738543937,5.3767061391881645,-5.402773702196631,-10.166323806535623,-6.11696787234777,-9.399245678508516,-10.431088399385526,0.8464095462080001,6.4175514425928375,3.830917170944054,8.957037012810083,12.312405772583853,3.30789079803941,-2.473780624783978,-3.717416995932288,-12.38385318114762,-14.0349284701654,0.27768648843677557,8.431227766152983,6.141463874884673,8.779260908995848,7.997762215523804,-1.6174062979576047,-0.6768039468945892,7.632947182652108,3.1631572675381694,-2.1563860100527785,3.8054459470457918,3.559625572832879,-1.874658971725298,4.73593902503541,10.061419825863975,2.238953761420494,-1.4127797311936192,-0.8288459898120009,-10.464448623667593,-16.053451515215016,-7.173295851333937,-3.2608591676639263,-5.780708402124525,0.9930956470020766,6.265124063212769,0.5775264875361859,0.22526669979985003,3.609305903812947,-4.541414595712883,-10.270984193287328,-2.2660526268485803,1.4810874382882764,-0.8644943911760616,4.705257633367196,7.936556024483383,2.3325089092760325,4.45512926087563,8.826184014603975,-2.942398454380535,-16.478565905001584,-16.75501570402662,-15.521473698011931,-11.099197616101314,5.234629429323605,13.552892981506247,4.530109090989541,0.7576895673532625,3.8714597204763708,-1.9291421671971465,-5.213962344902608,1.6991070231642844,0.4789515119414882,-6.446663662170457,-2.9918231076668205,-2.0877652928890593,-10.514018558650356,-7.562361055699167,3.777732286769126,2.83242425664617,-1.879444250032143,-0.051750965897098045,-1.4905778749610317,2.5201692418545893,26.396206440171863,51.264012145627575,65.24484591873545,87.84393330132433,118.95670683448105,141.1251876188477,161.64423939599217,182.77070032796956,185.20450935956302,175.23727867996604,170.8168348883427,156.22917650669234,121.2210624971531,87.50434430647519,59.20949117795952,24.689336895923454,-3.0260949494926717,-17.866119969896378,-39.771717039657766,-65.99486918277768,-79.16324224361104,-92.48576073517104,-115.52926908586814,-129.4975337185172,-134.6319097472745,-145.22031925561583,-149.44704946197118,-142.45430040142196,-143.624780006023,-148.82133374476737,-140.8390420718439,-132.80714591754764,-134.70296040479892,-131.07269055757416,-125.26599267854529,-131.23139015767023,-134.07487409859988,-124.90408416662297,-119.93206434329679,-114.53062934122165,-94.71505912735206,-78.1529092002448,-76.87582261084816,-73.79822837748029,-68.34042147147153,-71.6945045594004,-69.16741711928715,-54.37964121050121,-47.72733701231567,-46.27605421096457,-33.018510942430005,-22.516312190425037,-24.718000159934714,-21.635552554003738,-15.577916523374949,-19.77970202840509,-17.780204075847,-2.370804629329122,5.553853796829941,7.454769921007121,17.184914667336727,20.783779674942608,13.95873271325189,18.751245548967088,31.085253833366075,31.25121826257125,30.239881027611546,36.6312944034228,36.285031429157975,36.35988031174831,50.6314077413201,58.587055006645016,49.180863454453046,45.25245932754083,49.308189243811576,47.001558766273725,49.00873620541661,57.17984992582032,51.18259224766788,40.565995268992204,46.567203272844964,54.3673876374777,53.223976731336975,58.17722397722535,62.98881110788606,53.36326107569965,46.261936537203184,50.09506411232374,47.47521999558177,43.549801827402106,52.51897503659434,58.50181224064989,53.77377468511901,55.34739316939137,58.70343068381277,50.10309930400598,44.68550043281631,50.084673903690586,49.74286803634189,48.35605196137545,58.48378572503759,63.55654678384534,56.19639199456774,52.83625000246033,48.99169253617066,34.52577292170782,28.233414041162863,37.17092508183206,40.61098541929903,38.02213924708428,40.469275878501655,36.313278003337665,25.778613516735568,29.65092115918553,39.76654774165722,36.425720264276066,30.996380399557772,29.80751236822103,19.475611730404545,10.284866434914626,17.52542531890333,25.353542666367645,26.401248560594365,34.32367095312763,39.512596148362,27.876584365673796,16.920411756152173,14.981833679121571,7.556662931658662,2.5840962100452853,12.14157478028669,17.701756393815117,13.123689202454564,16.164017524893794,19.51215685485887,9.189282856920599,2.487305853118377,6.274234608269732,2.8811771248631692,-2.1436687870427846,3.5908768598017606,3.6670975433660438,-5.982774261892704,-5.453976181043523,-0.32832685390489313,-6.680345397372561,-12.107213600681828,-10.558007476739576,-16.236584581229476,-21.7535522462536,-14.574310346077528,-11.579908648625562,-19.395625545087725,-20.00903077971431,-17.511857762433593,-24.613393387965093,-26.58139478862848,-19.163272415296376,-20.487367289339932,-24.18846937161026,-16.872736584069116,-14.7833244660695,-23.26932425284735,-24.220368978769027,-23.054238800182283,-31.457662988840774,-32.26337324784566,-20.720953307662285,-15.774154639291037,-13.124136721067304,-2.9349392376853234,-3.0125191555490534,-16.09595643736492,-20.191122356631865,-18.47036492952053,-22.854137746943948,-19.80413959960864,-9.78085774887601,-13.334034339607028,-21.85821737863833,-18.484755624724045,-16.37899569365222,-19.41739234165747,-11.601863857055259,-2.8006853409780206,-8.368507776390976,-13.337777696709978,-13.112391734740136,-21.989568147624166,-28.12456362935957,-17.674241299133755,-9.882931567161553,-13.235855716323984,-13.726709158455868,-18.0786819481736,-32.849832687026414,-35.73913143467689,-23.175546294703693,-17.940951257499854,-17.113016057252835,-9.675817679193354,-9.87989984001305,-17.190440245834342,-12.841510892851058,-7.937126038352062,-18.13814506276048,-25.480255830117077,-21.058450330225384,-19.303142425676533,-15.261203641515705,-2.0095200339600456,0.9925561413360341,-7.821847731778725,-6.313793696103344,-0.4940241245048118,-5.085978830845276,-6.990835634580397,-4.323018589972279,-12.98036222084512,-21.560864498226948,-15.44665571965604,-10.965309388682126,-12.4786403248743,-5.347154057414808,-1.8661705861753686,-15.1641363380514,-24.236124672887616,-21.65832238965582,-24.5688337135509,-26.51663048238764,-17.851669153577063,-15.86602420844411,-20.27774244527095,-11.851874051695638,-2.56725024923959,-8.580350372492441,-13.249639199684786,-10.475089645368273,-13.903544934796173,-13.483875825887736,0.17260459987091714,5.57133663393133,-1.3100582204440352,-0.6462672177685103,0.19857477976649607,-10.683845816386192,-15.782497186019432,-11.668225443278587,-14.53625194099503,-14.981380556706481,-3.2781964438814835,1.1050123224390713,-4.298015376449623,-0.5289654450155474,5.138591546727692,1.0525332386648918,1.4453417043183112,6.103208193389073,-0.5106596200018285,-5.356342827232767,4.0481861294164168.766381805845848,4.475066422306975,6.0410364817773345,3.9460288814542066,-9.02813044147231,-11.698175020808621,-3.45176873287474,-5.133519481623075,-8.940518919183033,-3.365491321502091,-3.1699758951823176,-6.67887255310111,2.9382901066048177,11.713305032574633,4.738320875397672,-1.0578241709400493,-1.1758137113043414,-8.272238900117749,-10.024556176071968,2.5375300723317276,7.904867834596227,3.040643468872784,5.803830950584634,8.654982850639984,4.300357274943133,10.216152408981397,22.811327249326688,21.216357980292464,15.642465300739403,19.024775307150154,16.219134414404554,7.252371332248015,7.996781833050179,7.517225181632332,-2.6977221464674686,-3.066905898017639,6.742742112449243,7.594006518776138,6.730441221334333,12.679536854183533,9.548881672564734,-0.4015394188103394,0.3023151743552357,1.2389530440640943,-6.23524026074496,-4.217739684346451,5.143885421389918,3.227448272116476,1.3463177968041506,10.5759558668511,13.768439149722191,10.611195643270854,15.843103359550613,16.852376409398737,5.563461925502509,2.648938713080561,7.962642866983789,2.971975481548954,-1.3992775860078055,6.704397472829247,10.585582177107879,8.717161958515955,15.26764104706373,17.596356979693148,7.295371780172015,6.5354743103832424,15.612874098154267,12.98385935679951,7.549053040582692,11.059244256992027,8.614651500165547,3.1111414082675726,10.198815753585228,15.12001068813545,7.702414927432047,6.644743732970454,10.906038567512045,4.2107400289979156,-1.328088132978468,4.386596266700569,6.321412687341516,6.323024432083589,15.386985542037676,15.518954437828153,-2.0338792589998347,-12.83680870176887,-11.791736072768558,-13.396721342650588,-8.771423574201977,4.99833521205529,6.634262917761678,0.15206864754506766,5.155155234062414,9.66489039098603,3.710214515400338,4.178876155753097,9.37070701652566,4.929269173387605,3.5434835591244207,12.010929803110166,11.886470973608766,6.129123912576663,11.40350407890195,15.472079334964278,9.920177212310193,11.79380742671875,16.464522830244245,6.49659602978322,-3.526460693167871,-1.9934747643600135,-3.8575500706645043,-4.419956437218323,10.030509867076105,20.02183792874786,12.889760594423183,7.116508307732758,3.6499897387565055,-7.842560817167877,-11.073060669208838,-0.4911266538768615,2.2314334726291976,-1.2693478923876662,4.036752492980696,5.906529399234109,-1.01083739472487,1.4428724437604614,8.60705916732645,4.411147118906811,1.9273411535612093,7.927098379785011,4.013176982032753,-5.310677778925902,-2.580000446769852,-0.43649376281633184,-6.573868102754258,-3.617730267080377,2.479693694643319,-6.251030689206795,-15.171624187581985,-13.76758838584778,-17.78579274211001,-21.962566509524798,-10.945862615461788,-1.54915743341662,-4.723875416617389,-3.1231021490355593,0.4336222320358094,-8.962541540779462,-15.686728242812643,-9.276532216984043,-6.384929141740731,-3.739403792569217,11.48042550483844,20.38304371688769,11.82308246338054,5.552562683759086,3.383260627805804,-5.765735092277472,-7.6156429891007225,2.742584201011473,4.215949483962657,-0.7533843868897079,3.5134230385853225,4.064399569836008,-5.33556477155639,-5.756697918537569,-0.7999509651416563,-6.485436650406431,-10.04829072524878,-4.350758342539772,-5.933289587666182,-9.181635022327598,0.1275910755653591,4.6739397972901315,-3.511494684442139,-3.6376588204605316,2.3694424452743306,-0.7706745516037947,-1.1265697144911764,4.970213204456546,-0.8672218907831946,-10.558139226799323,-6.501149985734005,-3.6341732074730633,-9.089536331941114,-4.535115606936259,4.281280433857936,0.7448814025435904,-1.8677437628822133,2.344417621596606,-2.8143685131148026,-7.804291180136992,4.334075463663234,15.00285725550832,12.27563859271261,11.859768017248042,8.960462347264862,-7.957153662132253,-18.07756077714437,-11.104031052807148,-6.092572475597944,-1.9063916989499994,11.308108051880648,14.832912071670407,2.2716595350524575,-3.381123533836821,-1.7500828877458872,-6.676457262703247,-6.434534214329629,1.5668902810358025,-2.0397356955472508,-9.59344632674884,-3.8853620190329483,-0.34894160207144076,-6.514443405557645,-4.642802240283848,-0.1453509196331806,-6.746089236870507,-8.307107156034295,-0.21072799088301464,-1.9999790059378837,-6.268152533736808,2.781685939191708,8.161261456973362,1.8110637090191846,1.3349307007289655,2.433055449597671,-7.11614696801699,-10.796861979826858,-2.847134673022253,-2.36262409148966,-4.760318997241609,3.1583096727775857,4.522836295073837,-6.428481227988396,-8.408211000443512,-3.540177657267562,-5.371939499967499,-2.147417766153768,6.102661290290775,-0.420167915317065,-11.858001501331643,-9.203590601762286,-5.928277019425865,-9.067147044332682,-2.7522447801176875,6.449641264315076,3.7694468685481985,2.7382474756535737,7.054179388503669,-0.21438793187029015,-8.599867237007166,-0.3603782368228705,8.633474440887921,9.021004942901927,14.768838801752246,18.617474731978504,7.854624988241807,0.09532630914582141,2.691564877781717,-1.6888737616178737,-7.7253437736649655,-1.744735787965237,1.5194435851097126,-2.966664194805938,2.3847484468467375,10.838117512090776,7.353225023255451,5.174824544337544,7.958638630637511,-0.034811973495017856,-9.006643333775692,-3.9885645462673294,0.6502281543107633,0.9391046173764432,10.897174647583114,17.73765905201442,6.191731075158927,-4.945014488674283,-6.2752380090132185,-10.852054832823839,-10.544874782099642,3.4514818279015227,9.35194290563649,1.1313669914976265,-1.1427873360598568,-1.8914371757147248,-12.497119535902554,-15.376295237666392,-6.017578091490276,-3.7762580350344908,-2.6907861189802658,8.848595274395354,12.494833300803062,5.13289828681577,7.562630278686411,12.36638203577416,5.211856597744754,2.410970824433992,7.76834668636012,3.5437954716197777,-1.6199918594640124,4.442183171455535,3.4265003635815194,-7.032781948673989,-5.789831420107596,-0.14854150706604408,-4.89533399467949,-5.660238553050036,-0.4585749934178942,-6.136121978776127,-11.529627127078836,-3.026280866531868,0.7238753749676571,-4.656460619461314,-0.3138049378081744,5.98796163585636,0.9861610156216916,0.5235891748281646,7.199502351230182,4.921176199795557,4.139581401861187,15.496522153422799,18.825742926296023,9.854684729825383,7.222306131291136,5.056403476524249,-6.677144651542244,-11.110011821791467,-6.36512377842311,-9.898426506878195,-11.90379713522058,-0.8296207534845932,3.9912133789317212,-1.0695825166922046,2.6127151332756977,7.430537149133581,2.0690881584931713,2.9278463610368446,10.823244693318584,7.753517639408209,4.178258149803046,13.499649228461477,18.50189432176044,14.755133782018316,16.963814130511444,15.03058456204545,-0.438847010123391,-8.7707056282342,-5.948453157291712,-8.903695148064509,-9.197175722745408,1.7322926839832196,4.4406196694409505,-2.736241614417843,-2.0665303049249597,-2.1614369796486304,-12.052890481420686,-13.569570609819934,-6.144241051368618,-7.334691371934387,-7.122322416941271,3.931261320004851,5.512808727256896,-4.875721977619495,-8.0709734409218,-9.502852478403327,-15.96863548323202,-10.596232734703502,2.095743728149151,-0.39524683913332614,-8.178876507287333,-6.14465189734463,-6.992291326148263,-10.074167000291348,-0.5595139319178131,7.503515879592304,1.1569974756433932,-1.651436016155854,1.3150495722224051,-5.7309822910352235,-10.624578790898534,-1.339601480898211,3.844799363429711,2.0177075031507647,7.59221282850427,7.999342203964444,-6.421016482856239,-13.97757364354754,-10.458334770000398,-12.468211970882619,-11.928724564227775,-1.1305393599801365,1.0310366702671434,-5.594167739097946,-2.1340529600998126,1.809571000169869,-5.808587412710564,-8.613232433160166,-4.784095415973988-8.885987849842586,-9.057909607099955,3.9247054375822312,9.187359305864458,3.276581603193331,2.6047237185613743,-0.7330685032848805,-12.650533591426035,-13.559270955333043,-4.877622842376289,-5.476832783432009,-5.769524839669746,3.216469833152232,4.431031048690793,0.011273062832274583,7.02091686742536,12.557448588751646,5.426763767495367,3.6160291728310026,7.157723832610197,-0.1000471340615765,-4.88477866516606,4.040787348572202,8.422086096245112,8.070243319989505,17.86504522423167,22.564232199782733,10.400277254726646,1.1421280703833836,-2.1143332240396733,-12.38667861599686,-16.279299596341282,-5.206050893324538,0.36252381596513084,-1.8534131538183143,2.0199428321632356,0.05798339141035602,-13.459621042160133,-15.807135750464262,-6.716646220123735,-5.303309205785896,-4.331362438953382,1.917460259112206,-2.5658070711252496,-10.037385999812315,-0.26675318961319494,12.10892651555077,12.373602187151583,13.528019108874226,12.374648429949467,-2.6938559155203015,-11.630367008568756,-2.8479331169888873,2.7055533276732127,2.3357345628288178,8.620024315974232,9.539981828464096,-0.5778978667116945,-2.878202430885016,-0.03916269414732909,-7.910004301139294,-11.627418606686781,0.6688727019702165,10.226034811866963,13.28766150887428,20.929838835182178,20.311954255272916,6.304365346871044,1.436174913010895,6.016100288016549,2.856963158482464,1.9110219809926587,9.84719010130141,8.62050438282343,1.2493046895557696,3.7302227702373862,3.84484158971322,-5.236027910302127,-5.640987850064607,-1.0238907910010036,-7.153120701635636,-10.616136412440039,-3.6460210986155284,-4.83759968799665,-10.620293311609773,-3.9148682743002574,1.1648972897648502,-5.349506979473095,-5.8142988834612765,-3.1344950281986943,-12.66703504017003,-18.215283910524782,-8.791092437401767,-3.718969641291033,-3.48768478958263,5.565618069190797,9.23525456116974,0.03462486944021137,-1.8576236282038219,1.8920328394530979,-4.985121864395664,-10.15678913337504,-5.297736364565169,-5.869122304012409,-6.681061766593606,6.237447599029014,15.638165747083235,10.876482192721578,9.219447638520215,9.231630136213798,-1.1866693968821584,-6.272931569082558,1.8242547904757687,4.395626211791856,3.4648496302282363,12.115276836767544,13.900191211650164,0.16745511971324145,-8.28447175000975,-10.382623348447778,-18.594325485113536,-18.77880152718438,-5.871202239413747,-2.550717501699859,-7.785477801300956,-4.274068698373346,-2.41971480941376,-7.931060629549159,-3.5736770844999275,4.391154268870673,-0.997494044859208,-5.197849102697524,2.3425434617962,8.015937218165492,16.650532528481463,40.69724656362886,65.1412447067677,84.02358213160929,115.33073501166058,153.01860922197682,178.23592151610978,198.29135123615953,213.2220249022012,205.46088037224746,186.23920707455164,176.621378053903,165.72542777876163,145.83972792032958,129.2957896939139,107.92118411503216,69.3525267307954,34.06024026079176,13.938820729550525,-8.32433679258832,-31.220153937260683,-43.332058625473294,-61.26280810878176,-91.42066472587089,-112.79774333581125,-126.97229816945354,-147.21872220804593,-158.84923269929044,-157.86242808177934,-166.37720007117926,-180.6007500875326,-181.99581922016299,-179.9171602434782,-179.55270325739968,-167.58256532751614,-155.41932246975125,-160.43633568366815,-165.76852253845638,-160.9928130902986,-161.0600951905413,-160.46818954389252,-146.24191389179472,-134.21544664722398,-130.43772307945517,-118.33648684615912,-106.11137304678691,-108.61474497497736,-108.21544532484562,-96.35669707381398,-90.12323761726779,-84.65872377489424,-67.40051478403055,-55.05710604499241,-53.58304099186404,-44.26320726658731,-32.53141697790968,-33.12578950640231,-31.113338014961172,-20.22813250143499,-18.62239477469742,-21.50059941013893,-13.437756799540454,-6.579086839440114,-5.288633497344334,6.686624440220273,19.715486083284365,16.132898676370353,11.487738431570456,15.785095896413022,16.051358131490538,19.527410076890252,36.30249540668868,46.04863333774642,43.204402633548696,47.92923050591607,54.315714026016146,49.28783426067394,49.369371478177115,57.69740045958249,55.48160291750276,50.89466694861321,57.457852999296676,58.90894598411584,52.431896619758696,57.7224090388668,66.9000385585692,63.4658811827875,61.311573449277965,65.7290033939341,61.73453156861933,58.66424271333709,69.34497884874666,75.23480675345827,69.5349205715737,69.77550698249657,71.48523759356706,64.14079437339598,63.45790067104263,71.8833435211579,70.20841214725223,64.45890567281936,68.00265612720676,67.27198643755469,60.450806210540016,64.85884161784729,70.87354468668386,63.19158681856565,56.576585641579264,56.32767648605422,48.676317443924745,43.50067769038381,52.45366165974505,57.00586789221579,51.98370270534235,55.06245969506443,59.45278106019795,52.268761621903934,48.415713996046605,50.59043002078006,42.33795641080725,34.92783860125922,43.693346285399564,51.24294762551127,50.18601454211814,53.777298698831764,52.23697021805885,35.47215505950099,24.638145769331317,26.378427761772866,22.768672883396746,19.261238601369477,26.966931983562766,30.24272319941413,26.839766641136684,33.16361490138756,37.74307610673531,26.26216031269713,17.218142324406536,17.682919968499053,12.637210997108664,9.21481650396374,16.426763431084343,16.466190495722508,7.977699271386877,10.06275722119958,13.88431042018723,5.3242117143401035,-0.05637812493657568,2.1330440239580204,-2.716789458333434,-5.137382457672641,4.896165080815297,7.839811919433538,-0.13918117639488914,-0.07754723018410359,2.2972503568945934,-4.116637917992252,-5.432780296369112,-2.2271973653983443,-11.505480571521346,-21.833554088479833,-18.517319498403026,-16.19683054020149,-18.580546243503466,-13.132548607103917,-11.515913725705488,-23.600807273139704,-29.944244149993484,-27.005409162724263,-30.712065003254448,-31.97650575885239,-21.798738441494947,-18.876727682725985,-24.563871655264517,-22.027260317337273,-21.745223543094735,-33.17044623372728,-36.02776723160844,-28.103294180493503,-28.49450488472611,-29.65836876047096,-21.317974221123,-20.42224099497047,-27.65676449633544,-25.400005353221832,-23.581136061203097,-32.9957283896666,-35.143631014229044,-28.199601008483523,-30.656800920296405,-34.30739455391395,-28.148714481045598,-27.42213217749223,-31.68493724029309,-25.4774011771756,-21.494884454412517,-30.562541254541827,-33.469110291696914,-27.835745668477518,-30.835897991607002,-33.507698809365976,-25.443402012818076,-23.010193336796192,-26.14905143934923,-18.737647075210933,-13.997539380206245,-23.9059672836285,-28.323390496923636,-23.849021335535294,-27.521955486897394,-30.332642235698092,-23.09772076857695,-22.85590270009949,-28.220399178832768,-21.653163390785323,-15.616025205894246,-22.7023939869991,-25.04194771959651,-20.245438075753967,-23.37143622002649,-23.444861211768735,-12.09775408607971,-8.483658946965033,-12.412534460297502,-6.984590040194998,-4.797150516665371,-16.47692435007722,-21.683142164927872,-18.357788977439697,-23.206153702334806,-25.492149201790927,-16.856522559303258,-16.277554711515837,-21.329331351709026,-13.265765335015885,-5.471089306793031,-11.030479859126586,-13.002054789871465,-10.510810171784684,-17.40779163820426,-19.656533172405496,-8.361064059577295,-4.779862864406196,-10.099234305133859,-7.050358036640583,-5.504081150120391,-13.391712024018865,-12.56739494854933,-5.606940823664408,-11.01187835199576,-15.907694756615745,-7.336650298280205,-2.341614985752528,-3.379034084163359,2.3299311580477227,2.442949206174239,-9.830041389815396,-12.286303735079711,-3.215037280267664,-1.3184595183855858,0.032082086197027404,7.540548609653784,4.845223171468774,-4.097241247816713,-1.1334855652887847,2.0968536911833273-4.475271169067602,-4.467448821865187,0.02899036755272455,-6.396249901892868,-10.27145996454357,-2.088410888684814,0.15005757667036768,-2.264177440221818,6.274667284994386,12.966986090399658,8.928509771174935,12.13989206995571,20.19061150733648,15.926352460166974,11.427965954404915,16.26086404668376,14.158542336507246,8.47152098222681,15.220746347703717,20.21273152921013,12.661955128428339,9.221582460405504,8.733516327662892,-1.2972465801701993,-5.461263651183971,3.4010465635086633,4.2477209082990806,-2.1820418578356238,-0.2070033678895511,-1.0964241023743297,-9.691620122632811,-6.344084944177498,3.8165007034198424,1.4688471539073,-0.9079751294246998,6.148154563390179,6.266388019067949,4.879322791128438,18.395877162638012,28.667605574605833,21.0943924193495,12.295725876789842,3.8970909041845454,-12.30320922610578,-15.775075589974579,2.452276064671625,16.03043711477326,17.923859420420797,20.198712088833716,12.97509838759111,-4.303697370845868,-7.882061467846898,-0.7566250811335391,-2.4223355154976844,-2.5627550241598005,6.458880521136088,7.189832861868858,3.558357032372619,12.024507658417487,18.204747531246085,12.970705768803551,14.512981289079587,19.307710678110944,11.247186496512363,5.230153871890652,10.453167251783428,8.352782734255001,1.4049375779221942,4.872998485393327,5.063459933664601,-5.145065324425963,-6.556585906050797,-2.249642358696742,-7.950463427004407,-9.318062784240524,1.990956028696842,6.916276764208793,6.421244835293117,13.78541087954719,15.490613256689738,6.292234853515227,6.958906254194664,15.181117134456752,13.285474830445096,10.867270881224766,14.542663289337428,9.329910304621762,1.4361596628537254,5.892367376325787,7.4812760329198245,-1.454148642650114,-2.3339557326968197,2.325347913615079,-1.2121536618812767,-1.3045926378092374,4.826941414578869,-0.09436414284175365,-7.196215588032351,1.8948092110634311,12.634034200725548,13.530314670501193,17.32142493942195,18.913957828520342,7.530566528943275,1.6496662681389578,8.067987360924379,6.194894921306604,-1.0483778158889732,2.3840817747387133,5.508661985121983,3.614837844283583,11.93711198629618,21.125235589259194,14.87421622500753,8.511691686100054,9.116708868251543,0.4848730027762689,-9.011044038968897,-2.24907065193688,5.681317262782272,5.855394071870878,11.875329481948787,14.806665832483368,1.7735284302833803,-6.7718545968836334,-1.665695024814207,-1.3623950275577061,-2.2123309477723763,7.549701771056216,11.04243529254757,2.4865139282326947,0.07333132033826051,-0.7289084196981332,-10.706958355836726,-11.597512777207687,1.8046526225604458,7.247937981842253,6.3515201491004785,13.127742021712562,14.65192809797122,7.407479589115218,9.919866420038483,14.48221377454589,5.5166490053087855,0.34487998512107965,7.337694685957807,8.235385870615065,6.06976422761041,12.158061004806964,10.838193789726663,-0.7101697571635688,-2.4709443634058945,-1.0008771392889628,-10.608422037033915,-15.762892255456205,-11.445430766915582,-14.372322425322587,-16.709195578623877,-5.116538453590065,3.338444054473685,1.5030709911568538,4.7228543259829125,6.1007123456440375,-5.724724909854469,-11.170627786993933,-1.969550651346227,2.581546371827467,4.100060584330844,13.624659847147983,15.59646679820857,6.319426928973144,5.849121029725906,8.528858322329254,-0.18250444455148163,-4.732074601031018,0.0845796843737534,-4.1192488743021185,-11.027090968743009,-6.646939192716934,-5.623110653521192,-11.214211005013363,-6.232352621462438,-0.5931597076120898,-9.551522133452734,-15.761748177994033,-11.882683795933083,-14.272211264142076,-16.54007173799142,-7.524631215865832,-5.527202632144895,-14.7157883906666,-14.584928497749452,-10.12017905158218,-14.003913962810907,-11.569320246457043,-1.9401276823670894,-5.172465775060034,-12.922747645446586,-8.992870238289264,-6.020849671678724,-7.184620655346457,1.2271784514638524,7.620918987262608,-0.3091353184006129,-3.859452872433204,1.5129720195477856,-1.8714862452544878,-6.172064734188436,0.9355032583269098,3.37046524035629,-1.5122068696896953,2.713592006880575,5.442360434108549,-6.467544336143746,-14.330000989604216,-11.99381702047085,-15.23531122730862,-16.00817901423197,-4.292519311009645,0.5922916664850987,-5.608114109388836,-4.450204140916554,-1.181182305940731,-5.867257446987084,-4.534763521554649,0.9157442121177151,-8.418402857659075,-21.04001987736361,-19.588629264317397,-16.07115924576476,-13.184761083883474,0.25613034552532277,8.949880344075764,0.25545496544455926,-5.304678885268364,-1.6242240155337726,-4.924571931443518,-7.801103503066224,-0.2659056361176,1.4398269050242967,-2.6515192591043517,5.452449689616669,14.28370544387501,9.295263768395486,7.268318692246245,11.544571051979187,5.020125714686288,-2.401671040513282,2.24174410561447,2.6711429781667135,-1.6035142438392818,7.226795681798462,15.680482925728931,7.942997697953842,2.216113356606893,3.4950823840746725,-3.5858662453727654,-7.677593419777855,2.311788505199382,6.330565937801042,1.9166441079794159,7.340962874911217,12.29382554384375,4.460141536304436,1.554324267150778,6.535253207237042,3.4789404657530163,1.937871054585733,11.080725715597438,11.682289417623704,2.777887196482169,4.219264352770178,7.740525941138964,1.100264016682266,0.14882187472939334,6.274506493290694,3.388087053596521,2.2395802035998713,12.581418588425361,14.857093585923444,8.21584467579884,11.94606020973368,16.53839146870472,9.211849665762305,5.375862668115424,6.990083611314558,0.2725119413737844,-2.959595655915378,6.115692128397699,6.836343543888719,-2.046773886772632,0.3237268108228726,7.239106484870449,6.54561195077471,10.166647407855235,14.412822364868688,2.899301224892346,-9.670578854153002,-9.262064706741661,-12.03626720115628,-17.714733531701278,-9.140954619483361,1.9418153209802438,2.6596313146480384,6.583178191163602,10.55282557784572,-0.6581435086943204,-9.792559294888521,-2.5660111975208526,1.850312892959331,0.010123850096253939,5.968744310849821,7.783824523074575,-2.52061579615699,-4.195258697860747,2.9209051522213154,-0.18030572215247131,-3.261353167154263,4.463545003497405,4.681251993881503,-3.607850568109707,-2.76466814508818,-2.1963303486815273,-10.958601461686861,-10.655306797252969,-2.1506641452302215,-4.504508953784123,-7.241511928614952,0.9850591378190958,2.6125484057350308,-3.2463772681889207,0.3309151743466585,4.025156756935554,-0.5259302688886955,3.3227868218183776,11.514855637676739,4.211711395893836,-7.01766175942417,-8.876382876262277,-14.3659126888872,-20.19908110706765,-11.052957577772846,-1.0401465726237724,-1.7009674232342002,1.466707063369201,4.0763922187156965,-9.071998826957786,-19.83010264584084,-13.456111789910574,-6.948111982142247,-1.8487979119213063,12.06849049889576,16.869525565914763,4.147939799222944,-2.2081826256398176,0.2978823031693192,-5.223649844292044,-8.156197516339219,-0.32857089836172104,-0.6156107000059976,-6.639606917424231,0.14072366326494867,7.1124716548562565,2.6783731563329125,3.5879377825771166,8.386510527648213,0.8761369641824466,-6.145372039841841,-2.6196715581543213,-5.000198264049195,-9.64694471602523,-0.0485948970536656,8.607060875101872,3.7932569070440225,1.1754214053302734,-0.49474643565242266,-13.186933151758998,-20.148540716370196,-12.01073690495058,-8.050253941468029,-7.689179890927493,2.8762724919516605,9.612310846155534,4.3290130085354415,4.4957504400273205,7.29701129288629,-1.062553701457014,-5.867221923219018,0.2624929798403346,-1.3264323694319293,-7.117164425714649,-0.8464712646759383,3.7334665085646965,-2.9365435069485013,-4.062455436347487,-1.5952127036349633,-8.215465475060249,-8.268827149976529,5.240270742706027,10.4866738498667287.249853715897544,10.965099712369796,10.83759966654652,1.075594916779436,-0.7810484828526219,1.939289808826436,-4.540010581381406,-6.289740167217437,2.319391634762831,2.02609102133254,-3.134258991626525,3.088571288573885,7.402553669577234,1.152748607829591,0.2901806431658964,1.1628805235712334,-8.626398231231136,-11.525973406099377,0.582889932121029,5.795862662751111,3.270408612909982,7.416725058482542,6.918942384908295,-1.868058509770084,1.4554475831327638,11.456005839872045,8.555725592756133,3.656718281478595,4.463265492606122,-2.5661139853204675,-8.43135767666859,2.360417482124923,12.092079511139234,9.297931225543689,8.591038089908057,5.9211366396420155,-9.40741584288622,-17.96477007385765,-10.651388403769749,-7.364297599052131,-7.235280848393921,1.724044377463934,3.7420666004185046,-6.391387677573989,-7.472277941827528,-3.0620916910927005,-8.853363152903409,-10.126692554850427,-0.09702337773580805,0.8685615280562147,-4.965775272503596,-2.18017995737084,-2.5960451275492122,-9.684957865504474,-3.63530150834629,8.049317149274138,4.777765164070109,-1.173954371312548,-0.5846138246926884,-7.174541617906361,-12.829561262599801,-2.898962056354006,4.776804799659386,0.8597858117379058,3.3246233568266894,8.513123968129449,1.4325937348570386,-3.6467492288698793,0.47174215607613146,-3.8652993263163022,-10.642587949920594,-2.925087171052456,4.384366107303457,1.6724846548390844,5.041834737438369,10.484392737344539,4.55282198354219,2.0505530932923977,8.843070813263674,6.14586385709128,-1.2978708152538432,2.3921251267400274,4.595571537491035,-0.1859423327496712,4.231398133520657,9.970435543095652,1.4325152633165494,-5.5810865458919885,-3.033507323566987,-7.037638387945047,-11.302442145627639,-1.488096376610685,6.0381447711036245,2.7816942971086918,5.444541111416269,9.76284199478397,2.8933761766908903,0.11800056687998747,6.942290713164467,4.418290185773987,-3.2364123137679464,-1.0367052336683162,-0.8120439559882158,-6.157561740620485,-0.6548489555509787,6.557644066752472,-0.5871281813193687,-6.346996922394121,-3.4655614729329445,-7.440596403349557,-10.14968767578151,2.302217212273355,13.180025540338583,17.325236076568483,33.40576058041335,54.989747482467656,69.06566571004402,93.59940906095491,134.5343154809275,170.2561944235636,199.18583309727,226.89020717699185,234.46639465796684,220.16847907952288,208.03115587033756,195.36961549818534,168.6504311052277,143.55047593683383,128.26261120855625,109.6416898241298,94.50070752673415,89.81088346218935,72.8958357572092,39.45586257961526,14.19178134697042,-3.299633206220243,-25.525806893348992,-41.544278698521765,-53.45921180704772,-80.1189251473169,-108.2811772023212,-119.35121948094478,-129.56720128713044,-145.05059604527256,-150.08154869724555,-155.05570884072023,-174.40130835941156,-190.4618288545067,-197.44011018944025,-211.23262687782037,-221.98642613170793,-216.4931059748682,-213.6103852506951,-219.5064072487794,-216.11328235320485,-209.19991030243187,-210.883090219442,-205.98866344851967,-192.02549019388877,-187.77716960334718,-187.15077457113475,-176.9608771936848,-170.86227712282317,-170.90110497092832,-158.5829778967675,-141.984306870081,-136.9255358868361,-129.39534921262413,-114.65157169985952,-108.47474719138027,-102.73831248720333,-86.13917136503457,-76.52420118204897,-76.04478633430656,-63.799069992082906,-47.13006324799604,-41.249109518588966,-32.40500112203533,-18.07669325869421,-14.50079029401926,-11.408325653270499,4.392193985452708,14.743442427668127,14.417273271665682,21.26795656468804,28.669900770908882,25.049119317703063,27.18128182538101,37.94002958771543,39.044906822624185,38.47911588501074,49.25972591159721,56.288564458405595,57.47517371021063,68.96788544058836,79.40879824450539,74.92548064422951,73.33603311467982,79.59238266478252,78.06866296916661,79.13439058870057,93.54584861900918,100.59394606277218,96.98890561096027,101.6453660440094,105.10156216095605,94.9199616596237,88.53629017468188,88.77759981904742,80.95867412882654,78.09618175975632,91.78006390800532,100.63051150896251,98.27018304654835,100.59607902767208,100.26952778680115,89.14651213294356,85.51192093400277,90.22301384400163,85.83112584984305,83.00007563134987,93.7915319262899,100.22241102109146,98.22014285820478,102.2157975144261,102.10555583775353,88.64097275972537,80.55882315475364,79.76918626325548,69.17597935728321,58.06000428748829,57.54695582951973,52.59756299594685,45.27684390648751,53.992640524085715,66.28515461957352,66.79575082605749,69.54603201953599,74.79821253776312,67.40747938026196,60.66974296518795,66.4285050183523,65.74027102129938,57.20494308010076,60.04886632792687,65.07433054031267,58.884805484604016,56.15938199830383,57.49889387063501,46.44196786774718,34.714616546057016,35.29236966709531,30.841668985705432,19.244038944517733,18.719224625436652,21.737828382740954,17.818302793938116,21.686149310472516,31.69718267241841,29.61399875416007,24.597829726404814,27.483932160196623,23.665092905735605,15.175973915990195,19.34231686487555,24.164292627971058,15.403764688353387,7.286236945776112,2.192104814288911,-10.960921255986714,-16.869591594183,-5.171870542657804,1.1961100709367407,-4.527538586079945,-6.824653051394792,-12.375736336147849,-26.55279543362021,-29.574102685975976,-22.34569184935549,-23.95854361136636,-25.17312594137841,-16.23612222671468,-14.164533458715866,-19.241302220214845,-15.971754097188242,-15.268627443159701,-25.548477946352175,-27.61966214306457,-20.629138148137038,-21.339596163687435,-20.399990040762106,-10.099580051995819,-9.035596472030017,-16.213803294296124,-13.535250573034414,-11.679496821680114,-21.659695295618565,-27.11887759376347,-27.39852222128652,-36.26323858355246,-40.976277771319296,-32.96950182572914,-32.04828796215452,-38.54949993844674,-35.549566732145735,-34.23929349028556,-44.436451557286404,-48.82232971988696,-47.90626058593375,-55.83088967802043,-57.818820326035336,-44.635350357106674,-38.0707607820046,-40.03181158432506,-33.75026369194555,-29.530984250245794,-35.320221894324526,-33.168284417154496,-25.74559852887036,-30.757419025190437,-36.52607808715551,-32.72399963982279,-34.99321583522338,-40.95681304808129,-34.434011810301214,-28.064882357732735,-33.21980324541052,-34.476263149282445,-33.30082002183633,-43.61397627321892,-50.12182023956195,-42.618896389521424,-40.41432101375332,-43.37731397819057,-36.01393673200119,-31.12620191950731,-37.06381731905441,-35.34612903275667,-28.695357865782164,-33.66581182433662,-36.94149504535874,-29.304973409731623,-28.06690884730206,-30.329026282320246,-20.517995258636333,-13.020766730549248,-18.262559725887215,-19.326919973215652,-17.86451934766796,-27.608342277912964,-33.04434150737201,-24.80247198741947,-22.635779159101453,-25.766267876533945,-18.54831736869922,-14.817316892217438,-23.68543604446648,-26.468506524852764,-24.959163858661345,-33.82447451348436,-37.87050974834895,-28.98747906918531,-28.048413604381203,-33.083117929121926,-25.990853214804382,-18.10247579603591,-17.80298516099489,-10.755081180649825,-5.517515693048928,-17.813398768468446,-27.102466139285262,-19.28042358619565,-12.525024682400636,-8.87534684438493,1.0390529600662708,1.2176862355967197,-12.479388755464685,-15.275875113000264,-7.826219367961646,-9.482180777072681,-11.251369591861774,-6.183619487673857,-10.001403044505004,-15.802036715329615,-6.181278415284954,2.7722141364220407,-0.8993815118336173,-0.10607450467480373,4.217937974588395,-1.0788541201047694,-2.1719693408625287,6.818526746444172,6.632199216377023,1.8504836659553652,8.731182855780323,12.573126500670721,4.8471373529459125,3.22913316397716,5.522385004697001,-0.6517588397407321-1.071338668600314,9.205943603647432,10.111366875143865,4.887159527232244,10.090075532172952,13.864244830044766,9.142061156141128,11.939607792044324,16.466605118804953,8.158262552337185,3.265503710000046,10.352683286149412,11.689904312381628,10.891129520072953,21.884456285362308,29.16257304127927,24.333448524480243,24.0868788023759,24.301731569202808,12.864370607266295,7.369202672356037,15.28962641317568,16.76857018886867,14.224635109640158,21.182042930837678,22.634647154268283,13.038858530971826,11.650965669788517,13.557811943817939,4.759740871465838,0.7119926475352876,6.4859154740433596,3.5714839504341733,-1.9296109033475533,4.8425717773461985,9.388960269476241,5.265324118728904,8.925172474120878,14.861572041595732,9.096526767038004,6.033839790769142,12.112660574430754,11.01808800402593,8.693837266705144,18.70000718382464,24.426059349786797,17.32885694651656,14.06736683092756,12.030927143086583,1.7805444403323585,0.5716638027121727,12.917843867669843,17.28046327813374,15.034476545410605,19.057058150659056,17.086866406703095,7.429542732307156,9.888733782741273,17.310234045773313,12.624253459676165,9.28343788330816,12.824972605014942,7.242283475160249,1.2808031422792032,9.267456846704128,13.51818304437516,6.960577711844216,7.74251922109433,10.812034090857466,3.5573414222925677,2.7902602260794445,12.824327177699343,12.262691894133052,6.230418978557741,10.891725242421334,12.674888295834894,7.228979477647303,11.761545108765548,17.197156396935235,8.53544245048903,3.5795386501350355,9.78921859992135,9.694340946792138,8.848544331809382,19.370919963968127,23.592918648517198,15.529195406157823,13.718943086905934,12.82955210626723,1.67032325962664,-0.9576620565835952,9.265233078805412,10.248569592064168,5.784821641006057,10.184234519316108,10.135596843003349,3.038052954178258,7.113332894550178,13.2651527877203,5.3752298139646095,0.2443008266489014,5.257965236156419,3.250491562356749,0.5986279232721181,9.7090942568011,12.929039530010526,5.2521683253140985,5.659987401870744,7.980793608748621,-1.0519448866590944,-4.546704160381169,2.903280835280231,2.5232398731390466,0.3469855425444841,9.206708776908473,11.766444015704746,3.4876982457076933,3.944350889564454,7.34174352989393,0.8835968362943545,0.6247912259903029,10.31539446482412,11.104064753385845,8.978563395616309,16.852840689080352,19.343415998848915,12.021263313219944,12.033781620864989,13.24135367537664,3.763520975995939,-1.26231608399266,1.2720585571775045,-5.276289104092882,-12.038993387670926,-5.452134923797814,-1.0844797788290905,-3.2768938275386903,2.573921887764686,6.246521686152923,-3.750425098481769,-8.678892980602214,-4.6688673109796355,-8.75279168957067,-11.7790835180445,-3.1346627299905085,-1.5998161360577834,-9.189911780157157,-6.587501004213884,-1.3297456004827986,-5.6762499455311906,-5.08848688943632,1.2765218921307682,-3.5644193483199973,-9.627008971510323,-3.4061512243972514,-1.1485251768358125,-6.730483751379705,-3.097797469205838,1.9682989199732257,-3.8344795888598773,-5.789865017775741,-3.3147445213781412,-13.133153869984046,-22.59389200434519,-15.933495363847864,-9.026425970833166,-6.877480251391113,3.260622874341445,9.366619456208676,0.07787106556760559,-5.5670568546852195,-3.5520768955981725,-10.33414660926141,-16.262257483190748,-8.912423597782333,-5.115324411591525,-7.866128783824697,-0.9350745734527033,4.6482135307344175,-4.026062640270226,-8.78297527651484,-6.387540593249051,-13.683060074953788,-19.818758092169457,-12.345983690334933,-9.086581055356708,-12.363615619938319,-4.748504697705657,3.201305333495304,-2.7297100293988974,-6.939619307389128,-6.0638231626975445,-14.770307746784589,-20.996954481487602,-11.35362311480743,-4.360522071632227,-5.83410624509595,-0.6296352695754992,2.3011726974498474,-7.4369353681503,-12.178660107303259,-10.1987877204586,-18.049941416271352,-24.22851061223247,-15.890358761195756,-9.792340594015243,-9.023475372862725,-0.4635431491473203,3.343064799504283,-7.252666008877972,-12.040204933894016,-7.6299722715566025,-10.16955760439574,-11.15669574348611,-2.3095204709716333,-2.0163437089930545,-11.003932060529614,-10.32856598051483,-7.720173628119573,-14.1568921650333,-13.717726988489424,-5.674152124653992,-6.729975344515286,-6.377043500903987,5.804869456350048,10.552303485084915,5.343978974056062,7.751272272161638,9.110972145077023,-0.6979324040822208,-5.32311331954384,-4.65212442750337,-12.787047709292239,-14.98116322476134,-0.591580083443044,8.419042372244707,6.740476627497532,8.911128166257297,5.963850448295849,-7.170726586161904,-8.793767252951408,0.35986803800962086,-0.5069443783604819,-3.2665077185468374,2.075849769979245,-0.2701709714520639,-7.592488328493163,-2.1368865069639553,2.4127180848349035,-7.62472001860432,-14.446989750968537,-14.260627732296726,-20.174744266733008,-20.323412669138293,-6.659097745613341,-0.0857731812281648,-2.334079080216089,4.645079226945914,12.11561800855993,10.572967272196163,16.28831067871607,26.488864408996207,22.595001355389144,16.237932392933924,18.82389520833295,15.15101168325021,8.551015176687516,15.300163064326632,21.49772430056977,15.925809771286731,14.222572776797154,14.529242929575831,2.839440929272362,-6.609193603533415,-3.4562615377636345,-4.764490746662764,-10.031671406402149,-4.315321411791927,0.31467236935397236,-4.7577456649502405,-1.6302331948144775,6.986713655648286,2.9789792240506126,-1.17970236669174,5.661672087990125,6.981122059721974,4.337304796150201,12.735945744744438,17.683531736104516,9.17957990184469,7.256209624601677,12.706258449710694,9.04020684304406,7.735464379492949,17.309520809356517,17.983992153970654,10.354601780036582,12.604344198545974,14.114661188514233,5.596781927042184,4.577940569728976,8.543172179496397,0.36961573061921404,-5.45637363098686,2.7320291074428384,6.189526785539395,4.506259745925545,11.73018419295464,13.695010635651306,3.4031923914372917,2.3028673305780574,9.65342845386119,8.79064888529005,9.553643824161709,16.490442618432983,11.525766946713023,1.0865292410693446,4.627180800707978,9.950008398253724,6.142868567562137,6.741101441890187,7.389904525534338,-5.43854642569718,-15.393185550987617,-12.009164564550083,-12.521750854535554,-15.371535800148738,-7.484546768038432,-4.699718912394821,-16.087324719495435,-21.557899113653693,-19.46119119122968,-22.711134261570216,-20.01851864401092,-7.377127136500451,-5.005208932070131,-9.268164536386722,-1.9422714714395943,5.59840010012,5.038110572759266,11.746074255646327,19.36607150011801,11.593930372450945,4.432374377000318,8.534826689786703,7.077227771193244,2.696914227393734,8.131447828915396,7.348388911742003,-5.565426900042974,-8.660207441415489,-4.424074748742351,-9.841022573988083,-12.634013720623141,-5.910471945119281,-6.817816646346214,-10.47260613115036,-2.238334036028408,2.05947107927516,-6.147891688236019,-8.645020565268744,-8.246276570230245,-18.08745229398592,-21.59494003150798,-11.140063699085546,-6.335360523171332,-4.864839581476525,5.623501191522708,9.268265257785682,1.4218478762725875,2.634152265586062,7.838532562325256,0.6098552352035931,-4.975527265670921,-1.5694121076686747,-5.046060385416625,-8.087480223816089,3.2496483436333587,9.868754881000804,2.002508564473679,-1.1338652520517365,-0.18741279126499877,-6.627210713209267,-6.268484712923259,4.144562758762268,3.7682716011342228,-2.852475450105947,0.7318485011232916,1.8564370544826894,-5.121059166994958,-2.2555998367614736,5.623642951248284,3.207767151899694,2.6643391638367886,8.461680785246983,4.438257244687341,-0.9268348665284007,8.007433775277374,14.37905912170905,8.3889617453698516.1775410482550726,4.60131130250903,-7.379578692296695,-14.118613331363356,-10.858620389209513,-15.69306520090497,-22.209917705719402,-15.319302335991491,-10.188140885478717,-13.7105354338974,-8.367155083980041,0.8481813864849967,-0.3271114759191742,1.131532630219617,7.861975804912958,1.6728073982345624,-7.612164572056528,-1.1679754805456333,6.831870676815584,7.856863352242378,15.26888245527172,19.920306353350263,8.190229374882025,-0.35309805250904747,4.302481563291877,5.094039281981912,5.607679746257502,16.60673163866078,19.707811687476987,8.14347641527934,1.7796528252305546,-1.1177030056060206,-10.816396604499605,-11.248668562680745,0.40727258116526244,2.6606940633094966,-0.8145535568276419,4.083652202575385,5.084980741300301,-0.4443806553602605,4.034429657605186,9.543178754614747,1.847747178049679,-2.541695513137684,2.3273156047963104,-0.32847801575643265,-3.61611921658265,5.701898333520558,11.94020232719673,9.274756489178998,12.587865553587385,13.606711582977878,1.314892309806031,-3.817492635478871,5.418441407924421,9.113921082397633,8.849953524047425,13.804573867252577,9.186471515726574,-3.7967434097001656,-3.1723420197624677,3.095494836804384,-1.843540184016451,-4.746822332180445,-2.0190774067379684,-9.713696527549663,-17.261872448384423,-10.018307170108116,-5.641356158312645,-10.134026169898618,-6.449399054873459,-2.0066822046716197,-9.368578054573582,-11.535163401569296,-4.674030426050279,-7.324518811154647,-11.854117388628303,-5.173729584083191,-3.3933548447713413,-9.47061519862059,-5.236324556061751,1.1654962045161623,-3.9615030824476833,-5.835660437390722,-2.666034024850733,-11.342546560479898,-19.836910796875426,-12.46776477002648,-6.335314802626975,-6.851508235639382,1.1546518470054847,6.529924091502158,-3.616043904760093,-9.324957080443726,-4.792974701056815,-8.325894910632503,-12.729030862628386,-5.445455636618006,-2.559946329953449,-5.753896573180426,3.3354806647055044,13.26043154190662,6.7860846556670396,-0.6279980421075273,-1.8043621208431109,-8.373371214476098,-9.683761123534811,3.2063989294528783,8.81110747500632,2.5999998876835333,3.59324260557373,5.4316494271639675,-2.1875227117562956,-1.8048870037317164,8.477786170225198,11.660965078488093,20.147432614589178,49.30345348138264,82.46546411938843,115.42534516061313,161.25884605891264,202.24449961844263,217.6929209917208,221.67088580439082,219.33533746092277,198.0443935346451,172.39215743830906,159.772306344127,146.40591611957126,129.91642672663792,123.84969209189255,112.54608611599284,80.97602162377517,49.907913972843616,29.14178467593608,6.831912904792581,-9.420502278436851,-15.677307235286708,-34.21694334000319,-64.15864473826463,-82.21262098361258,-96.03165219679609,-119.19721376143482,-136.53137253337297,-146.612883255279,-165.02348316196105,-180.49933380216538,-183.25122325230558,-192.58268932692997,-208.6499012800075,-211.05723635827377,-208.47683426009687,-214.00109310953542,-213.42035143234125,-207.45695480365288,-212.78682307446192,-215.8202440477072,-201.46711244856948,-187.00813507227093,-177.2873761665193,-158.88264584327135,-144.34240078194324,-145.11358984826853,-141.24127004132384,-128.1017098605759,-121.60845742105373,-112.94996369832705,-92.896860544509,-80.47012693502734,-78.4850715586766,-69.49547371583527,-61.17365002952525,-62.72863607251682,-56.546309663427145,-42.57481265883471,-39.353870261539846,-36.59988013764685,-22.286491577146577,-13.611026348548148,-12.369603560591989,-3.0364646717402897,3.2867471752378243,-2.409936013824964,0.09549062763141425,12.87241007721459,18.613801509915717,25.678955133744577,41.247513280959296,47.13790726770591,46.02945199865923,56.32594303248004,66.13049251330115,64.39365046854788,66.9319773312827,72.20004272202283,66.10111995444957,63.64736765884935,75.1001094881006,80.39665503149426,77.79120816431741,82.82415881952409,84.0797165047511,73.67977866252855,72.14476909101215,79.29597946260809,76.57782097306638,74.1489510417642,82.44937889009496,85.49118642039923,84.297980840996,93.65872650130757,99.27183151900337,89.76607822994134,84.46826067890946,86.36374683356192,80.83262325665216,77.31984778135812,82.22411688032535,78.74535300764694,71.40909444389291,78.13541615904965,85.43040721702573,80.30156266213025,77.71099678872375,77.28414875899504,66.29311652312933,59.161913618602476,64.86912091508269,64.98405838569016,60.449028904873266,66.46754270868541,70.44221316716154,63.45805573206947,63.63786954164629,70.88536956162515,69.11190497672182,67.0300334764707,70.37515450702199,61.596182647282866,45.82093210504307,44.13382558916774,46.837063177529274,43.30005380228402,47.66269369602658,54.86828119788291,46.996616892216664,37.10904896178563,36.118029040877765,28.431150338868875,18.562046017794913,23.772776886513597,29.740443237570453,24.802891594929843,25.03391020893388,28.68016851517406,21.61127402257955,17.33041002506269,23.00427422191711,19.430917659499478,9.533834976069272,11.064556398584148,12.863470551849586,6.413994801356729,7.357673458431183,10.850664894022275,1.0700512484169944,-7.174725895785592,-4.47822506590091,-8.167453714790065,-14.106095576124343,-5.073557362740445,5.411571352013924,6.224105279999227,11.442475610121173,15.742715650038305,3.9807653042068796,-7.062181316300681,-6.662689575020826,-13.236593495458006,-23.785340103977063,-20.663435467077626,-16.521092621254102,-20.75780049543325,-18.064622824215622,-14.588030312317311,-25.6665290701936,-34.13444405589039,-30.460992025710354,-33.641190313559555,-40.20285295289148,-33.71981252166025,-27.957981430090534,-31.05055469699476,-26.689724240185996,-21.42229503956682,-30.646058057771455,-36.88138289124809,-30.484089211425264,-30.474459897338694,-34.306710981413424,-27.278998423835624,-23.61722184936781,-30.27850142519354,-28.770633124009166,-23.796398993962455,-32.37856670240892,-39.6286490507092,-34.673816056346254,-33.862050521550564,-34.14925590044959,-22.712467500500022,-16.884606545905463,-25.2118404540294,-27.36025778683925,-24.081781473640696,-29.501233233815533,-30.743652227340938,-22.30277771090168,-23.18846586216273,-30.324369053439753,-29.022877495317424,-30.808230643100178,-38.79673145910149,-33.88481298380065,-22.5461686728246,-24.049883776885444,-28.383779289703863,-28.45232219229208,-36.605489605319995,-42.9443229116187,-32.3803256188649,-23.629685928737068,-27.182697433957205,-25.094881431880772,-19.847693115102555,-24.039966993644757,-22.864122784376633,