20.760924657744717,23.66119746890694,36.34671823539525,60.57747101750192,71.6677489921764,84.50005447136358,112.85873205887752,129.01810970528737,131.6973029327806,147.3635971729381,162.3218224513543,161.1946096982701,169.26727805711826,187.9577193837606,192.559074518543,197.31445171539104,216.06129020798127,222.0853202268975,215.445243694776,223.82350448536414,233.7433325701597,228.89924931087168,232.7550783816473,244.79370929423598,240.31256004638556,235.83365144208793,247.45177191773024,248.9472726222902,239.01949945523904,243.3548279699139,247.38605821047577,235.25399779871788,232.3894303847374,240.3898796325026,235.1137731093466,232.58291143714015,248.2896812141699,255.00437180534354,249.64474218725772,256.07044762165367,259.3911004208834,245.52097455423672,242.36129095430232,252.42508911330592,249.93519262298116,247.85472479689463,259.90119179775866,260.1678824072945,248.6232926534525,251.58563959341262,254.7327979952645,242.0674426143483,238.62112323981066,246.2745685166061,241.38063224912972,239.2588712924395,254.17595792932596,258.3498912813444,248.9074326683056,251.00758755977006,251.83694184064433,238.41076485944592,237.22313067940584,247.77584477153232,242.70966299124197,236.36366190400827,244.6791945457896,242.28987024100482,228.538752257257,228.75159888177578,227.34499940768734,208.66672552512327,199.6785351240252,202.2657061683098,190.54155476671562,179.10412256494197,183.7716441224726,178.40526129705466,161.89853881394203,160.9206586769601,161.15808270911378,146.12324010911345,141.59087277096893,149.83480116708083,145.93128063851086,144.16737366120782,158.4757436684096,160.1681312985152,146.0745456749696,143.05081846547318,140.00097904834007,123.81478123750993,120.33276752152018,129.21716184922775,123.11699575367385,116.28592507068856,125.48481465115287,124.98071259399177,111.89660847688391,110.91966593766323,107.72240718487663,87.50874649934468,78.54650981045356,84.4741756782579,78.76526659919881,73.9477647845809,85.14164650608996,85.58058957282914,73.01204689592282,74.64686967808915,77.90736427056811,66.92435467139052,66.90058089793361,78.63074164407371,74.6237163578077,68.13053290942145,75.87803986110531,73.4060874359595,60.074979223855564,62.1665962154469,64.64986549983504,49.97362941672979,42.751971293880175,44.360970577282544,29.988204128905707,16.043723779220183,20.3971128431204,18.316219607634423,8.027370299370409,14.223513495863209,21.637618594267206,13.159425325921871,13.017400335476754,22.20409126623156,15.372745088069781,7.533551307823122,15.362981495639936,13.249210614489924,-1.1000069846130867,-1.6347447133704955,-0.9864081737593811,-14.343061106756402,-16.83412730621516,-8.333651205333343,-16.132412537496677,-25.927428228105846,-19.846906467762896,-22.494837549917598,-35.919196402483216,-34.42603741676519,-32.117422269081075,-45.16596431119901,-47.768602232121225,-38.32990004550214,-43.38546616464251,-49.26078936114163,-39.92659364078238,-41.03656753510913,-54.13478877747676,-52.243441766862176,-48.54536374470031,-60.32275101313784,-63.67137335878412,-56.852789096785955,-64.61756723746797,-71.39495075381618,-60.29587782804907,-57.828790712487944,-66.57329573175056,-59.97494237427354,-51.47420270895802,-58.31316376333523,-57.75363381319858,-50.18727245200871,-60.51429765843021,-70.96474836298685,-61.50901947524581,-57.31467709342907,-63.39805556905033,-56.56044315137861,-51.601535775021084,-64.51659229081537,-68.55917844444686,-60.58599334844612,-66.50671937018336,-73.12808681007743,-64.1963120244946,-64.66878950186054,-76.40431974149311,-73.0108426561745,-67.45929876539014,-76.55178684366712,-76.29228558512864,-64.95581157606017,-67.65240051026959,-70.27337828304778,-57.24410734153915,-55.17458151396963,-66.90542077102367,-65.92061795962493,-64.25772687369503,-77.65350531543322,-81.64688970010003,-74.28538369635126,-80.1385140087197,-83.92388140714073,-68.49171846895398,-60.52933948796092,-65.36453159718707,-58.62206656335255,-52.81444825264734,-63.67055867073293,-65.79731392108113,-55.83031981883329,-58.78645633790997,-60.671695224413796,-44.131417648140086,-34.92261880296832,-38.28905411128691,-30.65782444704299,-25.040598757546874,-36.7816559541416,-39.77854357580284,-29.950325982920486,-32.57213513928261,-35.673789097129635,-23.984964541965972,-23.117813320127354,-35.399053454188014,-33.61815013791855,-29.72823283518536,-40.884528205640734,-43.512610440768114,-35.59562161105762,-42.322416132719646,-48.425145692020166,-35.10190277819015,-27.881353778991404,-32.093692164958554,-23.7144465738345,-16.49037591466189,-27.324897050791343,-30.2632740973474,-20.97463395953484,-24.836476784317384,-28.889178910257694,-16.22250089579795,-12.493570846613801,-22.10645160201344,-19.48348282571248,-16.635059733784487,-29.62833316345463,-32.765454950929445,-22.533550102037452,-25.224143118042555,-28.44641165182498,-15.08340636467221,-9.822010046663836,-16.39258163625701,-9.543040163128957,-1.9617748163996223,-10.574460817253602,-10.581479157670966,1.2966173853675373,-1.226088377929457,-5.660219279276281,5.7905371171623,9.219824450143657,1.6379295226305084,8.712725500670222,16.922441618440377,8.173277246163925,6.984622110395761,16.752382937777988,11.494187791037719,3.8614771625175637,10.845694450191663,7.882818276274241,-6.671755363455777,-4.668867843372563,1.6719442460510923,-6.052411295941313,-4.582958156798307,7.927606170604223,5.0116638367610395,-0.02292711083495691,9.930950614609753,9.703929776397512,-2.8702799576912525,-0.5107926639293288,3.737993009066212,-7.71121734363726,-9.477890781030855,1.7531289874273153,0.039990519676408987,-1.230896302415183,13.775185813453911,17.84330592011227,8.328823900583599,13.497898702190776,20.941685586053584,12.969077025109872,14.403455522679447,27.36040202031108,24.119866781823585,17.442756697393595,25.901457209418734,25.977454720055704,15.005423825381097,18.64255968691572,22.798736942787023,8.925702270536302,2.304621543579977,8.37384532214046,2.864939558428432,-1.6276771611019552,10.790890255676034,14.546875805040575,6.4174395936060336,12.942640815466573,21.971291886809077,15.580704154776132,16.90635417953063,28.36886402727997,24.14548394773221,18.09248103639963,29.29959841155391,33.45170982132242,25.384999686977,29.560249094118802,33.78320802211672,21.93883555823607,19.763072519935445,31.461787637809635,30.366509144149283,26.703583868505483,36.306636512300166,35.20957393115124,21.249861595530504,22.003112253338088,26.677833180112035,17.35623669668026,16.447597593368926,26.770355362712547,23.132992134854966,18.955393274476624,32.1518456762883,37.002938405740586,27.3618641625228,28.129956247085673,28.418401818469853,13.00559520376843,8.512719366741162,19.739660303000555,19.25204936584681,16.24944570204724,26.26506558844941,25.16092055473368,10.954411775120999,11.606847486121353,15.633812335719036,4.258818801980511,0.7742363064675977,9.658777403078734,6.081672064328927,2.505503402186693,15.853675951105771,20.275527054567366,10.707605138652932,13.650716695189244,18.692910929112287,9.216122409511032,9.460440766314534,22.454648786999655,20.16306611557212,12.516634205159827,17.477703893138564,12.953216384378711,-3.444568414449183,-4.697692237945013,-1.497117086414161,-10.859658370534369,-8.791214789955763,7.651128232203199,9.998128696184798,7.151893049293521,16.06794920083729,14.776373474728313,1.872948235070536,4.555679279669921,10.516940823636961,0.3190353081157147,-2.9660613308978236,5.1848417707088466,-0.18449750210331795,-6.439405995982578,4.00961255122765,6.006853259944043,-4.908823628975406,-2.2699760143072156,2.447619244519315,-8.087215176638779,-9.376010896727493,2.174909963849351,0.1789585916248626,-3.2811502919049964,9.25881417781606,12.562462895299669,1.786238675373892,3.297704004204524,6.231588539238484,-6.698990537451373,-11.105160541300405,-2.1253639386492162,-5.1632112051299215,-8.708547735189537,4.597304345924738,9.777025420014343,0.692956047269119,2.2890565391963613,3.9775008763643416,-10.331489065826782,-14.96601454600394,-4.498617576383549,-5.549239400080824,-8.67812441590665,2.4733385007159905,3.899781856765424,-7.937555823056996,-6.308383114414823,-3.034916043917538,-16.598482474603202,-21.788802491392268,-11.794358327160122,-11.674311189741449,-11.979888385689016,1.5181774744560288,2.730524501425772,-12.019674056285883,-14.194940679064658,-12.861386923523943,-25.079975158598746,-26.77899312745383,-13.566526983370501,-12.165702280314125,-12.4008917175112,2.3647857961449192,7.863442278112065,0.8058767475361095,8.271667583594212,17.76180819476555,8.787972837543856,4.659440762279121,11.712588881794202,5.548730855829476,-2.164617290068257,6.003974199347962,5.397243527515766,-7.9890980771603495,-5.80050160682482,2.0758149359780704,-3.947233642014969,-2.547940703352415,9.189543129456737,4.289906150507491,-5.49419541316626,-0.12284594505050439,-1.9587034443994282,-15.560780690994234,-15.142941015029402,-12.223115303011117,-25.559235554005234,-30.723519476371628,-20.89281659277153,-21.759114429403795,-23.93147624525775,-10.654058767354007,-7.026527521629813,-18.86810847411653,-19.031636096605226,-16.624469550395837,-28.99653609471847,-32.244469801639205,-21.497764623821812,-23.198982657623194,-27.10019945068113,-15.633507993757117,-12.817933463795121,-23.297277347427315,-19.80535825061707,-12.200908241912462,-19.26928175115042,-19.137458525204444,-8.469778152194113,-13.481689220844768,-21.77687828904497,-13.0411136944087,-10.058494738387942,-18.665012762537106,-13.674108804885094,-6.274919405341924,-15.51478385328449,-17.95641416508257,-7.218383212903908,-8.334933198005555,-10.85943423330617,2.932354000709757,8.137280812687962,-1.9171551515970702,-0.11766735200191425,5.202158901059413,-3.9899136575594456,-5.080686346661624,6.447324141303042,3.3996213357289657,-4.476525408227576,2.280852102654194,1.7123642242852248,-10.713309761721794,-7.908941393454857,-0.19881333640369414,-7.596525572733244,-7.484962212403605,6.158478376279397,7.514929757999833,6.398490792508655,20.029121743226952,23.646105972022262,12.170543897184935,13.476553780825745,17.831217591609512,5.935563531148992,0.9922845061717573,9.748663239636429,7.797881493046323,6.001953122194164,21.28290076642016,26.83866689461422,14.993355602393473,13.895935712203677,17.311398823190405,8.477593224100499,9.479981216907253,23.091012407670025,20.972634784555574,13.681386433185185,21.976317545479613,23.763062010203026,12.759220043734983,14.090752929306527,18.208704834297663,8.842412234231261,12.483798781541752,36.89058838091007,54.88876005422979,74.4049701663813,111.6583777622791,138.4035459858789,144.22257976504864,154.3581988229762,160.02858875452992,145.3952461811719,137.14357636939795,141.0968544094114,128.46272158758507,107.65424386494712,97.29840564862351,76.6017470138703,44.38431901900893,28.764095751857653,17.905737288343918,-9.276513600271258,-31.434682204928613,-43.357816689128384,-68.24929906578116,-91.94823628015608,-95.15653110209819,-103.32476588998243,-123.50173533830582,-128.46837589111513,-126.75346450134145,-137.65278836248027,-140.05912806664176,-130.65263184922932,-136.97604580603706,-146.93775793684023,-138.01773573345002,-132.96906855212973,-140.32551832261774,-135.5952428021053,-128.58821707622195,-137.23070968983185,-137.46316545439768,-123.86805450627085,-123.51953016599913,-125.89721299501653,-110.77034366861614,-100.76812490349218,-102.3449251040299,-90.11443115180711,-75.04030651731442,-76.9726134598979,-72.9551098499666,-56.83716126326068,-53.542243516069504,-50.71606783755507,-28.370044573212063,-11.71953318115895,-10.661383849105063,-1.4461833072643175,6.861241649301635,-1.8823254883225342,-1.8699037720851988,13.35235251285007,15.349146382519628,11.595025653191263,20.607517631589726,20.693761423991774,8.435036078655118,12.14518658653807,21.365005061469823,14.823264307330682,14.596184922303202,27.02519692781566,26.69348177002179,24.48066390588315,38.971543468155836,44.955574044164436,35.682597230901266,38.94581868650822,46.24802616780003,39.086502327135776,40.519738241771954,55.15795876552932,54.6834194836903,48.10623229628559,55.60518610782462,56.15716713683624,45.054963149648515,48.73469090022034,56.41423764251326,47.373896160592736,44.43734055838223,55.73381248684203,56.97258600916416,57.89003085947606,75.73508698881108,84.94918482646426,77.8508977495707,80.36002768445915,83.01520836755324,67.9565408318706,59.95979573619425,66.4832899501865,62.17674804158162,56.81032138440203,67.85041617079165,69.91515249347559,56.32676096070705,54.934885515028874,56.88914249877041,42.59164274349561,35.262999633159524,41.88651370298974,36.66423028376355,29.74298722108302,40.03054513707224,42.52313151519229,29.254906398850256,27.97295016349236,31.62506288243497,21.151704653931475,18.689815522869726,30.164565942063337,28.091102978228832,21.339358904896113,30.347744168137485,32.52478908493265,20.465230161103314,20.699006001765923,24.230319299789723,11.28416376051317,5.307864370257455,14.490316843061018,13.203731767872245,10.161216642812118,23.658739767392355,28.965790618337028,17.778672497564656,17.089026166568885,19.56004768602272,7.109555184281189,2.901223850241153,12.768280095761336,9.31358627099927,1.1730344805014306,7.609598049958224,6.640354096875338,-7.212592171279399,-7.070687076514149,-1.789745724606005,-10.493575781715139,-11.101386504953808,1.2882969701598856,-1.0318290012547942,-8.805206138251274,-1.2984309217807861,0.4148981856870173,-9.639849824261097,-6.126901330805022,0.06278215030860057,-11.185197469323505,-16.09422439702188,-6.472254961441308,-8.281600312677778,-13.348935895263942,-3.286452011135296,-1.0522045413497634,-13.416222536268197,-14.194537530267553,-12.217739711356398,-25.926495437606928,-30.904468335090503,-19.576730871653155,-19.406697873798045,-23.030401485914837,-12.162886040495998,-9.828315613657072,-22.035116304413105,-21.499023858188046,-17.07439891391754,-28.095374824329166,-31.103086654368646,-19.473656799641745,-21.438160694315393,-29.10259687159559,-22.226601407124946,-22.5800050931808,-36.34093410164671,-36.21228963506127,-30.894609996128235,-40.423189917689314,-41.876121266711195,-28.13718543573905,-26.888704112535265,-29.95811885390552,-16.8324340269948,-10.09100252896743,-17.828130003206734,-14.423252691453431,-9.592443591626777,-23.100710247517224,-30.607939702406558,-23.456302643945556,-27.705083613249794,-34.828202118423,-25.6689268282498,-22.594545643036547,-31.673979888303265,-26.057270718854262,-15.1911817956802,-20.585405537613227,-21.45493420596992,-11.005471315023222,-15.008367113663034,-23.61928636462063,-15.8304470403296,-13.502925304930784,-23.50381457728673,-19.504170765637184,-11.0016813236571,-18.66988680045388,-20.319780170434008,-8.277135362765925,-8.452528411137404,-12.714436426067225,-2.2714614425709136,-0.1601661452609694,-13.331739055544311,-14.154351065246539,-9.938526411799792,-19.864206085853827,-21.68679439619484,-9.329627734845474,-10.33860391458663,-15.818998616965901,-5.08997466575052,-0.7899744706827355,-10.946994757031813,-9.672643862303353,-5.964751202194746,-19.01840094158008,-24.27047986426714,-13.137674882987238,-12.68815395221731,-15.381447334602631,-2.4061011589547574,2.4518445428023528,-8.593237808707649,-8.148685220531188,-3.464321406279458,-13.642337157041613,-16.119012731647096,-3.9439722855106925,-3.7599991310676155,-6.747273705597891,6.644353111616962,12.427601209805841,1.7886090901502572,1.3478257889753142,4.52255301254978,-6.092746159777597,-7.085975056166502,7.303970950713424,8.397121613297347,3.7867156227589223,13.302223124619719,15.07030861723483,2.6418661204098046,2.942436732878659,8.08066217428159,-1.1336047493277839,-2.999915974039406,8.321421962127413,5.97431252632513,-0.7223293130980779,9.305636135050708,13.821931447571936,3.9294671726480623,4.619700983935445,7.712402443390047,-4.904097595105998,-8.649467589688486,4.455273398073397,5.829800461359078,1.548115275723477,11.564282945206273,14.704576125048971,4.330403151758436,7.369996761169108,14.786712234699362,4.984018019228389,-0.04887490283712159,9.052923310626078,7.871293711586002,4.651646570667455,17.63247757333041,22.306489914367358,9.109891635313863,4.753204252394467,4.233650348101359,-9.308909083661982,-13.252792132648882,-1.8057740429841305,-3.5131510955196195,-10.965262576218215,-2.789700615640817,0.7370787158859909,-7.951571999861695,-4.098889874709346,2.7152409364209222,-7.346634468562579,-10.25008913170629,3.551513611928006,7.086449369478775,5.630483858708866,17.346704216174597,20.476015282538278,8.669395130771557,9.630021894511131,15.839664800335896,7.110870461900493,5.994371892236548,21.509884304018634,28.48934569573496,36.21972241650094,65.6089745435508,93.41987276230539,109.60600327935218,138.0762206894207,167.57304602089317,175.72490373559953,184.2742178076324,200.578225829251,197.42157540216155,183.30303363244082,180.6039163546838,169.3223806171772,141.94216879256885,124.15008092264975,107.46879907603534,72.77556551989889,44.431154533887764,31.25883641742221,6.182667931470132,-23.172671218381787,-36.291503600803075,-54.45760690901778,-84.25980721991311,-98.8132089672183,-106.8943070019544,-128.76739672672636,-141.64781609340903,-138.31415411880073,-146.42830184336987,-157.92737271243232,-152.19450794710963,-151.90799389784524,-166.04306057496916,-168.57546705615525,-166.25228801538663,-176.69127961710447,-176.08419197867414,-157.70275796052724,-151.4505053235337,-152.6481656120194,-141.45463686932402,-137.28658021840621,-145.22883907619212,-137.79652906912355,-123.37148720884561,-123.30770082318361,-116.67314816842493,-96.30724392892809,-89.09284128562642,-87.33001662490516,-71.15415027695522,-63.0329949582797,-70.31407001398223,-65.18618970557525,-54.45102899886811,-57.47708346660053,-51.928450296914605,-31.07013624555774,-23.65458207002187,-23.38398060776517,-9.784056668150004,-3.8189972554588576,-12.306376807822875,-7.350600201374156,3.924260623692249,0.4584259317303281,3.217078948659153,19.886259196329902,23.79322286132232,22.38416311478591,35.954612492982484,42.39818089988536,33.2570512374748,35.61745629339508,43.257136654382016,36.62859548410125,37.11404398274503,51.18995443120647,51.21971310057801,45.74124848442956,56.61784053969957,61.99910575650587,52.752089617630844,54.91377857342656,61.5452133062497,53.87377251580793,54.80866046129734,70.74924544110615,72.0276748857619,65.30140612709832,72.99620687306597,76.02683154418963,67.17860892468323,71.42516551241624,78.79097944229026,68.02862707221288,61.98935486433798,70.2480386830406,67.6119625722333,61.63079412806677,70.85949795588456,72.43583633579031,58.64351815025525,56.47850343436417,59.81149858125891,50.159887598362104,48.948923556694915,62.072445644396296,61.29205752872869,53.36756125669332,58.64058285451507,56.58835495030349,41.3130873465749,40.40233094997402,45.70235976417047,36.02412478452375,31.98756271270063,40.178055652902515,34.660589930621754,25.64188987511511,34.940856391798384,39.98162490297642,30.834534566701503,32.134966582392025,35.89967004364129,23.413306659979984,18.7353273727891,30.762890097483083,31.479080958787563,26.249538116689006,34.807724051073066,36.23211924448032,23.384324332487083,23.115226313999727,27.79057360929659,17.060009215217008,12.951635420251566,23.773369894688724,22.98015477446615,17.4310272243517,26.246003744498456,27.111446587403236,12.842222056048188,11.1892865771352,15.418513111854553,6.002790803144624,4.7345978969124785,17.81474244700157,16.959112137622295,9.835929293257117,17.525858429986723,18.804659015038645,6.148788900553591,5.792678516447727,9.12743641362463,-4.013381034584757,-10.076457907397579,-0.15855509298164527,-1.2561514370307525,-6.443802862221391,3.1742659012042473,4.0540763347630016,-11.834381881316945,-16.165598829655465,-14.76338413548967,-26.93502096202972,-30.152964949974443,-16.74079979004343,-14.861754906751349,-18.402154247531712,-8.035228294867117,-6.324663333109013,-20.644642908749464,-22.19926430141443,-16.564557262363305,-23.593287987392852,-22.788255724491805,-8.635204162426055,-9.266118930438273,-17.052627853525614,-10.596793736427284,-10.007718916337812,-22.57687338956906,-22.32293242944801,-17.14192125730287,-27.515768702320813,-31.85294618966721,-21.93449765254146,-24.105243417765415,-30.7894643133502,-21.66323850298143,-18.70250760318396,-30.175788746722418,-29.83259248046886,-25.556745292321995,-37.222781609097815,-41.38322633380683,-28.46838769603732,-24.89486969013837,-24.431057872114362,-9.077891494717685,-2.9504173458365375,-14.737179078530968,-16.03276094334973,-11.464080803854426,-19.722178727486785,-19.383207608963065,-4.329632081220513,-3.369587871717366,-9.990535162087895,-3.260741432225042,-3.668835947922519,-18.047639880301283,-19.074221689524325,-14.31739778463715,-24.23840057579056,-27.030970597754003,-15.998713753647985,-19.2083969801036,-28.34396715147769,-21.178350219585145,-18.48047375523455,-28.339879039821028,-25.211036391670234,-17.823665467300714,-26.470628323659184,-28.334888751347016,-15.345903546857375,-15.844754936764504,-23.703956063765716,-16.911988355424036,-14.201512990335562,-22.77790975420343,-17.460807285495527,-8.1626630019745,-17.14114343935986,-21.497083509487673,-10.233475830980403,-8.96225016986449,-11.79487572781217,-0.5229406707401534,2.0002633607880758,-11.712812897294725,-13.336018911988589,-9.246688134745424,-20.38963128778709,-26.045519436600806,-18.291474457928278,-22.447611918227718,-28.89339965028298,-16.71556902196825,-9.919383905955861,-19.032500503004716,-17.554513980378026,-11.22991565688898,-18.869952271793025,-18.359934307344318,-3.005181507310107,-1.1913017614339734,-5.004326410526897,7.011211283193559,12.034909659324116,0.7831158662486155,-0.08499996488599004,2.233727491769967,-11.524869660099036,-18.342620746401522,-10.516237499107822,-14.567006645551777,-21.383511576886566,-10.14513013617167,-4.087927698031706,-12.574042601264434,-9.18361587565251,-1.3742045450233507,-9.807524567513074,-13.062401156842121,-3.358675131107949,-6.48389037358268,-13.0677018046901,-2.0035834518798232,3.814995496767655,-5.402804548448216,-3.9743774519207093,1.3916035641536566,-8.280807321566972,-10.692424949720097,1.7494788173342837,1.231630506653309,-5.716358310574414,1.6591255273120407,2.8251080110303275,-8.953967327747197,-6.134783205791859,3.418633615544903,-2.6713002474847003,-4.51518224489757,6.21583279333542,4.612493878185821,-0.7218795433417253,10.961377132089694,17.414806846973846,8.849655132394838,10.533843452787638,15.261747751709194,3.42963817052614,-2.6861919194510273,5.637084531740841,2.605395639587508,-4.04960029718805,5.506928492971259,8.910666933552765,-1.9905884607255144,-0.14126171545095323,7.832067840805243,1.9099000041024263,3.132307718961868,17.904920877613733,17.593195874510997,9.358058870570947,15.78315643444306,17.189879123901754,5.922348643014592,7.675440629935089,13.001876798227446,0.7983812810172202,-4.8936310716701374,6.381927501084486,7.400545153225743,2.662200870998286,10.245430000918834,9.156613636719905,-5.535061649344136,-4.5550041833272665,4.721020952766564,-0.39917038136240945,-0.5912264751410965,11.865066208611498,11.610064041455704,6.893549826229087,18.133701386583656,23.09065211479614,12.553260594222323,12.684580683948518,17.030000239769898,6.571102217648688,3.7983282251666153,16.391431776141633,16.2361539861761,9.338608941802779,16.358778134373892,17.08958353551418,4.275017021506816,4.36847754810589,9.28675821013183,-1.9236305287442406,-6.707131364848886,4.522411746572314,5.526916246408762,3.3649412869290694,17.37276134263796,23.296347067741603,10.774963662907783,6.59488647687955,5.862184953683677,-8.310544754573808,-11.57720495061118,4.160894141988072,9.645337645471919,9.336276267386044,22.601540605247475,28.080827932127875,17.921193199377598,18.979825620236404,24.436676001216927,14.6521874603464,12.626563633765553,27.272535530281846,31.75478205108834,34.065216313825765,55.5694916869187,74.54698574094652,83.367369856162,108.91866733196883,141.36947965906643,156.32288424996818,171.5239283666041,191.24037794676062,187.23182360558013,169.1179540950885,161.39781648652757,145.26239518483388,113.41877519847422,92.3217142349574,74.16610337657505,38.448835102348454,8.51331314826396,-4.532940506681601,-25.771454565666357,-48.61245077253845,-53.9966108432579,-65.04602061685186,-90.84185737062566,-103.5970002518995,-109.00989325965539,-128.01740157980228,-139.7796640361246,-135.37960955829485,-140.95776422859146,-149.49558354004134,-140.4604231133004,-136.4144042297825,-147.24683092779617,-145.91240763394256,-138.11790263453463,-144.16486882108833,-143.0573427742308,-127.64292314478223,-125.78218128938181,-129.84765336178629,-117.42535003110399,-109.02594966227308,-113.98055003342402,-107.51732501686499,-97.29453997438823,-102.22529105255202,-98.19392555726814,-76.45853223959418,-66.89912916633017,-65.83361371832069,-52.501065043687085,-45.380319252246025,-49.985336625823635,-39.57549156179549,-24.330699430920593,-27.789080890752768,-27.84043124507781,-13.284307339018785,-9.241162936393158,-9.496414590426586,4.515300289577407,9.860714530243293,-1.0604746306411617,0.9100707784680075,9.928806546849184,4.381134407687476,4.7157735853532445,18.90764563480324,20.538466620296546,18.342179818766354,34.042511596699036,44.62545156854965,39.18828391031979,42.91298765636106,49.38065933442796,40.71839984085066,40.57153458696987,56.42637295377996,58.61185180827843,51.68662037870085,56.186215150888195,53.50379756574935,39.42933780254384,42.35080049503608,53.099452785911396,48.23060300551492,47.63981051218129,58.81304250413987,55.88380413457072,48.05783611616435,56.711087943361484,59.97979701788487,49.43753661833212,51.180044529136225,56.9669436623033,45.85456342475325,40.235861817324974,49.306685255379655,46.511825029824195,38.96369523956014,46.9082110122263,48.605636767325734,36.92524687685549,39.27393377402206,47.174695927379815,38.61596701073916,34.69212195757113,44.00522925720426,41.438335068559695,35.61304146022312,46.8259636545077,52.31197344350848,42.486751896249366,43.055515715026615,46.653081476785545,33.43526959707843,26.89350296795257,37.177215597837034,37.18798787453191,31.605815436403624,38.60843324801978,36.310826115686694,19.057180306461266,17.206588661069837,24.44290201171134,17.530738757365654,14.89777059823635,23.71244352681793,18.782720108956333,9.33282809019826,16.004994119101745,16.48879505651534,2.8189295574664364,2.4599843813395257,8.603411631040853,-0.24480468252904863,-4.712261600967578,2.899647118389244,-1.7567580018193891,-9.135406678219052,1.6434582213275695,7.306222974661969,-2.728482473340854,-2.234809631280885,2.8871032782857413,-7.0878475018656255,-10.883952078726532,-0.9656455977292948,-3.7975075981747812,-10.270332670781563,1.9759624626704042,10.581124981940896,4.220023304025598,6.428271816457087,8.586959937932198,-8.083012110293483,-17.889739220104584,-9.912056510772919,-11.015392041289271,-15.351806623504585,-3.920384085014309,0.6557943718100554,-9.613728741043698,-7.518883410037827,-0.6197559416189917,-10.001836808277922,-13.89588351765756,-3.444466036794661,-5.215604891637781,-12.137906424571236,-3.67984599383586,-2.3102676366731276,-17.177464516396817,-20.870685126267126,-19.17309461322766,-30.986941097370615,-33.318501984044815,-18.906119393969426,-16.97459330567468,-21.781210650306214,-12.4544334345042,-8.814814157876187,-17.78333671858577,-13.549744505845558,-5.37046622891288,-14.848970440905298,-19.720315589735687,-10.467188560224173,-12.933914676389138,-19.80127269731048,-11.616944515355131,-11.313703310346115,-26.93401937474167,-30.66950992625427,-28.612489270449036,-39.60012221282331,-40.95622951464131,-25.829686201472327,-23.54267909842618,-28.497503900381304,-19.902046348962177,-17.38918496520672,-26.495868215988974,-19.53324546940683,-6.520992103263736,-12.349997767797582,-16.777567054746246,-9.110549008075033,-12.165971453082035,-16.28784383748738,-2.3981722425275933,3.5147982577432924,-9.314415946180667,-12.526422067024274,-10.05194834078591,-20.521323871189843,-22.8517130444426,-10.753853165269604,-11.833022754105205,-18.44369152920774,-9.611309279314288,-6.644806626308293,-17.716915503991363,-16.023770639745784,-8.30380923337637,-15.172809718622174,-16.13620248539825,-4.362891729932592,-6.7771286942600515,-14.946303577807194,-7.3376480102537105,-5.408000662936318,-17.270500929978837,-16.27146803895666,-10.01567704799573,-18.61907645883687,-19.669826121331297,-5.5493489510373175,-3.7667508667178806,-7.043811539631062,4.441547380247318,8.41015713492608,-2.4043903603480343,-0.366197433107772,7.35013689103703,0.37018519834744534,0.028285227432646276,13.206568244026176,12.32152112739535,4.813119868049151,11.448366108852788,11.112236946806311,-2.9273318566867497,-2.809915855749473,3.7560637962864583,-4.870171843927326,-7.811120496779166,2.7994393869144094,0.7345759803760652,-5.601453320202726,4.887093004433719,9.69865722737708,-0.5773055302675774,0.2797289783060788,5.062755183707167,-6.0542114291132645,-11.093309493335575,-2.4800894301688396,-7.014880703592787,-16.783105078775925,-10.017228479688628,-6.728558119895606,-15.38908227263734,-11.91013439824061,-5.487774316800447,-16.175483880376287,-20.459470908849354,-8.386989601414884,-6.369942812443384,-8.436189701623071,4.5132422185791485,10.212736791274233,0.7101527560280037,3.153156011253824,10.069084739302747,0.7714306346147826,-2.6313881316566556,8.025976123837646,5.165490989008441,-4.1348104645036265,1.685486252588814,1.8927369392721618,-11.658597020987461,-12.44722007917945,-7.972068383701244,-19.203317078123163,-24.03379429319982,-12.688681017904626,-11.227123155150432,-12.810014878103013,2.990289194233866,13.358329715979078,7.117262138749334,9.068008910096877,12.507103913404546,-1.0349699764460025,-7.1032004994444495,4.173779931256391,4.80032004093348,-0.6470248851378155,7.143523406643903,7.468488585886112,-5.863637026256492,-4.421106555901016,4.605857585466226,-0.8867058019033309,-0.6084369956032785,13.218409075838807,13.781824268584277,8.764046094231952,19.592300555344508,24.978644299362657,15.891307221136866,17.54144316163528,21.77073902915313,9.182919553677964,4.01788641821026,15.55771127843293,15.735381063671074,9.736119382831074,16.766573317795533,15.782956591459289,0.9473638303753527,0.44644124430666077,5.797193692170948,-4.867742542731401,-8.961617094040095,2.635318544226503,2.7191888093890886,-1.3292031202436612,11.689069186021731,19.4822229200347,12.388942553273072,15.729315036803017,20.990525288574528,8.283923141153572,2.1060990993802062,12.457818473508933,11.962755972738037,6.176688591215242,13.917213110132476,13.413882758009414,-1.6508404101759169,-3.2688189127476557,1.474164750911937,-7.062728315496919,-6.723741433415022,9.090305344770957,12.070749668379474,10.041804264917118,25.18203749674144,37.510016714544946,39.97548393780445,58.7787495862289,84.55849991235124,95.40618623596697,113.79685904415501,147.88832614478352,167.69936754969956,176.7153780794,192.82553703392907,193.53836054279753,173.38248715498852,163.44264151998755,158.9138877718425,139.4727007464797,125.67142385824123,124.31509357504923,108.06971579343988,84.0748884952376,72.53602750315463,51.68582989019234,14.403004377195591,-10.326633535920932,-27.90463078498611,-58.130478143744625,-79.66061577525602,-86.04767838172612,-105.03361898060128,-127.66178342865898,-131.7807274066961,-139.08702009680343,-158.02642951842518,-162.75857766629787,-161.9277532482994,-175.71199870117505,-180.99607124559407,-169.48733983855158,-168.89287311644725,-172.83847394335342,-161.67998753851916,-157.4128008573752,-167.44351831756896,-164.3123100947239,-155.49294837858645,-162.15601149633267,-163.13933844872142,-149.88875346155436,-148.10134183481935,-149.94144194688135,-134.90358143641254,-125.27057094393982,-130.29812986486382,-123.38812067301662,-110.61122601411034,-111.33563302965663,-104.08706376687554,-82.15481570086412,-73.98857938976374,-73.25669207801549,-58.433515760449055,-48.893185319168445,-51.91114760620438,-41.60191696033892,-26.423535802471662,-28.024598984414148,-25.323955010968334,-9.462416746104132,-6.400450966337157,-9.230592135598394,2.7107900983059148,9.103423650138053,2.669921166266411,10.01516218304845,22.86598410286023,19.463026767825344,20.911430635825425,35.88323089976674,38.96906280479661,38.15046519054777,53.22191693936987,61.449115158920044,54.38389431351328,59.39835617880401,69.82388931200643,64.97519334396793,66.05324622751546,80.89276773189775,82.24760751307551,76.9229705459182,85.49442696677545,86.61087941223548,73.11169517265355,73.32240605245275,80.02242804516493,71.34794976290756,68.06529286255119,78.20020052385125,75.7860450543584,69.25865923387991,79.31991102072713,83.57857099899236,73.47613421909821,75.98300892850496,83.35138307913014,73.50560629628512,66.97004759562905,72.16418325871905,63.83599188092981,51.31200760209207,56.58190312988766,58.336518487344776,48.38590406811511,53.057281728378356,63.16002142763353,55.39720658234381,50.1501873490986,57.401041535279525,53.82891513582288,48.15062084309947,59.4125628899414,63.16524436416563,49.72532364672013,48.249489633803094,55.1952895439933,49.77121222499902,49.95859064801936,60.9138628431444,55.68296652887308,44.00657167215168,49.063589659158545,49.517311125589714,35.66608649226147,32.77089792339079,33.53228672135697,19.235895513648334,13.61726987637764,25.038875238882714,25.204210643204632,20.1550831707592,30.146651296301012,33.26948945658778,21.73467715169778,23.2917923892738,30.0491730350277,20.258498986307075,16.46784501459151,27.81419655544375,26.38165918763799,18.07456673448192,23.222355166899504,20.52261392936147,2.957546903106258,-0.9476127825118714,2.180579494596685,-8.80088805643772,-12.583895541989317,-0.6614417302531042,0.5504480451759128,-2.483848189173434,9.340966642900035,13.835806889585538,2.753671857563484,3.1041709777034585,8.664876601234383,-0.5436529661380032,-3.233619075048788,8.63373522037854,8.491535768136607,3.373329792768098,12.993662863926215,14.6986870064758,0.016368981106912983,-3.4117190725804334,-1.5863296594523084,-14.475286110137803,-20.764305369655066,-12.986594289755264,-17.933417051259802,-27.082685568095016,-18.591508627998216,-14.68816232724079,-25.51160367667609,-25.811305438155898,-23.030122702403094,-36.1950886580104,-41.68805778427614,-30.876323848740977,-30.87915304121341,-34.759910045033436,-22.66224128921855,-16.65020720369108,-25.25500290027378,-22.797426997604,-17.21396879654366,-28.883575068812334,-35.47567682320749,-27.059279552706208,-28.685047213937303,-33.10314801622372,-21.271835369269148,-17.28927586948174,-31.26450574262118,-35.709348397125,-34.714275937599275,-45.67435617782404,-46.294577495857354,-30.404566522532743,-27.188018377836247,-30.759317274014915,-20.70506960861875,-17.87805831817823,-29.93003340202521,-30.29969905722683,-26.228714822675112,-37.535690219370736,-41.48133402892902,-29.751432337356924,-30.680165521655525,-38.218416312466495,-31.213442955156708,-29.815888623642927,-40.63273764288322,-36.831893352760034,-28.21445241367358,-37.95417492360093,-44.12896599668723,-36.12123221731504,-38.15319707738571,-41.644119198961135,-27.057205854613805,-18.705754008069853,-26.727178087994623,-24.67325052558455,-19.540775557974303,-31.276085437203633,-36.5753257438128,-25.822411526315065,-26.35809973756816,-32.22308772234489,-22.953235129668087,-20.349782030158,-33.02706728407611,-32.97763437278333,-26.44269189370905,-34.81027036881121,-36.33137902059294,-22.050006086903693,-19.63279937390775,-22.929674491658293,-11.558791709188775,-7.2218199265506975,-17.82870957376204,-16.15962603901116,-9.698920607880993,-19.482426198444415,-23.686304353128055,-13.374264355338859,-14.559747926804093,-20.21628535964847,-11.110901171274477,-9.572496179215648,-22.85290960244889,-22.38766109287185,-14.041237382516051,-18.701044164319356,-16.87080778375626,-2.4706507081068176,-2.4777066616335213,-8.720273551678854,-0.172343469212632,1.747411917064266,-10.560821165939096,-9.458162914221367,-1.4284772170735414,-6.525411987234696,-3.3052094662272626,14.527746207175083,17.91492620660538,13.163398863139854,20.2657760686247,17.8285308979478,0.4551884888694335,-1.8336869006459398,4.397824994099848,-2.570226154007234,-2.627005540671613,10.617363567902244,10.021641654532262,4.475711368804211,15.330218918003997,20.43037809087064,11.203151488390684,13.561469825957902,19.569325655381924,9.165838097867601,4.479821475816971,13.996521422807707,11.622883956190321,4.747013190179209,13.377749451542414,15.704461501236377,4.0889647807996825,5.799340157932039,13.616063788869157,6.92458375308553,6.665285005342759,19.613190745088456,18.594248527908046,11.667246584818917,19.986314691731838,21.802692164495603,9.067375341457403,9.555596154786189,16.571302431368434,8.963002041897868,7.464301273207088,18.958467876296535,16.050943729784446,7.707133885021795,16.44001778029118,20.008672595867793,8.510410523725245,8.991740154638098,16.058150738647416,9.484423825558586,9.047172172776875,20.80680007358536,17.563577535299984,8.66027509931514,17.57391251371888,23.040204700592273,13.942187175577159,14.29411973635543,17.62919426640833,6.290523554935217,2.995559762864253,14.503875987164175,12.610721674170705,4.383003354107503,11.316726288492392,13.045525559086183,1.755781216007891,3.9137228290811956,11.664138702520521,3.4219239321129935,-0.022868899244835768,8.853504692062998,3.7199863431971765,-5.659459939431314,3.576627400503953,9.548467412682966,1.8679391253711706,5.136972303698054,11.785686389524757,2.9201135948528707,1.881020865636251,16.777880150966382,19.73625236538789,17.25115069092457,29.184887890508005,33.095953592539615,20.59451551602528,18.575048625684865,20.091606753511318,5.769534017745352,-1.63705088356005,6.081025523971281,2.0977291476467315,-6.169523951948393,1.6459761381193143,3.466907739864113,-9.164467281312369,-9.177889908246433,-2.6777216244512476,-9.051200483659105,-6.969624445498457,9.79090758936399,12.320228986346049,7.0958126658294685,15.544390543040103,17.654576804950384,6.8225796776025405,10.408813818603369,20.12061376865255,14.014738590830351,13.569365553722346,27.015704940117427,26.416246269922013,17.778733758410574,22.025043078793292,19.218792580423933,3.1057380931224117,1.3970652883890164,5.732572528941472,-6.020436228979478,-10.794524166797624,4.08122332388857,15.169189213963968,28.683375270856665,61.574666877413314,89.91723923455697,105.02760276441494,132.0680082818102,159.77570402601236,163.65024832077466,164.6851705152327,174.00103753494915,168.89411638941004,157.92944506673058,158.2112783675123,144.82500669143712,111.79301618790913,89.6856908477202,71.8417195840145,37.27719509055508,8.01537084317221,-7.448265369383708,-34.31509109231094,-62.915853236962334,-72.65463805904704,-86.23944289926288,-111.19187030517759,-120.1673104956983,-121.68353357723126,-137.8465966658071,-147.34666788542813,-141.39237967402448,-146.01129121019605,-154.2069262657883,-147.0877191398049,-147.3564700237302,-162.43759686815025,-164.24797796232698,-158.81821530814506,-166.27752996448726,-166.2685183458059,-152.30730931283568,-151.77664601894105,-156.92415819620157,-145.27489830391477,-135.89252029126916,-136.1649712229799,-121.28617690873679,-102.02298640659595,-101.80083267634171,-99.40275367630188,-84.76455308310777,-81.82960211593917,-81.36166735406431,-62.34572720698375,-47.09740881422681,-45.91543621896689,-34.47563924332406,-20.96614898771127,-25.567362580104103,-25.42522730317477,-11.30370291238333,-10.269321982030021,-15.545381102556043,-5.713142718308048,-0.9041999651802511,-8.663314497510997,-3.0485994085557415,7.334255061269489,1.3001584045506682,0.9234233885417629,15.575536116065475,19.259434758099474,18.67445634523194,33.57638756523645,41.88688847821697,34.63740987158242,38.13965210960598,45.59302430350366,36.934931106063296,34.61207220426312,47.68544564960851,48.87705743035758,44.38049952856616,54.21190008509292,56.123651781088945,42.08795145246917,40.72769483960644,46.9545256541643,40.78115595027833,42.52417787910944,58.15712489439637,59.219228610277504,53.224548349154745,62.63496675275529,66.89408796548241,57.051508092281665,58.753130021026536,64.84483855040432,56.06000011656171,54.72684466151049,67.98467457400368,67.60934132855814,60.24717252427919,66.7704728847148,66.95161026393711,54.158231326259695,54.80849932773069,60.24251382227846,49.58975022125837,44.49230125075394,52.784679462650594,48.64309653456664,41.113988236122744,50.793871623408734,54.49776849047384,42.847354360310646,42.001745979251154,44.70249094370304,31.729618276603958,26.75726894066218,38.586738225233866,39.52854731763294,35.83535354555148,46.742594489110026,49.30771400329282,36.012748752476014,35.56431915228155,41.65661690385911,33.53988791769348,31.39550834721971,40.98489389840962,35.84433080604573,26.307536431234766,33.674744065947976,34.97696367790719,21.700370998898336,20.184948544085206,23.273707480251854,12.612402800317298,10.3567317308576,21.614601637877506,18.087848145304392,8.904559531086017,15.862907201528085,17.089069406099338,4.626845919610204,5.249527029630471,11.03831783381819,1.4466891095055212,-2.026258030894245,7.342428947120689,2.538334841311077,-6.786085212777935,2.2317772001335836,7.857411448287898,-0.23589774540596498,2.214729788229195,6.75252574287207,-6.089066234409595,-12.04552071915542,-1.5227450975341066,-1.8746613320085295,-7.265577680100523,0.9767022564991992,0.4257469650264778,-15.37083055737405,-17.417077778504904,-12.48580889897655,-21.9772054900833,-25.47147305877489,-15.674284603099967,-18.56623766823374,-25.290672906514374,-15.46062232322884,-12.338827254270285,-24.704549759563715,-24.707035172560545,-18.393850330262932,-26.228269219100174,-28.03254447291416,-18.083997593866773,-23.504144899905686,-33.93160580452567,-25.701342911343268,-20.07080180245896,-27.004910009250217,-22.55285596848657,-15.949930737348593,-27.102675989356097,-32.610180662346195,-23.48075139037465,-25.541631838643156,-30.574126025022956,-18.733771399842947,-13.042854094084605,-22.56383175799418,-21.25405049860169,-16.228440552266086,-26.56935689392815,-29.38097891307236,-16.53034085995636,-15.053641450710883,-17.925273724550202,-5.988843649770174,-2.917290476617474,-17.474482309206525,-20.97833300131121,-17.250553206121406,-24.478946633067608,-21.85822191669093,-4.829827047886765,-3.539161950406416,-11.430010800766556,-6.2665800289386056,-6.866270094425657,-19.208220699336163,-16.890310227200565,-9.125217516342799,-17.403131100967993,-19.977140103387782,-8.337742303405323,-8.042286189791561,-11.19039772118055,1.1011782676174109,5.6588700465365545,-5.282325171252278,-4.5866462380934365,-0.07868859737789213,-12.334904148472955,-18.811637919369613,-10.201769805761423,-11.930547520995676,-16.391503677628936,-5.126607896214287,-2.3415260194821674,-16.499793289983806,-19.43459721580531,-16.589879150606613,-26.54425851800792,-27.20813105547905,-12.48405944694006,-11.837753381520486,-19.574902327260983,-14.512365451900582,-15.09060516193102,-26.316547865383562,-21.599996119214893,-11.35031871333418,-19.039041439644695,-23.394263696419355,-14.565611585776772,-17.112081627570458,-22.61721396139392,-11.91560066757277,-8.779572882602722,-21.184401550589733,-20.670283575345373,-13.280799611681545,-18.980480946307992,-17.011804276703586,-1.8066144993554731,-1.6283491925736402,-8.136290280543838,1.2398213816132966,6.08405209162648,-2.481419174404788,0.27761057293214275,5.877109110800761,-5.740203216267547,-11.212003807549953,-0.9482196433761638,-2.02121228990304,-8.5700539647366,-1.1285164909985816,-0.9414180449145889,-14.084051041096515,-12.635724664530127,-4.807091229499931,-11.710047184244983,-11.96588270220362,1.685620196038717,2.8944714191770973,-0.5815975429253759,10.037531604185084,12.405166761663697,0.4894541250057012,2.335237135082974,10.14104405628228,2.8781873610781967,1.249484893226675,12.305282375019774,10.487033831942167,5.010795411862883,15.674841468974156,19.30337597133126,7.569586881285261,7.077685498347428,10.911431947822855,0.2839525483098333,-2.1301781621277622,11.140013904614964,12.70302241740183,9.128262860698342,19.117393704448386,20.20772334254953,5.595497390042247,3.509461818315229,7.721564475684207,-1.8308529999909844,-4.939500400167131,4.840860856344339,1.4565559874654923,-6.153113148504367,3.059178784338947,7.314137788354701,-2.0962730603794366,0.38256967691822963,7.452445346606785,0.3108823885161005,0.46725900622055994,13.457957284203024,11.919040481669171,4.675801400790046,12.873940631475444,14.961465499183909,2.57138967941898,1.188570007490067,3.627540596156832,-7.922238265138182,-10.283927090242372,2.7415923253484946,2.201980546162275,-4.737039340074033,3.6784511146621925,7.563623317111139,-0.9867865357743186,2.5262899079565484,9.390808820544114,0.10298251281662907,-2.745301461769336,9.109530481937648,9.354879228764476,5.04110913540924,15.698542778410667,19.631586600545834,8.711844594350413,8.7704513511096,12.79308924124514,2.247679779964507,-0.7782191548682112,9.872498251355896,6.3293633486399035,-3.7647935707485995,0.36429324979173483,-1.2984630496928393,-13.647309454999615,-9.30152040418805,2.011949967109119,-1.9804775567724544,-1.483748396589618,9.636504089029636,6.751487826243476,1.0657559735452833,13.228331981112344,19.94607170040609,12.657156118518781,17.161331778738614,25.24721243029485,16.962121165859056,13.090459072224949,19.533683526467122,10.421524960059612,-3.5866880851086984,-0.059485430074393886,-0.40793644504357807,-13.05354034408188,-11.905843547755918,-3.946942672549265,-8.240969844605988,-3.7694130610406957,13.941352203442777,14.978989225999873,6.445549451169066,11.153604407561254,10.584401916049867,-0.8815433300583955,3.7671070514352416,14.829194618255855,9.690229129601768,9.497474375809155,21.812343987934828,20.52623539678999,15.001757750812097,25.90769317437826,30.32192838072703,19.75245345975926,20.660986687525337,26.277994251619695,18.930906830298582,22.608233534864738,45.22364319788827,59.89917504697335,73.8747955634282,105.61534160565142,132.06395877657468,143.98163604960848,163.42831184590278,178.6066275264604,169.17413097176964,159.17384017425013,159.31780625441561,145.5994795484926,125.8602352587248,118.20350144770363,100.31878786639524,66.64544531992033,44.72732585251975,26.378320978521447,-7.249129435485415,-31.682652620779983,-37.612522305520194,-51.77749170471927,-68.81308826049957,-72.56413282678176,-86.37695930266152,-114.3263557407196,-125.80731416674237,-128.2533959068309,-143.6007972891017,-152.59938320392786,-149.5485113968016,-159.4531065883653,-171.3173808704519,-164.23550987700636,-161.23016147032948,-171.42255120941408,-169.78985034049418,-164.19455930604352,-172.78194279113072,-172.262680956499,-155.89559343572455,-151.52905480711598,-151.56262767309477,-135.67161440437093,-125.2955813189054,-127.96421164476247,-117.9532884260618,-104.11021425837313,-107.2045852176683,-105.23069526309453,-90.05641780533036,-87.76748007657962,-89.50947723308315,-74.08728648710833,-63.15908332454822,-65.08793825658518,-54.39492905961905,-39.15717408279019,-39.40448903799664,-33.94468132594591,-15.881399984568883,-11.486446597665289,-12.149939116921548,2.7002020224100907,10.893870175205368,3.7458903880820564,7.309214240440074,15.2094403732303,9.65982934868114,12.9239838356323,30.33268680534058,33.27612526056222,29.649437274478757,40.60801111389529,45.430830791135456,37.242583410027486,41.96564970183584,50.62541420429817,43.05125775529139,41.64664827829088,53.96333562416006,53.6522273207341,49.850439279697646,63.2947988576591,70.75918181519494,62.73011767022592,64.6139569252641,68.5588009608734,56.29303822304061,52.771703858965,66.54555895139231,68.58449405024363,63.855280615092894,71.52642579525254,70.96463652969005,57.5347463532629,59.62909832185854,67.98025228956055,60.407798076381496,58.03444583644583,68.10459988720447,64.6673350430165,56.33327505444608,62.475093431267936,61.22545403608715,46.542093174666164,45.30710266520511,49.33189082265997,39.74931258966948,39.5478146873213,54.865909240478324,56.65778193688829,51.47204224524956,59.396668478745795,60.369988544052624,49.63180775221986,53.56449751562259,60.94953322723886,49.79143464494615,43.114703277364704,50.48140661252758,46.929562130461036,40.54322890908667,49.41627597168651,49.671905355247446,34.24861775917786,31.223480662729536,33.50507413596174,21.7230482401604,18.052377052425076,29.024705135777285,27.837070850157094,23.256409483737045,34.548375736950305,38.2492883254551,26.764648093181034,26.86607936795313,30.944217474452632,20.336256912422122,17.573621357549182,28.323507919532677,24.73883176519673,15.907040703010587,22.814301994215715,23.49577461614868,10.181404467049054,7.7113336809384,6.536448836201549,-11.632893930026817,-20.98558094821037,-11.381486931365986,-9.171807817104495,-8.914450588326508,5.582724632202383,10.74804971393198,1.016271725533202,5.169645369193878,14.94826270416388,8.718693066960732,6.809174066720806,15.515052705899848,10.191055977669304,2.5284845404025624,12.82481506113567,16.676379562938912,4.922048495883988,2.9110062785311044,2.401934923912917,-14.448257831892914,-22.828436369845953,-14.265593800361088,-15.331990077085779,-18.619961164279708,-6.269693118321503,-2.532550527840564,-15.197680222877016,-16.515199746017075,-12.70483430024671,-21.98844244347232,-22.474389138570945,-9.390005555599405,-11.110333662382098,-19.13634645960014,-12.827931996887903,-13.631177886674738,-28.242124510024553,-30.339204539558942,-28.52733734033115,-41.95760465788493,-47.262318637381796,-36.664580139218124,-36.643285886436416,-39.37764230827368,-25.886891577947807,-19.37243821786071,-27.921008147550474,-24.697393456124622,-17.3367662733936,-25.881242155165705,-28.339750761843188,-17.70629662232427,-20.342718655178473,-26.62755617752028,-16.375726288829945,-13.082728186955075,-24.349192861429277,-23.120908468639207,-17.57299114010027,-26.919788207337763,-28.549728671061292,-16.529306862964063,-17.613567937110382,-21.81833021448626,-9.184546957722914,-3.293672655327647,-12.64079320119566,-12.187505303430573,-10.078120249514605,-23.389278051998797,-27.852848363217905,-15.976286047143164,-14.058894953282854,-14.952435360130892,-1.8052053382288422,1.549776323041597,-11.906085995913523,-14.751298864875963,-12.877028027908235,-23.66770017066441,-25.261118482265342,-12.886410672022892,-14.58965286993501,-21.224146305381982,-11.722377640165137,-8.337401310942214,-18.708497302361515,-17.161697545614924,-12.980796667509946,-24.80533057146665,-27.84216850717584,-14.34114032187544,-12.077140712520901,-13.858938132888586,-1.1312297838359742,3.353191304350177,-6.4441450995859295,-3.5509895194089447,2.1519178016423486,-10.618078940045049,-19.85069311580963,-17.62909558232023,-27.500078842847188,-37.07659507371973,-26.448281645733353,-20.85000205536369,-29.359297579338733,-27.1702539888838,-23.358207247886575,-34.6962516533413,-35.85426878945698,-20.195558303470804,-15.684610273172364,-15.068971263170045,-0.46624753071494673,5.414801618771469,-2.5079182811492955,3.539342351114627,14.0497642437967,7.633661152188308,5.231649162973291,13.31154848095771,7.043419674461933,-2.8607746113638575,3.345681819724506,2.7369018759274635,-11.624525221683372,-13.500125119029212,-11.350626935969114,-23.641712009894725,-27.277043194654034,-15.523207189900651,-14.481682019851071,-15.900349193178092,-2.9233439019813496,0.8594783044703884,-8.993383263982198,-4.490456706917186,4.919928359329194,-1.0098091074908364,-1.058549771005219,10.232494831990948,7.633172912399567,1.7550847945900268,11.111265929503055,12.109454353370317,-0.3844772304473416,1.2037644913717735,7.303612451736725,-2.1488553484449833,-5.615035366534235,2.8779716839196663,-1.208863058702796,-6.8791230858315675,4.855707264794645,10.313269032197905,2.511930886618772,7.057295471702755,13.783578866173205,3.0241598028163517,-2.4916482355243,4.095483255889292,-1.7634496474663282,-8.574042363703327,2.945406824490761,7.918208218936279,-1.7588986345417599,-0.5823161734913915,2.183295254965908,-10.49793593190236,-13.431506165681792,-1.2154803882308878,-2.641880077987177,-9.160708302811534,-1.390529960662728,-0.5565061984792049,-9.614615483754859,-0.8767987084480229,14.034826054315785,12.836506703542314,15.647870925152525,27.115156425043487,22.30385822818048,14.011775296547011,23.92711363321241,29.930180400912576,24.227047797058468,29.522351337003194,33.260794439394466,16.571526474979237,5.3103663137436,8.811324498800927,3.145431648913032,-1.9348869985322181,10.066104110733944,13.729552943958504,2.4627747396980832,3.115758725672954,6.9435311553244885,-3.616790357945874,-4.128176578775166,11.499698654627673,15.757487788071948,16.25432038544409,29.285158001711753,31.20320600373885,18.185173012901366,18.20473268988107,21.897890973179408,10.121425055101469,4.283698768089902,8.982812218585492,-0.37586221357222716,-11.363536536342668,-4.513897007722766,-3.43481900739574,-14.111090149327689,-10.871213259614564,-4.360179651130741,-12.688325077783887,-11.87303208436679,3.248415263857373,5.785749878949373,5.1425234403117575,19.040892548541343,23.992423559321665,14.72608146611074,18.102050084985127,25.070210762115853,16.93811524497942,15.373515403390055,24.600727615226877,18.776149675651546,9.400439536275368,15.621126079124437,14.354031637274964,0.49323699977287205,0.06913729020879522,3.5608324232308153,-6.112675923895451,-6.588620786454348,4.956941902405639,1.9244185973888994,-4.052129356160296,6.691186181616967,11.300987848850026,3.24033652240312,6.646161051593637,10.705029020212748,-1.6539761254184793,-5.384431297509593,5.201101909597785,3.420610229473067,-0.686992686906827,11.066674345738262,15.427168513220328,7.625634359160383,13.95219006759882,24.799626333628673,23.33042154924168,33.887095438828304,62.38603789986781,82.82822675084839,103.98973252791356,140.64800174906958,165.17534613108415,169.41829039092536,177.5615790687605,179.22368878715167,160.1870961000498,148.30872422346337,149.89094898284398,138.70343084994244,124.21024972344937,121.97603649568363,107.00876090033366,75.53883476182666,55.47393718406459,36.9041767648865,2.445829298025629,-23.273534719256805,-34.78213667769506,-57.299476504475265,-79.54120325655697,-84.2374195941083,-95.77286802813953,-119.2472848322623,-129.0788859882619,-136.34185829941978,-158.20563253577004,-169.82695635945453,-166.0433821492321,-172.17956506826602,-177.32407906782785,-166.14842108136034,-164.4180616741111,-175.67579167606846,-171.79494181266205,-162.99497325090275,-168.04767299618686,-164.93376872566031,-150.77410930187102,-151.6938777397592,-154.1447845710063,-137.97280927481552,-127.57211098778365,-129.26018294778362,-118.0110714953714,-105.34243640487006,-108.75474788199266,-103.35463341646056,-84.31815695757116,-78.75514116764792,-76.80273708932533,-61.220920658952245,-55.670991829079625,-63.43681420898085,-56.296556413960026,-43.695775166203944,-44.20361312828286,-36.60075192949367,-18.50017324449998,-16.5010579733748,-18.110398128285528,-2.8492728984468876,6.452440822638082,3.791379851418089,13.572290485925272,23.82209027276663,16.34600675997702,15.701092914286452,27.723341600517045,27.04171570349858,25.137048337981465,40.335490021324404,48.67399979447383,44.80774345808653,53.6885569495633,62.87716025907976,53.637884108891924,50.12499795248263,57.95028823707483,52.50936019319923,46.08075611192047,56.323365841767114,59.137205165352796,50.99868792588032,58.26717506294692,68.37492224781685,61.90498160987512,61.632669238927875,71.54243918918662,66.65584971973873,60.26875924781396,71.420016829482,75.95351421157102,68.49425592405828,73.83300688458883,78.99433028052388,65.43401760872732,58.76557135331759,65.64911270085881,60.983520406092566,56.08752159875645,67.62080898533956,69.82005733445499,57.701614334380906,57.73585390942119,59.11183759601881,45.36163211857734,42.108118811533174,53.80527622697532,53.22112532463533,50.54288338622277,62.44104504714518,64.45924864276662,52.69893066772711,53.291375659518344,54.82216721257476,40.99816418650939,37.73941028396391,49.07778591998099,46.70289555454703,39.935690192734015,45.98233276381596,42.743890583519374,28.966927548469286,31.2048587352264,35.64565060790947,22.816667491990128,17.004658939580565,23.63562240556282,18.551216207706872,14.209044503243774,26.567129966576488,29.299348756893508,17.788433348777644,19.0039336869474,22.55224329392205,11.554921032059577,9.707013532060117,19.239985571667,13.093254158187536,4.22934757317987,11.84916845949448,12.200955176375423,1.2071106696037424,4.821728663089731,10.60486577026112,-0.05639890046892759,-3.543506713887626,3.4153389705838846,-5.01555171321429,-14.390623936318208,-4.84671698754432,-1.2842382292732466,-9.59943417102252,-5.289216926058655,-0.7431646870913564,-12.882647113480973,-16.875315452210824,-8.806431203877516,-14.576832164972895,-22.38617466216705,-14.732669737419489,-15.191950203245575,-27.469972160766385,-25.896579173626886,-20.990323600075573,-28.418629731364828,-25.119035212964235,-10.27754934756277,-11.409524725412542,-16.39309020479215,-6.644798836390567,-4.785542699903568,-13.964561715746667,-9.515047597927921,-4.796358979826942,-16.647701654889797,-19.617544129497553,-10.038114529953287,-14.001814549828172,-19.5075693509421,-10.243918705223765,-11.536041051250113,-26.766691252040246,-28.783270472210354,-27.670601042317593,-38.275933220332675,-35.74447269293791,-19.36307412339278,-18.08633849935695,-20.63153894757127,-10.19696292970783,-10.753167276506243,-23.28829440497086,-19.96697694632453,-13.32562007841982,-21.587313998515775,-22.002564563014136,-13.204122777072346,-20.52929444693735,-28.106264977874556,-15.856426788971362,-7.935246780373655,-9.754227854785565,0.7442965752611475,7.55576265974448,-7.313258497801999,-17.26794824870321,-15.62449326850365,-25.039101272296428,-31.700124796845905,-20.151127595461208,-17.492157534358235,-27.978456280605794,-25.214432395652963,-20.740829697837114,-30.93767050994578,-31.06223802374376,-18.263695922375113,-18.712356171158934,-19.787368527292955,-5.197482543843762,-0.8142044508629783,-10.084743210780381,-6.480845947732478,-1.8410594270770664,-13.038067213764993,-16.60995722188001,-11.029658868954076,-21.66983251875214,-33.16098055421752,-26.097295557086778,-24.166358220893876,-31.68346355284418,-25.769195189846698,-20.478738081153644,-31.64348283424632,-33.54139970791149,-22.74581454640903,-25.03040634321263,-28.117746722035715,-14.822386067391179,-8.552225344683983,-12.43705056306851,-2.9739521801614845,4.982833568226815,-5.431289128993865,-8.64130395838544,-1.2120660816502378,-8.241445108756313,-16.884505910340152,-11.171952089261424,-14.666006718161846,-27.75282293164459,-24.177997774799266,-17.672119072368616,-25.765252837765935,-25.19335408771546,-14.391123536978284,-18.47015316696283,-22.952056735854615,-10.046477270754076,-4.632991173677153,-11.410277281397644,-6.5464255276973065,-2.2443823959359186,-12.519055165145586,-10.779321687922382,5.101052282355714,6.519809680794024,3.5732469684568366,12.92816470964301,12.463534156522623,1.3622986345961774,4.832102536946611,8.75910012776662,-3.8173315082448136,-8.10345458696058,-1.1183190514464836,-7.826873206587549,-14.33231438099582,-3.0979395454649987,1.6887173039443808,-3.319977240369108,5.283187835719969,11.992465193199228,-0.32692209692392815,-5.326121871471604,1.7826451045474814,-2.8334528107577244,-5.56946854151963,8.773924252485294,14.102956452448579,7.545665057499537,14.046471212685313,19.817538699805475,8.814355501462304,6.163988671775559,14.341442919130106,8.871136021658563,3.8606087799168187,14.563178315832067,15.134899508067146,4.049738572187262,7.564750918462102,12.294361393435947,2.338296046223933,2.114725228847753,12.320195523161997,7.498355729407663,2.254136505671217,13.232795583905657,16.1335085167509,9.596652203912635,18.535317833500155,27.845298555310453,19.934790263593847,19.069661478223995,28.08707855416976,23.434440830195292,19.579033923818066,31.094278775068886,30.61311787444086,15.405572477745444,12.40261715182334,10.72037634332302,-3.1280215442141213,-3.871798274542262,8.430417425237495,6.78007031634258,3.891042350177401,14.357320932740553,13.397498119766649,1.6135534288714024,6.303807247646677,13.895385114412203,7.828601008557348,11.87322995249679,26.35558410415179,25.64529511979157,23.76055597989768,35.444887819119984,34.4709578943532,19.86349939713685,18.398853613494342,17.200430876969286,1.4361179472615628,-3.5791100405832283,3.439709316031575,-2.644152057188589,-8.211095765170073,1.6004994639941366,2.225422957809221,-6.486760017782286,0.7961605217468453,8.909723046222421,0.8746399771825866,0.4752571978076636,9.258712537467531,4.697830395651573,3.2368775725202124,19.592904950374564,26.12886563540908,19.221059298640192,22.063391581533708,20.255127613083904,1.4649570501531066,-5.315551605527128,2.525177583897931,-0.35345280786278277,-1.3629150006317452,11.481364976861519,11.091745007623523,-2.3870536468840475,-1.6694406022185264,0.3093532303156945,-11.160469323924037,-11.427017970725537,-1.1545977593465917,-6.02915457762282,-10.258159115658561,2.2682451586824177,6.206000606559898,0.4422762489851766,8.498067384640661,13.784768902336033,1.2428207144241412,-2.0216547612305673,6.4390005356796625,2.852740117587751,1.9749605582946115,17.01261829563375,20.577287635763682,2.8201398105635356,-28.601993706826413,-77.0569690896782,-118.5779381965294,-122.81461958480513,-101.21860303472344,-73.25302457814566,-54.53645336938856,-65.01697931006592,-88.53145867605298,-94.12542214558238,-97.62894553447026,-117.16615645906556,-131.554189505213,-139.13930111856806,-156.2501582236006,-162.48446010696364,-147.3938047654014,-142.30597738200865,-148.56648827499507,-141.3740105890846,-136.67485257655466,-148.21830929931855,-147.45884900155943,-132.147349248665,-128.71146646302614,-125.14214418043784,-107.48591105258947,-99.41464010614561,-99.85508779511514,-85.37754486944532,-73.44739830847223,-78.72832336607664,-73.73727059308665,-57.239359704807825,-54.002502119946584,-48.22884696642625,-25.261287324814404,-12.054655722995392,-10.184068370666692,3.9603219339206257,14.63490204864736,9.139321506569091,15.817507573498782,34.77974292024186,39.19465913903921,43.32233518424509,61.83528830689996,70.18279768695538,69.90379026941707,85.03902277879651,97.41558534737848,91.41163176553883,93.60346224598693,105.18095877047584,103.05824574129173,103.93342547116437,121.37270487250822,128.08961636695588,123.60316620595583,132.54141102372574,139.72392963591264,131.4408515275195,133.4615747247653,145.10922828055317,141.49634522080868,138.59717645147347,151.3271702374046,154.48518966478247,148.35809017887152,156.59834502639237,162.2609858299174,150.7086337778041,148.4399684063755,156.70130165775836,152.46167790038317,151.07180817809183,164.156115803811,164.2955605183468,152.51872114584125,154.64693109158344,155.82900426493885,141.88778957877,137.28870956112567,140.78966482500047,129.16841794802778,120.20424955983182,128.61577299934032,128.0693158290442,117.50891538199599,119.20895711314529,116.37948327483187,96.6936944047123,89.10772885408721,94.85093281294701,88.69405131809285,84.44321625487572,93.85123184500341,90.77378322348194,78.20583835358653,82.531184386718,87.00756372945395,75.56026025894562,72.08989704283978,74.79063091819562,59.880673543934684,45.96196399652434,49.5461499203073,45.64947406889823,33.7547718667432,35.666828375840176,33.32074947741771,13.267803873210244,3.731983293796724,6.440638775042096,-1.8326809301895315,-6.024407009346836,5.492279984911224,5.52912695939952,-5.520005804717488,-3.5272491914907356,-3.5481391244137375,-16.39617186956384,-14.10706796220273,1.1005455784193279,1.3115359796788193,-0.5119514501073431,8.522318141888585,4.929175536712479,-7.084158889906779,-2.8251855590670787,-1.5764710642032755,-19.853038089637295,-30.98361995390864,-32.8292523278342,-46.98504790615733,-55.655886235322406,-45.55185759840738,-44.661059278279396,-53.75944649331355,-49.454524552747436,-48.26878042504006,-62.74272016425881,-65.55913722056576,-57.9624306404096,-64.8420775699435,-69.38744126812526,-57.25971354871874,-53.652819146437,-57.65696720405474,-47.739610681047225,-43.16552507859612,-57.29117446555041,-61.580577174465745,-54.35956587645157,-58.561967574556995,-59.65447648369576,-48.00740499634921,-51.40557057164356,-67.13644236512393,-68.23736224628198,-68.86432113734158,-81.94842739070097,-83.31553851561128,-76.2315686735239,-84.57063700971564,-90.56522931997614,-80.88239417941679,-81.36734404064273,-89.74494352282592,-82.46877695632058,-77.23401987443886,-87.08007626045887,-86.49872690683468,-77.97282917970216,-84.41081058418294,-87.84219486847353,-75.521699525732,-73.54507453145641,-80.02122782074437,-71.68820411088899,-66.16511454812226,-76.5296284849185,-76.70172158447527,-68.90750506389433,-77.0356842675309,-82.98456556648813,-72.91593349932654,-72.62753586359683,-79.98069298029057,-72.02493724922297,-67.15446073411492,-77.46207261469728,-75.2916832850912,-53.644446239417235,-11.978340502615124,76.73169931260882,195.72510322663032,277.53812757750944,294.32644872692987,265.035659354234,209.50931682292497,161.7334312099443,154.56939934835057,160.23922195611644,137.49323887794628,107.77042017469583,96.01998314117864,83.31147793279514,68.30831837736824,64.50095468748547,50.817975042517254,21.159941053196718,7.510381928641568,5.838664813406767,-11.336442897503343,-25.903003263603168,-22.171567125944215,-26.327100686426096,-38.96136091568718,-38.671008178004826,-42.55947844609327,-60.904191436898785,-66.61008858915613,-63.96964204275799,-77.66995057866613,-88.49549168296362,-82.33868453841403,-85.28306298099334,-95.38016945301803,-90.36970338684353,-89.51548411034172,-105.64321897081523,-111.79069089701015,-109.87041241058988,-122.31181429353326,-129.64015562928768,-118.70039565149884,-116.15588748146183,-120.68995891380311,-111.50868440820634,-108.08340967936235,-121.697924599606,-124.77085798064945,-119.27879371800302,-127.23214308007536,-130.0324301637774,-116.54422109624083,-114.31716654922154,-121.21563657455407,-114.22936115235098,-110.78569355303833,-121.93526840301533,-121.08407097549093,-111.61876370663205,-116.67117066723415,-117.62007219704107,-102.87602524082827,-99.85744324739265,-105.9754850152298,-97.35829809569282,-91.28971832102172,-99.81699018821124,-97.65782779123646,-89.07520465644373,-96.98839658590073,-101.0044187131289,-87.2201262622615,-82.13893093644293,-84.44567888819331,-72.56360047894859,-64.7799355441473,-71.91171486626236,-66.98198515963472,-54.09256762180449,-57.58788480855532,-58.98265805938585,-45.577366604797106,-42.9456788388041,-47.355276176821825,-36.71692290394435,-31.028568641400184,-42.115024842196874,-42.331411784751815,-33.814752690062335,-38.921801581168694,-39.54750265841654,-25.342194021289878,-23.733214714774547,-31.132974884657514,-23.24581349921168,-17.121319818582897,-24.301566357581386,-19.67294903046689,-8.031489525515068,-12.34601323977251,-12.950113485631512,2.279902495914013,6.6517654565157525,3.563350317365737,15.986450220694513,25.201744119571124,19.379189447585638,24.490195884594236,36.26109339080596,31.704329925446473,30.473439392844252,44.465394407489775,46.22076240061265,38.62701605146176,44.86130044787818,46.80235903025091,33.54811683549756,31.881384638559,38.3053345770079,30.785880182825906,28.694401628108707,42.69619646926821,45.36132013096585,39.83505985158278,48.221768213554185,52.017787191274685,41.248339145931645,42.9068632974608,52.91146203463588,48.85455626089278,49.95484800879743,66.79032346281863,71.6516309440899,67.34806224130665,75.85266397426903,78.30809578528677,64.97194206100008,64.33367168261246,73.05779983205869,67.89064766275096,67.09093253294316,81.10405755882091,83.14452967775054,76.85231670232288,83.75721357959803,84.20688690427652,67.70026878233452,62.09844754977646,65.43851656000632,57.30442573938579,57.27905085313749,75.2638867806731,82.79952475757995,81.0507576580228,90.07059588112165,91.08300605222693,75.4209609558898,71.77990080902302,77.65631030386403,70.97935658496054,69.36306700762479,82.36193218505316,83.79224274205855,77.75789825279628,85.21368179994911,86.2983764087235,71.40994550987222,68.90026750761724,75.36779832379146,68.13752018877013,64.87953190242642,74.21022946903837,70.2881939304385,61.167120228177495,70.3554091989964,75.493066367143,63.0970479536726,59.70374406140179,62.57689960548201,51.97267763450837,48.93083395861481,62.78175766664717,65.16733617096617,61.926738910997074,77.60898662003257,92.69103375202215,95.33975041719921,110.62196001079695,132.20374354140458,137.98570185786306,148.41352065538962,172.49906077552149,181.25458797205278,177.95019534453306,183.42565152441412,177.3873047512774,150.51338220152005,131.72727504259046,118.35580962287571,89.55027239543465,65.50969435232267,55.9417347547756,33.66226366915065,5.155215330859808,-5.237175309146315,-16.865781304455453,-41.016307632046455,-52.445870476039204,-56.92711176100576,-75.35596005076928,-85.89468815712185,-77.82640165548656,-78.56440931284926,-84.25814305917092,-74.84363858318287,-72.06501553731307,-86.59290472508283,-91.18600060105214,-89.2640024102287,-100.45439589019917,-104.15447277011073,-91.60433680711265,-90.94317393189854,-97.80440720308697,-89.58552719592791,-84.69953563528257,-93.13178700467604,-89.38230388059955,-79.23432396818505,-84.5060324649207,-84.79716390646651,-69.74561579396465,-66.23084948160502,-69.77124102504632,-59.00467708658019,-53.528353506101595,-62.54442407731095,-59.224005011050004,-49.1978500682157,-54.395642676831486,-54.458976430420655,-39.295158915961174,-35.52703385595225,-37.843105469076725,-25.25084671510434,-19.309448635279107,-29.416079107828885,-26.67672699482742,-15.690042355499035,-18.29902278260037,-14.92559113227585,1.8884492178125152,4.341221217230539,-0.4846619146960842,9.936108731319171,14.573963324070718,3.4339246322459704,3.2981412221700954,8.522139181841291,-1.9361736740756141,-6.866068739382193,3.7699630027749684,3.878826656302162,-0.5182708022460598,10.98711413231262,16.302674256650516,5.322404592635461,5.6477288223893405,13.33059084714213,7.810465549281055,8.163997698597287,21.85172653576125,22.15976664404913,16.24956926140897,26.54708377251711,32.29867815078887,22.215740988793563,21.08013346856459,23.1664515907761,9.247829229371508,2.542842350975476,13.525034397256013,14.358045640858926,8.850496273689,17.0300549298422,18.523377397464962,5.488650328905241,6.0714362052069974,14.075483983828,6.496055740568794,2.9443734479266768,13.389473751833961,12.8988838867943,8.56529040486318,20.610207978901883,26.18971315942094,14.983714556437693,13.926806030599735,17.831113817817947,6.655107402021836,1.6544915449357527,11.272317430723408,8.556010111824444,0.2945833285457353,7.682906806674902,9.910908426212137,-1.4848135449148048,-0.00516662367885834,6.981418539482293,-1.9588132599311914,-5.184285544989155,6.657694334423136,6.659412861523403,0.7425903643805403,9.45846054547001,12.048379478139019,0.17766436153192,0.7557077470858129,7.094320992986752,-2.5603907879896024,-7.520957855444253,1.3437224878890337,-2.5131521070404816,-12.436189936072054,-7.177185948461606,-7.268438579874259,-20.46927061252065,-18.923811505605496,-8.631411787340609,-11.460556280662342,-9.086551926803999,4.301516170407992,1.661111705610809,-8.11526333936611,-1.4522852390060703,1.770222595152338,-8.13406513871427,-6.351514294462913,-0.3188777378543328,-10.243904924303632,-13.82438955352265,-2.0947620079331446,-1.9043503233787449,-6.6905882622471236,3.3676978552098493,5.673544924468048,-8.621322056288435,-11.56599062145214,-7.702777986316302,-16.06672038264333,-16.339447718999306,-3.413532469238347,-6.283773043137172,-17.05324639230773,-11.975122931574163,-10.101233980218826,-20.02510893455932,-17.285448451062,-11.032368660066721,-21.914916088184512,-26.878023146066177,-16.36737858379906,-16.646692649551916,-20.861873681127758,-9.531327719381338,-5.343226755675726,-17.12602946978572,-18.279896936032756,-14.73649747314914,-24.797815620594935,-26.60128814787289,-13.823016236625126,-14.369255509332849,-20.92964911746685,-12.493521202645656,-9.776049648414947,-20.3357616827823,-17.881355375956066,-10.205743523238567,-17.94286604895846,-19.530291245319884,-6.739649828388315,-6.5600813487949825,-12.169040148604859,-2.6789535431469265,0.42904611748171784,-11.4598009386764,-11.130767662444352,-5.029324725743083,-13.857558689361351,-16.907506976301743,-6.956626082460176,-10.293864992218822,-17.85581443613995,-8.2431813340206,-3.4985228090528793,-12.42361181852649,-9.843044091530306,-4.66838650965681,-16.404866828297028,-20.609030568981197,-7.831498345925741,-5.718348824446142,-8.848294361006351,1.4237418602942444,2.7056505127883543,-11.531486542561769,-11.917214143221837,-5.1250747149662175,-13.28735127131789,-16.122894461249466,-5.496041562087628,-7.484722218177094,-13.955641171178963,-3.9119723931076895,0.8130675882722128,-8.259681682615945,-5.526270143931129,0.09488682136741611,-11.40963207669429,-16.228474765688535,-4.978664158502543,-4.2033107381835855,-8.085379113254184,0.8075208913810146,0.32043011130437415,-14.429909029146629,-14.197687783115702,-6.161555585926683,-11.725656802337122,-11.415551624698486,0.7350131296538844,-1.212489879286688,-7.589162680174167,2.640946677108385,7.415329952056033,-1.431784000491188,1.6873009213983576,8.291157548185257,-1.0616242816373553,-3.6248268413818607,7.7669847476066725,6.097630741930804,-0.3281858407547644,8.835667752064811,11.825542570581032,1.0852035825496307,2.089633226204518,6.023486278423984,-6.236388489112883,-10.974620919800465,0.28066509996724154,0.9398971771340303,-1.9626099665171213,9.859402545078794,13.330323047740748,1.8373098260791716,2.9513234896015113,8.532659203344766,-1.252985660653815,-4.391522210479131,5.435305134127985,1.8233120409041526,-5.634828294814117,3.2849331626862908,6.26279269499924,-3.800026332019497,-1.2650687733677195,4.29246446918733,-6.585093491635416,-10.328706419771025,1.0195253887354596,1.3359620304756519,-1.1618668106332808,11.980874808890832,17.109535680341693,7.177890447668599,9.43935760545693,15.464996273380784,5.259072601195868,1.1970701521708718,10.72974531628215,8.316188418322424,3.102225896209049,13.842816923741097,16.34970700679478,2.665660356477423,0.29196044699991,3.173085838651972,-6.535524003036291,-7.342177477287536,4.8049102722385575,1.0689196522426427,-10.257426163127429,-7.627087723929811,-10.009279431829922,-21.755078809077073,-16.01600633053321,-2.3697336618016855,-2.6379082333927055,2.066565582448238,15.905631986010393,12.697578067523704,3.674970143859379,10.820505821924312,12.927232070042285,2.862408079202368,5.251137021391848,10.104699803076612,-0.9265561366870374,-3.7831963211876083,8.235789519435357,8.410077912634671,5.406336017606722,17.75110436944718,22.04645245323595,10.861098032445511,9.61857456873183,10.112136535893383,-3.9430883290235776,-7.640727977549746,5.496451403826756,7.964912938752485,6.248513345543374,16.786350134479132,17.86524047970446,6.2085799480524395,8.781360182837185,15.478688122672262,6.625177304217896,3.6163791299031587,11.681638423242559,5.97643947383271,-1.920545476066522,7.404403068263723,9.917667109162789,-1.841785277409091,-2.4983402816001883,-1.472958503108408,-15.954405876480799,-20.267844930296736,-7.247942672175718,-5.117960164732658,-6.907178473956979,5.41681358958674,9.223526804669511,-0.3451499763703181,4.194215333433709,12.655822402413195,4.43199087416397,1.6975192760157487,11.050670681384016,7.603548133965219,1.7567544990127537,12.570744843229239,17.20103081061309,8.68333788455394,11.460684795303077,15.104643764145093,1.677135136248328,-3.528885125517072,7.436783700789657,8.300059032446143,6.62342555496936,18.35448395782911,19.342036066249868,5.432802880779617,4.617792323045901,7.010039610670246,-6.343781803147025,-11.913180067185053,-3.063504301049837,-4.5052815779624495,-6.085607803015019,8.807915439105207,14.60158537314121,4.647544586784131,5.847796462427777,9.822629201212019,-0.9241018354784529,-3.1673804735408284,8.297844156673198,7.337260568913074,4.497370033876706,18.443822359132255,25.24424596481184,18.774577896532023,25.476283930536688,36.69638374612514,36.89057311768014,52.10770306101204,87.4256530345461,113.08866189879208,134.65241558723957,166.2357007571324,181.8169799119546,175.82253223856685,175.0546622285007,169.99140650854952,144.79186212925364,126.73596152913291,123.50629882958192,108.72541686695396,90.48515034997479,84.03860129906553,64.95032806667682,30.434178546257648,9.455390199041126,-7.408006756277491,-38.20185357774691,-59.777915519889206,-68.24307442868424,-90.09093640103391,-113.10731121630673,-116.94289418640214,-124.11557396899406,-140.12717463927584,-140.9209165083916,-139.7662320885361,-155.85930307735904,-164.0445470550644,-156.87172353229693,-159.22579867736653,-161.41879683816828,-147.63671019778303,-143.1028024056851,-153.05744156896807,-150.46800936797052,-144.36338384599864,-151.6333351113987,-148.71871928284162,-132.4300276864285,-130.60011481220732,-132.57374934930345,-119.57606488771879,-114.04310852393078,-119.10098770525289,-108.7511913628723,-96.40508809305919,-101.88072236084291,-100.59436726984589,-85.84456670743879,-81.95656601975742,-77.57157999533389,-56.58481219331309,-45.08946169148963,-48.523451857312196,-40.23782183281941,-30.07202971215199,-34.79316541319088,-30.136965337064655,-11.934715421559032,-6.916869543840254,-4.921057207965094,10.721125846886805,16.25026803447132,8.58037396795972,14.762529392710867,24.04187339248896,18.654354050050124,21.48249334439257,35.503480517188315,34.23717430321925,29.833605798183324,41.8197458322212,47.912517911064306,43.8502171077747,53.32403057482202,61.59863130500449,49.81972958166915,44.40639660774363,53.30448620520414,52.558344336172524,52.25491438982071,65.44972553523412,64.57243907050936,47.168947034125395,44.30455487349663,48.250010162201775,41.71570570855166,45.66110376940227,60.14033504271797,57.891043976557285,51.97808561431173,61.55305365802843,63.87036153904816,55.888436943924944,63.22287540424293,72.5330892476732,63.95552748033918,59.86555707459539,64.82541203447363,56.446805822389535,50.14597060912573,62.9672070428195,67.15002915631038,56.53031227912968,56.852170712391356,57.192578394803725,42.623758539644705,38.90021765221245,48.42011579817915,44.04449134093127,37.80037699677558,47.07915141791365,47.968380590103685,36.915476166722854,39.07201061568343,41.947334232852,28.673613751080655,24.131077301814464,32.18342186179746,26.997735159764048,20.390927444984186,29.31696436210889,30.37092096790055,21.073873362801162,26.375314203968124,32.442914350112,21.681636055458995,18.617832833585688,26.709624827487424,20.784364977997228,14.260359192862463,24.84739631509105,28.16073983244452,20.18261175703527,25.234779049746447,29.549009220062228,16.150873505536943,10.940090845788545,18.122589461022535,12.360041436464908,7.204183285413962,20.115329786967003,25.701723438693012,19.144088389168004,24.061537144748243,26.736440229278738,11.694236064548999,6.445570994070731,15.681861089855138,12.698208284724412,8.340764086870177,18.48195040556806,18.8591584166302,7.776972601104881,11.512140989597661,16.265199443339256,3.7907543773975174,-1.7416445989016487,3.8200647289308667,-2.7838228498313,-7.412271274195611,5.509924227910615,9.109536277942007,-1.1057789507941633,0.45774995280403186,2.627322709249398,-9.473876417433713,-11.000296804936525,-0.4553811534116372,-4.686478254776022,-10.781573020139897,-1.1104003435592666,0.5039188861764354,-9.187177689348065,-6.093780338235801,-4.070877448863748,-19.20005773581798,-25.335804615143587,-18.42386909516575,-23.599680928402513,-28.371505727058274,-16.851955920191966,-13.604780767640992,-21.030866036010767,-14.532536632573482,-8.626808660122611,-20.381668950440513,-24.83358371123647,-18.410891581880044,-24.422058683033367,-28.21827194960808,-14.649477556633517,-10.621425457190893,-19.634295007495577,-17.072712235030608,-16.500405509444224,-32.371768580011,-37.571827658074795,-29.443158293861167,-33.695716847359456,-37.17822864562781,-25.53291063246732,-25.26338023569,-37.253507184709385,-33.672258533823296,-26.940751361950362,-33.906445651199405,-31.520232353467236,-19.015591105380253,-21.69466338998696,-25.04532758802042,-12.350476678931827,-9.376515195166254,-19.617682581047852,-17.857379038526602,-16.175268000985348,-28.360461234264157,-28.33319941507488,-15.450377187284298,-17.593604694629025,-22.785600901672733,-14.993606082422467,-17.070412937501914,-28.12436354357476,-22.356778786689738,-15.539876578927148,-25.134116978415257,-26.17015389177006,-16.340610037643632,-20.363289736391202,-24.577917046151338,-13.914174867142926,-13.03526864069014,-21.84547878959065,-14.042426152001088,-4.937206568921834,-12.610429895601827,-13.330696447724712,-5.677271573041065,-13.203875667566681,-19.301374477123474,-7.800035798185998,-5.235535520724612,-14.170871637843591,-10.085936414383628,-7.736563106579473,-22.275800674854484,-27.111257449113282,-19.95556682814547,-25.60025116416696,-29.373326530951495,-15.933895605220073,-11.475602141149482,-18.144707960567704,-11.37109983133696,-6.053528830903829,-17.436542006592923,-18.895091561338344,-7.650707253663505,-7.974364234051441,-6.861536148336262,7.603008174460768,7.817848969545706,-7.087752939953363,-9.888655639329894,-11.183469848119644,-22.81494643751557,-19.48662250155165,-3.2153673848374735,-2.5459547729769296,-5.2561088513120895,4.202328085477605,3.393462344958117,-6.2731371509375595,-0.05582657750227771,5.510881461017412,-6.4292811613697705,-10.299409736058847,-3.322811530695924,-8.920060343260246,-12.252841121657301,1.1962591096427788,5.4735786726251225,-0.7746134458374425,6.493942794403019,11.650853618544508,0.09304900454152332,-1.173738785643779,9.375910431366101,6.3192806639255625,3.130623687544686,13.253673620487291,11.593974332307761,-0.04905028306319803,4.824927716161666,10.356442285164984,-0.8025858126246579,-4.278709050948973,2.5744617272114314,-1.8457797732567904,-1.6284188862399562,16.09949710548796,22.465292164717766,14.256719922514854,16.692418766438504,17.745015768765793,4.716509326742546,3.5454305373915505,14.585646864950554,12.206417101670432,10.073682735885948,21.864055844131958,22.16816577867201,12.27002214787844,18.48818614688136,25.117956461206504,15.237150036540182,12.496018485095746,17.26202739564634,7.2250678756974995,0.4177432491084345,12.159938823553867,15.590196018977935,8.701681558296404,14.573481323384847,16.954788120249976,1.8426717782313702,-2.633757044873956,6.490535269764585,5.306123680657204,7.187788972886865,22.832222378034082,23.874988725744807,10.97862134078744,11.861443829681505,13.758291938708824,2.537468796291119,2.1520869563786005,11.061272027529032,4.594878569030962,-1.0981319311310025,8.650728116284258,8.326417542811882,-1.5280885396126598,3.8885978383138156,8.530518398718772,-2.5790383937736197,-4.209968855445715,3.0459006714154846,-4.679543530482379,-9.915255413151847,2.1953459044739647,4.94476194831782,-2.447965577486865,4.030781686020062,8.897273637086933,-1.5305915992893064,-1.1481973925653004,10.37056896508635,8.956729546274303,9.430469098908798,23.93630312223179,24.884365854204486,12.31053715839142,12.782262048824817,13.729817567847132,2.372455617318322,2.3273256234671122,9.601109224916112,-1.0983512094558598,-10.901333536831313,-1.858820327564426,2.090895712300496,-0.16239682987448179,11.507283279397626,17.932814540295333,5.344446902589249,1.7737066716285574,9.165944418070232,5.180511355639645,5.297608811304991,20.04840038739394,21.280840200269402,10.653800446377563,15.099716445001857,20.722436308545518,13.801995691545976,17.537148839010747,27.37270124820034,17.923697506691784,8.02195249626604,13.713530994435294,9.400292350410485,-3.552573899555509,-0.1335065885775122,3.604186507576877,-6.178153790581151,-4.776793755924208,4.912644710374849,-1.4585726613705683,-5.838244307207068,6.442752455288639,9.060521884815326,1.2495272947309002,5.105569672569166,4.732697963832534,-10.317690061212188,-11.68690400286642,-0.6671412865302662,-2.982092165723357,-3.4932542316888204,10.761887537257298,15.322699888993448,13.865641461778509,29.973970351955053,45.551661778276035,49.21818881890189,69.26017782688758,103.35817338653648,124.99692645969488,146.13481137573288,173.44737064053157,178.57459143382573,165.48513627622685,159.96271589498485,146.5405996800884,115.04451996621593,93.93340773630192,82.21516292002302,55.713507921484286,30.33778169515191,18.246219037913896,-5.391153258655909,-35.751690604039,-47.432575120986286,-58.408743047659165,-82.95900539913524,-95.91544113187703,-99.35907832345646,-116.19766967686193,-129.55710318039038,-128.58153207520152,-139.79433604336944,-158.7182257018854,-158.35841538136495,-154.20059839817898,-160.2611758820645,-154.41892299854015,-142.71964233199526,-149.27813500648847,-154.04361411857343,-141.90938760458482,-138.20802440602728,-141.13877520573706,-128.6982163244176,-119.72334734347476,-126.69646041582773,-122.87114634028012,-110.07404879780444,-110.37260124585104,-105.21584206465192,-83.45865488109254,-73.39020171173925,-74.36795013859276,-64.22831094933161,-59.832467106713935,-70.77066558640442,-68.19253981233666,-54.18952831085008,-53.702766881203964,-50.26715688429803,-32.03486578637821,-25.73613845591995,-28.74672599683564,-17.15699249413282,-8.788908353446885,-15.738348125991985,-10.356341908356262,5.1463664243350244,5.426175224399804,6.302456195644139,20.136413899328446,21.92617344209655,15.360639281092876,24.4402358204918,31.03350185351904,21.537179668870618,21.616420195502705,29.65690372396394,23.946025524008924,23.11109350336494,39.00851729363724,44.67730405722103,41.83669122711975,52.72621404565017,59.374154025961246,50.25282903633337,52.27672769518085,63.21264936128278,60.17346292856043,60.78653844434876,75.50913762872216,76.18935397551354,65.67245995489031,68.99602137994104,70.1102998027644,58.01976951314361,58.28072611829949,66.02654460599669,57.91990719713887,54.053019018144234,67.58160247578965,71.11490046457014,65.35689367511505,71.99520976408955,73.5486900673248,60.202800980948496,59.683663983142324,67.71945820080482,59.1863516737796,52.431785707831395,60.60298895606439,58.02859198213763,48.12387519693617,53.53272847817866,55.052772670974804,41.098032006994686,38.84252980406031,44.6861689182876,35.06701157449992,28.824987837938387,38.2691778122667,37.20853684770514,28.851923845606933,35.7563508044736,38.93519986502093,26.540626005170886,25.38138426686917,31.730761910206457,21.108648104094897,12.312669061836079,19.970304066383306,19.84963159560436,15.341511774298146,27.572901295888897,34.267432236778966,21.423753424858887,17.170043891375496,20.538941739696316,9.226784279338812,1.7525173508103984,10.055980544015087,9.023454175976292,3.0630496930494964,13.365903773319538,18.703206465833944,6.506253356407294,3.7983211139061366,8.752397154875485,-0.10409747246275991,-4.566417265887048,5.718976826336851,4.40854770096589,-4.01578841592071,3.322776435278972,7.171733381651513,-3.965693456881982,-3.6903381364140078,3.7982087543834915,-4.521723908956648,-9.738895446767533,-0.13889059516831104,-0.9702000523113712,-7.531066928419081,1.6388217199053559,5.5747419546298564,-7.738478395616058,-11.193067632267782,-6.893561949345927,-15.283898341027736,-17.3849072166835,-4.365480372906315,-3.9377735207179816,-11.874721410871146,-5.555217925882253,-3.261811556115111,-15.338232851537605,-16.1603621446621,-10.235308462095201,-19.459568400179567,-24.831184647195123,-15.506255698547807,-17.194575114947416,-24.740952399167004,-15.378322557003974,-9.333709682407008,-19.093638957802458,-18.70281323360538,-12.35572230820959,-21.679475204579983,-25.379751431973606,-11.989229583077275,-9.537248133551644,-15.110865287019093,-7.692948981323113,-6.980070617643568,-21.570376403867808,-22.566247618394286,-14.541410730692183,-21.509038863188835,-25.66116512911675,-16.907689980953847,-19.82352578630041,-27.115512708093302,-17.059134116122294,-11.871045477211347,-23.645771723345153,-26.122283659463502,-23.299593926035634,-35.09100466223681,-39.850187954685616,-26.92595006454394,-23.27334374669444,-24.48423109561601,-10.03259342334323,-2.3991907278081857,-13.355464569657347,-14.633421847424518,-8.603281988904723,-16.19494385528244,-17.575221189296137,-3.6445774966468383,-2.851126030839598,-10.270494294719583,-2.2361530719615477,2.2186238355418877,-7.844839059463002,-6.549616895630971,0.906873822467444,-7.5276469578193,-11.578778724147408,-0.06627461177378002,0.7251079605442392,-5.316146569109058,2.1954132965023536,2.756618523720303,-13.097645001610033,-16.85703656419277,-11.678423458484165,-19.430681012556605,-22.029905672453047,-10.648363882204022,-11.387884946463819,-18.14233311774498,-8.775331154784615,-4.007745698756251,-15.091389684239997,-15.8923403689532,-10.693748030134167,-19.570225344635165,-22.008070540487925,-9.114979384635639,-7.685943018319381,-11.795734018707378,-0.3488944376624792,5.113862767294908,-6.281936280177212,-8.317612383222091,-5.181538422174895,-15.83106949453829,-18.910389872188112,-6.4064743871041046,-7.100346293990079,-15.76067689832737,-9.372631341744798,-6.584499929047359,-16.3789721078965,-13.041931441801335,-4.1689223877243675,-12.205056182709315,-16.19921582514791,-5.762188750753759,-6.659345557961979,-12.84009744545559,-3.4867108753906377,0.5339945665426297,-10.113201772215623,-8.576697389415934,-0.4971677144251201,-7.198470883622037,-8.33170975689751,4.795959727621264,4.874906594323235,-2.1743958838364796,5.255716028121061,7.2380122311492885,-4.251146850894742,-2.26100991141117,5.561983252455122,-3.146256286663423,-7.005268401665788,3.9900638917287,4.2112792200290645,0.18354051404712446,11.087952117039382,14.339447652590152,1.1923481715668558,-0.562287338404887,4.111781959475575,-5.2401064330256375,-8.403253009549822,2.7808739019681505,1.4366244300397537,-5.945866525032433,1.8187325865688395,3.93008672252765,-8.209435432017099,-7.764543210059983,-0.8327450851047522,-7.56634046603726,-6.938625428952026,8.770093976934563,11.643410275563465,6.998496637470603,15.308180762710819,16.174329700498042,2.1966970413355424,1.6573097651467994,8.054914604024312,-0.8076699444162116,-4.375203885083188,5.904116686269518,3.578840893747136,-3.4417466464780615,6.505748638328409,11.369332176240137,0.8633662470674706,1.6503969198858306,8.761122933051642,2.260093722718868,2.794002677609872,17.74262616407761,19.006436671686593,13.213812287413244,22.613455951857613,26.893006996613053,16.52237969644146,16.699213934187526,20.709339738460294,9.147044629335456,3.9343495508507784,13.130697577528636,9.522398572865509,0.039978934512730824,6.366257543237376,8.13243105191926,-3.5302782501106256,-3.086829040799443,2.214374132636523,-7.813131765930837,-11.338418105502743,0.6184781927515131,2.0643191295693635,-0.6266519647040638,11.603352622883687,16.67666092706109,5.918847135087681,5.454881724644,8.602245182883227,-4.269785517127429,-11.085874594934612,-2.994543845887206,-5.611806734281877,-11.000093300256406,0.6041980480484277,5.737588687751525,-4.647437725173686,-3.366464133814183,2.2543515972760098,-8.143195606289071,-11.144425247989545,2.5328123350395595,5.373365845389635,3.2628244368476933,15.007827272852328,18.03928374887154,5.485982268959977,5.59137749207329,10.917916841618347,0.06706845604495104,-5.954455796522135,1.1460754732671274,-3.943356528867661,-12.749054686477567,-5.670626610976644,-5.577792879089166,-19.836220996481888,-20.637517128324554,-14.951950256747681,-21.985443415602294,-18.827354860913267,1.7177844297229692,11.017866063020708,14.093226262179783,28.28014320056418,30.800071218879328,16.305165140579916,14.983199521601101,21.02387803399227,13.712421743545919,13.551164211581204,28.24565260103384,33.163591446850404,38.72075030477703,66.00500347212527,90.85232001390756,102.08807369172274,123.76654258630498,145.8593177327766,146.93895224351428,149.28076177273505,160.51537881153638,154.33207028666087,140.3087657623813,138.880311169602,126.73967158521737,96.21583247996537,74.83812429092833,56.10766710082054,22.31964693126892,-3.3915288119554337,-13.620692937136866,-33.42624121400533,-53.26441710542915,-54.219468350285624,-60.70410969223064,-82.33583246001737,-93.60914389412827,-100.76063915209491,-119.80691334338181,-126.90801456087348,-117.0251772479743,-119.54855858379773,-127.1518214915202,-119.85140214598832,-119.22434796317462,-131.48451116308925,-129.57878068488458,-122.17412489908605,-129.32999618183572,-128.3225044706502,-111.84745360511775,-106.92521383953506,-105.66722219074697,-89.17815297588027,-80.60108154230832,-87.14833966977477,-82.16238357268995,-73.26152557781782,-78.64169707310154,-75.76645800277585,-58.89880313262039,-55.54217998429489,-57.68220646201012,-46.303831466465226,-43.05936564936796,-52.31636317102381,-46.47444162093316,-35.34584097504245,-39.333702095435896,-36.397071861891504,-20.193902890115126,-16.478554833728843,-15.673793946620183,0.6842611941114729,8.841692186430803,2.3379543036610544,8.278642325444348,18.29290178280721,13.288617425989905,15.069290526884028,28.791820513328084,27.633359730960656,21.403014305596926,30.171952297948224,31.578546240410397,19.999885800863076,23.31287736821416,33.014085749888864,28.805118725125787,31.091635036687688,44.25160557599435,41.95810667404527,35.62697264496528,46.9807809497243,53.3342271232322,45.391654243804894,46.85539707096551,49.29294154590184,36.8987845398566,34.96309644739561,49.358642542382064,51.07205284580134,46.834863029213736,54.8918796685979,53.70958057185604,39.68459955834458,40.45755080928651,45.4572896177916,34.746327067029554,31.932679446307596,43.39159942193246,42.82384783402594,40.7387939167755,56.037388896957715,63.91540179813041,56.98643384444803,60.61409051833448,64.02774818474987,49.51684541980477,43.35038273252866,53.03877130354995,51.611655476148755,46.62811044596538,54.095474303877694,49.89445668580807,29.747843588708896,22.430020804119614,20.074245948760694,5.095409528295666,0.9752937962309229,12.423477913567249,11.485474085737355,7.057527977855444,17.710168555369656,20.75839325047777,11.172697728755107,15.230207036700147,21.86908900507013,11.15869974426675,6.3318884165703135,14.165019658143846,9.982789867327863,4.907005320676093,17.331858527229247,22.682501999276525,13.548975170030072,14.65186910292863,15.800722149852701,0.08875403727323228,-6.699276278010284,2.30522955355847,0.35787461179299696,-4.271261591285809,4.429665993601432,2.477319540799472,-13.09073209771621,-13.548308715900255,-8.673113230029022,-17.562166935808083,-18.098705452560054,-6.292716235406646,-8.20281075330877,-12.285691746956925,-0.027673920914512706,4.27569382020067,-4.400340396219457,0.789054581529856,8.540041729168019,-0.6837996849944137,-3.9118782460324564,3.4793223827935535,-3.655845442287639,-11.708664634414452,-0.38346276842225,6.238882862079629,0.8354392777536361,6.677817091719332,11.872400000882848,-0.7782873765255944,-6.463947265926142,0.17212866262268012,-6.987747443793542,-17.19937486948972,-11.33664231751753,-11.014825553945892,-20.57575230814322,-16.09581165175563,-10.705591842590113,-22.648930226873144,-26.845637448334312,-16.998864709428606,-18.480350460500247,-21.060346360520857,-8.2001670004403,-4.010535972418332,-12.133954688888721,-6.119861363992026,1.8520508163168465,-7.217908477810641,-9.855327590536753,-1.6207766256495884,-7.597173216610394,-14.942096324490237,-5.2804764832905535,-2.9124574595323165,-13.06041173426022,-10.53670722014332,-6.957486498571754,-20.146486970855342,-25.484830287629485,-17.536594893944205,-22.239838733591395,-28.527967337175884,-18.25669870284479,-14.717957083676513,-22.235267121107885,-15.822878357466585,-8.197729308017381,-17.868479689298017,-20.6203137034794,-10.911360585817395,-13.393114701997844,-16.695774572244037,-4.325194219938301,-0.9435165777009427,-11.030718894160966,-8.933656371728972,-5.7445121239944115,-17.837750725651762,-20.252697532210473,-9.107416970150013,-11.041431064660825,-15.108843614774791,-4.2306281663633225,-1.7715457958017389,-10.81867647674817,-6.405432198279497,-1.9188687067982104,-14.522365597172591,-18.06173284313757,-7.197354561283573,-7.984763679736973,-10.49553955467289,0.14611562041677661,-0.630605309024769,-14.285933382554719,-12.268006265549147,-5.923020238966416,-14.549472025130711,-16.276168572444423,-8.2125796424355,-15.69784810522074,-25.230469369575363,-17.442857009783786,-15.397028768244668,-23.18688892594434,-16.322141194687248,-8.592098005756501,-18.52920595522226,-21.519498649120802,-12.13420555952983,-14.056271364141988,-14.696345491552567,1.0037015065576043,5.837312897320486,-5.199235598060145,-5.449034747471174,-4.282183071508503,-16.13852570648265,-16.414067306108336,-3.9806158636970346,-6.650344767542613,-11.899894218662666,-1.3958638874114495,1.4479481690736349,-7.158945262115887,-3.504791064610161,-0.7989365149181096,-14.168030154517165,-16.82919150818382,-5.077616638230314,-5.618244118927683,-6.926913237951757,7.2244599154032425,12.179364855349727,4.872672998751294,10.462551456091857,15.84541933915717,5.018669477997525,4.111218408375572,16.00369164527001,13.251792759969199,7.506140977252296,15.59126759817707,13.868551142849231,0.7546440680604469,2.248959423157123,5.16419552119138,-7.189379418920055,-10.00879012805466,-0.5133714365913535,-4.171198703901547,-7.695586452707216,5.65865415002638,10.799718959750871,4.324946089989124,10.940329939361987,16.53734410359365,4.4788933919071034,0.9593034495226466,9.922556228048062,5.932069472778537,1.7246436758629964,13.58185459579,16.662634881977812,8.41056774448763,14.196923889823957,19.65011866516611,6.512148053826725,-0.3753401792830558,4.120837673901624,-2.862809808206922,-7.561625909546853,4.879633530551331,7.318555673090394,-3.674111343843328,-1.3513594399885722,2.9383507373316107,-6.47546173710397,-5.675663261992367,6.262918161585088,2.8749186131248208,-3.023119609453021,4.903738429157422,2.768384249646451,-10.00298958768012,-5.838445948483039,3.0955948413111516,-0.74078105193278,4.207305012107364,17.419311051020564,13.338159090104234,7.362404578757263,17.576783161638048,19.342148707444025,9.319420538846666,12.269007949582104,15.535219305744658,4.389484064857179,4.6208306577519505,17.83394654441661,16.580200503586546,12.36352906278654,21.150333283181453,19.6064927526121,7.570373241739185,11.51519168169876,16.80829612500575,4.432143255698504,-2.4446094317135136,-0.07512611008684544,-9.792284372070782,-15.14021835832294,-0.9088068543127665,4.269621591923265,-4.891754681240453,-3.150823777031337,-1.445125259175887,-12.9546290306727,-12.141098943845025,1.443027486325538,1.0657977644623995,-0.2037656741704395,13.423714073547046,17.020141539281976,8.3723787430108,12.83505577777982,17.240417559771515,5.32788003923672,1.3660451568148897,7.409665410525275,-0.8944608243581111,-8.76221332544805,0.06476115811115424,-0.08695216155992758,-11.755105058370356,-9.135913822620292,-4.968536557893872,-14.789221328381245,-14.131386035958418,-2.430393126824801,-5.579256464384644,-9.167242398206454,2.896625721953005,5.333765217178554,-3.5022400873390955,1.6442487782054171,6.864913118177434,-3.4976735539933443,-4.640763410860134,4.469396671938313,-1.483431939450048,-7.175761441388466,4.431565677318563,7.5579937671629285,-0.9408793098645534,3.005975971513966,5.183352309457258,-7.897058679070088,-7.7898285235662215,8.024982592914885,12.73476996298885,18.398063855081357,40.20273423605727,54.7630038396357,62.901746025531196,89.88757820046534,117.94115858158557,126.04045397373415,135.22741661346183,145.21618080217016,132.49316235184972,115.14188517723171,111.38328419790207,97.109907285428,71.37446797467241,57.819448701505294,40.29143488339368,4.911266290262013,-18.278568680008597,-23.96279458630768,-36.62585020971725,-44.90554949272185,-38.985500927972865,-48.76000807799178,-74.80836619980417,-86.41150496243954,-91.56811533861278,-103.60825060648914,-101.01526937463079,-88.8710295968659,-96.94480108199319,-110.30512925751326,-107.36821885519848,-107.30747420814683,-111.21879419359287,-99.0649942457053,-89.52422693781334,-97.89213364205686,-96.62567152165701,-82.99629433091444,-81.61766169196548,-79.15261323923804,-61.86088346351551,-54.90229165580526,-58.68266371345295,-48.93745231158272,-40.85298308150931,-48.8382413947914,-47.326004230444184,-36.578583396958095,-41.66076507922467,-46.282578965967154,-33.89607674446972,-29.426683793737205,-34.18562204509803,-24.954499183914578,-18.29546634426989,-28.925665663817632,-29.63261371453595,-18.7166184337217,-20.180087440715834,-17.926888173650287,2.100194574788877,11.199562972193327,6.361272932402487,12.753365977583702,17.603527542476627,8.13486732902907,10.013703438840778,22.3412737171218,19.72671470102376,17.947604954561445,32.298120139121195,36.72506686734236,29.285899838901962,33.770323284063196,36.300475029910714,24.178619838080856,23.346665837428283,33.08954806440879,27.697928213500283,22.548459229103493,33.97090368245394,37.865447612478306,33.415164717815195,43.621886078333844,51.134338787530645,39.518185171758105,35.206916014783474,41.90214999340182,37.559954131269365,37.24869705074656,53.129416958404455,56.42562478319904,45.12753632747933,44.693878007822185,42.146867248740875,25.489564135769992,22.28577222378948,33.24805766616213,32.51263142124222,32.75361457750668,45.40482395996778,43.51436072994936,29.361729801955647,32.0887722655521,38.430505227426984,31.946328180608475,34.676914582488216,44.05871119428221,35.6130035990364,28.04215975450935,38.14525154998334,38.692846532124214,27.400639229847762,28.581335536275535,27.694284927215534,12.312704266366353,10.048764637530404,20.335525821574738,16.37893913656417,12.863060408391242,24.360270616938067,24.76333888368284,14.045567622041032,17.303698641408413,19.03919648581247,5.099945611651146,2.1845803623438336,11.07937908071655,7.320182781283558,5.753041917161756,19.1921421977272,20.93198884069757,11.797628298552432,17.175190451584694,21.035988221282015,8.322610936370886,4.169093067656259,8.461332869184414,-1.6899729376615742,-8.987918468994213,-0.10896289487393496,-2.256238029194873,-13.937402034441245,-9.048883821964566,-3.986728845669988,-14.383725616397728,-16.197430005214734,-10.57229017664896,-19.197586784485154,-22.658230262095632,-7.445731217439601,-2.893730890980976,-10.635538400271404,-5.813625816856723,-2.73948669651568,-13.799070860766411,-12.867989833668139,-1.616506708138954,-5.0487392918105085,-7.031405331787546,5.644056558943048,5.684257364046292,-6.77631403609929,-6.4880427173124104,-8.138805108331077,-24.402306808574103,-28.77604210826628,-21.82145293614593,-27.27965077570254,-28.44569977098648,-12.502600674151502,-7.581498052541927,-14.57237906678897,-9.263450266795932,-6.622651937386045,-18.714007694625906,-18.613045430437445,-7.79486148854328,-11.91584791932631,-15.20999861072348,-3.4759673510175277,-1.6752385089388406,-8.108232602939363,0.7828620668565192,6.993084848120836,-3.9156087473468144,-5.922263135657158,-0.02430761867437603,-10.029208774443806,-18.96612671513256,-13.093706311643514,-17.33196844456811,-28.58492413345199,-21.92298572754482,-15.106253242134247,-23.715999629356375,-23.674644736630043,-17.344340289007686,-27.23735938342186,-32.990702140564295,-19.404463907706297,-13.640791546327725,-16.983032228131574,-8.26441269050287,-4.708286126362007,-16.790558904735946,-15.376667620826005,-1.6570637975099984,-1.8350724659285955,-1.720177664911358,10.50924507704497,9.172181631094475,-2.6814166771747088,0.6735571483252536,3.3274091833069632,-8.043975229592409,-7.775016964764657,1.6006033014423546,-4.924837554623725,-10.432818264707253,-1.3189329600108475,-3.1422842744549557,-13.6882167192208,-9.305865475790466,-7.687172460458732,-22.144718415743576,-26.061062593961143,-19.81437870799892,-26.096645736247634,-27.881320351769205,-12.781467884637149,-7.9699512436597875,-13.00150178544435,-4.400826823598984,1.195529662312702,-9.260325930005848,-9.696994865021512,-0.8309619766828167,-5.143858093797263,-6.229610353786542,6.6669712534728625,6.594850182153103,-3.82352313786424,0.649963982156395,4.26615573844743,-6.827151785820144,-9.174300955012622,-5.156451731593395,-15.643939523097183,-19.820918714152995,-3.9995547111319505,2.923637417133595,-0.5599087902681843,7.450667415279366,9.707327803590848,-5.291311747978071,-9.767020620252968,-4.644264496887942,-12.517982545277636,-15.195116546376452,-0.8025909336782515,2.216917226688412,-5.422582797133705,0.2645624502521535,2.841891889395502,-9.275768045675406,-8.843554552723061,1.3496419446043748,-3.848105525909012,-7.3631317314867495,3.576825451129249,3.171212799015323,-5.687479214434129,0.016341426278520643,1.7832931052438905,-12.346908638767383,-14.035993249085205,-3.840172890601855,-5.591365053450253,-4.014376365691142,10.586643269260954,10.395388074307709,-1.6244978632630298,-0.07332672489587955,-0.89291401861428,-15.570384646638512,-17.296075691537666,-8.377789847576352,-12.496439714236994,-12.19569875450695,4.640461380882895,10.83972636747503,6.754248469712336,13.771300906876172,14.501938748989678,-0.8706747726666713,-3.2136908316232042,6.167177259666944,2.876310584794001,2.7848152357249045,16.803328199543788,18.316377450715773,10.251462474931582,16.16364394056262,18.32892043500142,5.186072153131908,4.0669937854226195,12.295935431217297,5.483304358539748,0.6242964676319525,9.708880633537035,7.404163322175849,-1.665139360039332,6.40017320040166,12.357171724419088,2.817277095139514,2.9790767463860393,8.97781698907946,-1.4717997950390052,-8.226781216957175,2.326474270402147,5.303393220406773,3.455397689796856,17.165575275334728,25.473236563453668,15.089075856475137,13.081270405633916,19.32597224991448,12.997003167123692,11.78808251466845,25.50524417600328,26.09024779052946,16.126212647460815,19.31502710275488,18.865818645139342,4.308264103134425,2.2618899161369654,9.187236361138122,1.8336214104579152,-2.0519296680345405,8.192327681221228,5.7145180322026965,-5.502194936455905,-1.1028761094724193,1.593140404161394,-9.036760559406577,-7.560334530228209,1.785704066404135,-3.568999069403869,-4.161690326165415,11.565682639432396,15.566074306105413,8.936652921577235,13.599829305961554,12.65472803616181,-2.8211682535040206,-5.206713879079852,1.4275025144542948,-6.836700022876556,-11.858190472370936,-1.7864980858310364,-2.1500871078903643,-8.903370128591293,0.21257365840868836,5.451045844631121,-5.535058501995932,-6.567494837977598,-0.5784650926929262,-8.811464190224351,-11.387085696936676,2.8010167421445686,6.181917899132499,1.4823008962382294,11.26293542519436,17.245282613315513,8.08260075918244,8.8738708289289,14.447066815445954,2.7822739090790045,-4.808785146035672,4.835168323425956,5.45385439184722,-0.4836451159470463,7.385644237185915,9.292135701026702,-4.276322876108574,-5.315961140264389,2.09173050392048,-4.840906271897894,-7.178377446646005,5.553499190315912,6.560045144588946,-0.3521189293588707,6.740764206005212,9.495794492801608,-1.127400241765872,1.7303587848945492,12.109802870320147,5.7499822391437405,1.3965119592563449,10.849379072713745,9.562125983029965,3.6877231564550224,15.586519302156642,24.394375173413824,18.90866913105055,27.395866533055973,47.51991136078362,57.986446172706145,78.30916645340442,117.46186252971293,144.1838427060367,157.5108038466961,176.59962188652275,182.01241179305205,165.53656797347975,156.81807084099637,153.08353293489907,131.28248047035254,108.89774887694688,96.92185596926112,71.85698057378474,40.50628415801553,25.28136275002861,6.062725421818865,-28.821535926400188,-52.66241440223635,-67.03298513908075,-91.15352780430216,-105.30024549620698,-100.80042695222107,-107.23584883127694,-122.51029607296945,-123.78897235642863,-127.47477004264827,-142.42718433108377,-143.12742801242763,-136.098166427345,-144.98148856494532,-150.44412414327678,-141.04743466332246,-143.04399567075203,-152.09107919827147,-145.44146276885797,-141.57986717233052,-150.43721729258317,-145.69972718732743,-133.5157298588988,-137.86836517077305,-139.5585402376717,-126.80867374910895,-124.14514259801419,-124.91686262232564,-105.95480996829146,-87.64230879637759,-83.22095941141394,-69.69493056141127,-54.09602566086278,-58.24122745011631,-60.21769314783535,-46.89541389493135,-42.72777387549486,-42.80832947120224,-27.143423107331863,-17.058876656544054,-22.85670722483184,-17.632946019129484,-5.942829784460134,-9.236632767316033,-7.942266233616191,7.330733264636054,10.13054072495557,6.2401983111013255,17.56639691755263,23.90044146605743,15.326048278705201,18.68983347850242,28.551279030380115,22.775850560893538,22.011675229454852,36.93734631142157,40.25725190309704,36.195594864001464,46.23924403176942,50.27335668602812,38.8362621882361,40.046064753658115,49.77332084938385,45.53290258305532,45.73197200248474,59.61548471343653,60.6038053463447,54.062745602956014,62.778156403712394,68.13392085153927,60.238338438827284,64.2328076624555,73.03512180532398,63.95426423970956,57.63415400139173,65.84528761727009,63.849485888933856,57.04144855067341,65.40839424823012,67.65235428287055,54.62672844777197,53.956121077826275,60.4756828615969,52.6010958186298,49.882024608954836,60.81589559493423,58.86572463720262,50.62529538783588,58.16449578511451,61.408912985854215,50.631515583023756,51.459608909215284,57.006607683837224,46.081493264790296,41.277063552560534,53.190981908706256,53.56059142581528,45.91601533739293,50.643493823855145,48.61239024413864,33.85924656154059,35.073691314578404,44.66089726869552,38.01237790493781,34.213122913988435,43.41737172026025,40.67151862805544,33.14056626516836,41.73203615023449,44.2213204158622,30.389372943142895,26.91776002241721,28.20058399333984,14.296481083752305,7.585078656293268,17.700143990217725,17.059915369433394,10.187771345034296,17.14989612914251,18.166015759361944,6.304580594864465,8.650995520270335,17.14987702118526,8.69630574341843,3.6024193294791353,12.300764245262743,10.550534367686595,5.23271899950534,15.548557481529595,18.72906587525008,5.016370310101753,1.5265588729918034,3.1350931109627997,-10.381287723452562,-17.028027607156655,-6.69794464309765,-6.2363166827268,-10.615681365433666,-0.6250652082718231,1.823253397825648,-11.358180745210833,-12.081076061832714,-6.22468893976789,-15.50279178746051,-19.603466549394145,-9.221288410533678,-10.006852576553896,-14.687926549688619,-2.857970913130182,2.4121124985706253,-9.364757381162434,-11.515283878172013,-9.229388117663275,-21.784104635121633,-27.150954109399603,-17.282801950897447,-20.34690200492218,-29.78822027558224,-23.507726971147466,-21.755380311180794,-33.28366854411334,-31.96895054597975,-24.56396268345112,-31.381347956545827,-30.988687719157873,-15.927186667896319,-15.133838369263962,-22.985418841358513,-17.204675057746044,-16.40301532276083,-27.708633736710752,-24.670878329580198,-15.629576447538016,-23.041666673151777,-26.033575322443916,-15.690584143749271,-18.334462234352387,-26.811049194153423,-20.29152791079367,-20.112796984080394,-34.12909241237358,-34.11023519911123,-26.107145220837428,-31.738836140481784,-31.54548279229892,-19.32122683906442,-22.54852221475615,-31.860970147419685,-23.41684464012765,-18.219559064058238,-26.70573799032442,-24.320185824703216,-18.425866348999712,-27.941035886848333,-29.955851511730703,-16.81887923008304,-17.246150453953593,-25.477118208968818,-19.637206838560274,-18.201948501375227,-28.21126373911839,-25.019894639189793,-18.444920737053057,-29.057124267588204,-32.64088203984123,-18.517865197746627,-13.459152872851789,-12.425787667597136,2.069182666073795,6.446496637677078,-6.252294845639086,-7.173933884617725,-3.4418105269906256,-15.615128223388542,-21.152791418535774,-11.694971268552477,-14.060464055439436,-20.274725778374997,-9.919854476442646,-5.8633975067748025,-16.871367879227424,-16.588263211746906,-12.41777095400294,-23.39204836101407,-26.10501080568316,-12.441528139812313,-10.412935798038234,-14.110394903271738,-4.120646541167097,-1.4323357999834914,-11.779175179027169,-7.7759224887640475,1.7104105424633178,-5.282271540462751,-8.505971295211554,-0.06034152092712297,-4.0058798162424845,-10.561861704444745,0.10968038163727378,4.405952778435423,-7.149506246960039,-8.417267151632036,-5.771085149941451,-17.60911169775837,-21.218915016011884,-8.886409734849027,-7.545186800606798,-10.215985472414626,2.301822969532707,7.658997890501654,-1.9192705972590147,0.49865003173532374,8.196440392110478,1.5485424068837017,1.1521508094178554,12.937191146903634,10.548775487790195,3.6484700418038085,13.910275848114592,19.681686290884617,11.667053905800223,14.035904931832757,18.730450007527676,8.035464734868967,6.104350049686257,19.967951632704974,20.56973642655979,14.19831396932166,21.059180001599646,20.593533354834694,7.1889941065214344,8.148409027946311,14.359557307819465,4.4697535884035915,0.16349702516444153,8.85425696846245,4.647044159156146,-2.7539526227471387,6.8190834725466765,9.481185705945897,-2.9117080888625466,-2.656474727541372,3.276595636920827,-4.647461589254049,-5.3595876715315285,6.160268280628662,3.148991947109808,-3.5436418980641333,7.885781275889309,14.671740801748268,7.538235405511034,11.162303525966651,16.724905878010006,5.511292655853044,1.1664869228046029,10.708823181785773,6.904550255545674,-1.3881195479531678,6.639505043557605,9.581086612842888,0.5564557628385538,4.875060037100301,11.951714053653799,0.6944098506358412,-6.005862393883319,0.8742187699523596,-3.285351356112793,-9.604566900083821,-0.03260356971033751,1.2130511579152716,-12.52367263548612,-12.747724951486134,-6.30137314823303,-11.833031162645899,-7.728090370493585,9.881122159224123,12.232752686281902,8.350810204004738,18.89692086160788,22.243304802897036,12.668654738948447,17.16066827584571,26.31508437096458,19.985469441390393,20.079681021026797,31.7983681361578,27.668174026365342,17.802103004542573,23.62985264523269,23.134635305816246,9.284655110214104,8.23880955651574,10.898243165717615,-1.8915485540863006,-7.013509683932549,2.3619809630215665,0.1191816223495259,-4.218876624068651,8.507790315735198,13.67562322193297,2.1628499532510435,0.3393373870531806,2.2309862860936143,-7.890367388519508,-6.199207848857445,11.28791689445427,14.096397398372059,9.25377034735022,17.035609230448003,16.930830672542378,4.119076284716767,5.734277553851784,12.332206156057142,4.055089794848206,3.7655860069865246,17.748579122386502,18.3541376863527,13.78848495849784,23.775238845106205,27.12662311130925,19.195926384916042,27.52392186617927,42.82044386208801,44.81070030397915,56.23290354535466,84.89934445426732,104.36252577263232,121.1453926858482,150.76287714043576,167.00131313240348,161.98106596637035,163.54056620849352,164.917553481464,148.27555259047347,136.8305091396438,137.18754882440658,123.22285775186748,103.94920428822665,97.5687518085512,80.73007231837283,47.078317463788956,22.90516488718054,0.32623070084147443,-36.661455503875025,-63.01093546550433,-71.81428670039544,-88.98238386615178,-105.93846889140919,-106.60728568074246,-116.40005257648228,-141.66431601891932,-155.08082572169639,-164.24252334446837,-185.38367545730833,-194.1252935257359,-185.32432855586617,-186.6340116353418,-189.23899058925375,-175.5555410714587,-169.94225261485303,-178.08739544671863,-172.84966480467162,-163.74274809484638,-169.36172615177313,-166.9338105072309,-151.73797301722473,-149.53643345378046,-148.60168785343524,-130.00547845942873,-118.44125648976642,-121.03864893452496,-112.23637225119819,-101.8560661735377,-107.83139314692029,-105.96875254375955,-89.91098529134655,-85.72932735035018,-83.25574668375111,-63.89457343221095,-51.860126795309334,-53.99230769642017,-44.264009683582195,-32.28276945641365,-36.51936903471517,-33.3980267070139,-16.957001814933932,-13.266650108727774,-11.657131384511164,6.788137261740758,18.01028355090561,15.315562666754365,23.908611116567307,33.36938264052413,26.34048085292929,27.673214895089565,42.83801294138672,44.65275871317528,43.22209917472562,57.817713403743106,65.54518842695599,60.26632367164825,65.82467517917145,70.04120290886047,56.28732566319862,52.46194657092854,66.69692046346954,71.65857836823096,73.09106933268787,84.48936854666908,81.94726052239986,64.50925013830228,63.17318405184426,69.8189663486106,64.63821542035285,67.01777346782805,79.7211747242816,77.73570410153388,73.54144132226926,85.90423349138806,90.1470428219892,78.99165570094678,77.47316487905147,76.59919827577983,60.68343392219708,54.95976236934997,65.03013726455508,64.15481810125358,61.79360663513842,74.61945983962295,77.29146616493416,64.59006898638441,64.43541786432652,68.08342320645512,58.09098292652214,57.10270157721479,68.01991933900237,63.77194362500422,55.810577086363224,63.163166071386,62.82092075361709,50.20364711377943,50.833612072445966,53.34930181253761,39.95550774822806,34.190633075030895,40.564000958073535,34.67680037741507,29.39267983811148,41.80024131385635,45.61074100418064,34.77726727816107,35.601797127033926,38.17541310756991,26.30718427650607,24.44162342913199,35.16316268670287,31.069885175669818,25.02914952305411,36.41742547271161,40.46073981995372,30.836679871656415,32.00053809034744,32.192641799683884,15.142064103180205,7.510294279217206,15.1253724140022,11.333190828052107,6.138450094247943,16.38595070644156,17.862336858491418,6.209704550568007,7.382917291919349,10.325224298817648,-2.129009926061264,-5.880153066249534,3.1548553162504023,-1.0524225527788986,-7.35399964439888,1.784716895793938,3.388624653342054,-6.718710667623,-4.771933457926119,-3.111498918693111,-17.730024456633096,-23.361073634067168,-15.238912078988443,-18.5017720503493,-22.062527040536203,-9.779683083007399,-6.144567226977133,-15.78160182900024,-14.152213196795865,-12.575167607633558,-25.918096269653287,-28.10460857694264,-15.738508242595357,-16.622195727475795,-20.60460760981413,-10.661519000867512,-9.924940094194625,-21.43513968753098,-19.964696610530876,-18.38932618807047,-34.03010539020451,-41.582214386970904,-35.93868554163936,-41.56958548506577,-45.64521144502771,-31.90772779916506,-26.55098747415045,-34.04548946711783,-29.020151461655658,-24.303936318120584,-37.23049252222865,-43.31810458282665,-38.5560028837925,-46.59850277514449,-51.69145099189059,-34.604251837466705,-21.347981101319302,-19.74622834324305,-8.546062937266923,-2.600142357321338,-18.205821955920612,-27.267627188651684,-22.5794197817238,-28.476970788417717,-33.57571502864208,-22.915066252063355,-22.443730351237388,-35.10068211794909,-33.80576138752711,-30.200848434415825,-40.99551630231262,-41.66033910013741,-29.213215767629556,-30.01870808218414,-32.365996158489764,-19.788430425214962,-16.660104786867713,-25.324424128972446,-19.31402484036573,-11.573864309265332,-20.027123853110034,-20.992905157448455,-11.691722903549302,-17.1357796606312,-23.563653541002438,-13.509850222932847,-10.947290364236528,-18.59580775697544,-12.173078423033566,-6.549920526731198,-19.04903054199806,-23.9033570160969,-16.479753682706217,-21.08475757975007,-24.94872794783815,-12.701375600097993,-10.207478451991054,-19.956691257671146,-14.603339518386736,-6.513057806743952,-14.060545958778594,-15.229995309833797,-9.016311325078586,-19.118511783641196,-27.702025856036748,-15.041152952040115,-6.507907519420723,-8.525269918564385,-0.02001594641295057,4.754206753816994,-7.970691761807331,-10.796360202584603,-0.756576938537961,-4.086007351621612,-8.502694629243196,2.0969358928423416,3.1788561074636443,-7.835740602906149,-5.355332365316201,-1.562114639455064,-11.603467039858156,-10.394112538610315,3.219045606887634,1.4874038530624265,-4.15585399641902,2.56804005375227,-0.8620846379876541,-13.906309479771618,-10.122065563965663,-3.8985428173799708,-13.411505374669067,-15.324513271363303,-6.985383138036187,-11.597017738832244,-13.811312086000369,2.1015480860149998,8.603441073553274,1.180861787234948,5.414194945530958,9.955411544056833,0.5256831638819977,2.288146495043324,15.798685767128845,13.659512022108421,9.365345321759476,20.487297531005606,22.95310158688521,14.24989373074565,18.131069465188133,19.657833537584104,3.516577061991584,-3.5846316348204095,1.2540680661902472,-6.83940405775596,-13.713665517014546,-3.2296091204932487,-0.31816769318268256,-7.232930483907274,-0.003553572097597879,6.390788715419135,-3.905626942625589,-5.025326588452246,5.903808985473281,3.9720899461500765,2.2844935630907104,16.017529771005414,20.197473331762684,13.53418047785678,21.21288443874956,28.029852456010616,16.716031922365588,12.108096395743907,16.64411815223413,6.660502927004721,-1.9048113671532032,7.3418724719822865,8.502376442654292,-0.7421386735973838,4.460742026110341,9.266131939213292,-2.9905387203885034,-6.957991464668272,0.11866152417907072,-5.546210682739991,-8.262669293166333,7.77669406403418,15.108658416873363,9.79382492754604,16.17269196481569,20.288022706196905,7.703360824155138,5.523696864406867,15.366113289418035,10.399917490586798,4.243825152213152,12.960313276595654,