22.597885091486386,26.12325414204635,40.16910311730683,67.9292294265658,83.96258798718645,99.14408478509543,126.64760458197628,140.47516556847881,138.89180201043615,150.34664563936911,165.70703843470287,169.0255105244447,181.42927455030994,202.7385954237261,207.0173203454436,207.1762292751605,220.7376815462204,225.18764912883574,218.03045333379876,224.27226672634052,232.4750445921768,226.23396194756214,227.45651436583128,238.3781903508614,235.48715656801733,232.12974906663933,245.13921375021005,250.30172492645463,242.52470022287824,246.22077847986924,251.26195252973912,241.77506569725756,240.42938677871535,250.27440717681816,246.32092708244318,240.61897497469903,251.2983841555854,255.62265296666453,248.275072329157,251.61101575056236,253.12590220212732,238.25763421641517,234.35952732647613,247.01590052869847,250.27490780832875,252.51015086825734,265.63386160984913,264.32631562848167,248.59496783381718,247.51004091884997,250.46502414206273,240.48665580920039,239.8555533118743,249.3116361493187,243.01719494271606,235.63530835472872,246.20897958253192,250.29808077062904,242.5688880516342,246.7012818967993,249.75483630623472,235.60500260454708,231.0099847307809,240.96099698400243,238.01715224282998,231.66179696261702,238.72153616226043,236.66024083275232,223.2625902597201,224.6079218710875,227.80708420589417,212.96633219521266,202.00274751281782,199.84434031381068,184.33299861234514,169.96664188254124,174.43450995924928,172.69136652121182,159.13060391218482,157.6521261285784,156.46649138347672,139.96886106705244,133.49093990828413,141.79005553624827,140.27568015191045,140.15154536960497,155.5654796650195,159.11121070306058,145.42397612210422,141.18281520980324,138.00916477630022,121.98692064557197,117.78728826147847,127.8897144469143,124.70096538948874,118.5431284711153,127.00095693031058,126.49342781569442,112.10617728902201,109.0782115201373,106.13154411593857,86.0860409384554,74.60150068140653,78.64441097785526,73.06763234771819,68.01857610438887,80.20874361997005,84.1420530209313,73.24635038479174,74.00590878521659,77.46330714121814,66.18817890427631,63.48801693894268,73.87514411918329,70.41815260030127,62.95151464072636,69.88919202870217,68.97486885068415,55.85163348982747,55.88225373238534,58.32858385957849,45.30846329340738,38.84406576275913,42.87726858199367,32.84689231551134,20.52546379909719,24.458528777445757,23.033343546785392,12.438689025052312,17.174474277503162,25.03833113791702,17.324409199898554,15.935524252383608,24.194697236237502,17.20094069136515,7.178131635489722,11.34392631124849,6.288024186458869,-10.055356656038555,-9.874028212819258,-4.087778192869097,-12.693433580314446,-16.38377480414353,-12.324530358985438,-22.932982251554026,-32.65405716468172,-22.535032997673895,-19.76479913256068,-33.11959720854075,-36.12963563323313,-35.49843292079419,-46.01144552653718,-45.63115989213371,-34.27703689130884,-39.46382317235131,-48.087507169773595,-40.00137528426401,-38.048901335956714,-48.64887410930578,-48.76573534096551,-49.13288789645512,-65.32973455474294,-72.87287339259015,-66.02792237018204,-68.33055581726983,-68.95043733873294,-53.28102061945283,-47.69753771658931,-57.859182444271156,-57.33046286238303,-54.12540615163558,-63.11342408334199,-62.000522172126566,-50.150136688338286,-54.803647934303356,-63.86777168280898,-58.55260120126097,-60.839700194733275,-72.6282894110931,-67.28149580649469,-57.89637683598621,-64.84239289484124,-66.21205496007383,-57.514842451296744,-62.728658571131916,-69.26049992686113,-59.18792715723852,-56.67018485791949,-67.3269420593439,-65.78720010664219,-62.20663077349816,-74.34418150568385,-79.25597948420227,-70.78360366342157,-72.54768522119643,-74.76356766757512,-62.41678513141734,-60.04539107439646,-72.3604881374947,-72.16597596968361,-67.00259659934375,-74.89128741893651,-77.11354405508663,-71.24321152574747,-80.33106161444088,-89.22735475027254,-76.41078669401803,-65.23815916943788,-65.98226759522917,-58.5297347413608,-53.61721945067109,-66.08901216514843,-69.82715872936512,-58.03662961044806,-57.03952452180436,-58.39151149663623,-44.23591126083496,-36.27240399419834,-39.71185714181878,-30.765790420486113,-20.917724156182537,-28.63492710120011,-30.910926461676958,-20.92176877205531,-22.648081909126788,-26.894934283343268,-17.717311978556324,-18.230201536367797,-31.87517008285295,-31.546294145461932,-27.24368042859398,-37.853408670232554,-42.056922734702596,-35.82667027378498,-43.59353361649686,-52.12204766206902,-40.91284093632196,-32.81585195974449,-35.38033945195753,-26.045784997182775,-16.414465810777898,-23.912710990159265,-24.347048433785666,-12.049834913394609,-13.830068278015919,-21.274252692499367,-15.453332606846965,-15.63919963896814,-24.93064033596955,-19.256343949572337,-11.755380392572405,-22.509496953517317,-27.899603244878328,-19.674368355031604,-21.59054762099552,-24.206883908428345,-11.066964197742314,-6.583137205665708,-16.254526973108582,-13.00996546949688,-5.788561587743692,-12.834409996398099,-11.421858637241824,3.7550759924226202,6.016590424866541,3.7827772534860324,15.104291997363484,18.23538732151801,8.445764091447423,12.496515937143952,21.19371609593921,14.599215480575612,13.872220802021618,24.40545780274552,19.953731714324263,9.962370722369418,13.474302891277397,9.120982556001954,-6.228973825001088,-4.898024429901949,2.344468797460018,-5.639793183123209,-8.084905686549762,0.9302167559494343,-1.7544694591378445,-4.785992733213877,8.231666342723457,11.499720522747745,-1.534894321398797,-3.281698706663003,-0.37822179881870976,-9.569840236718413,-8.78408579345031,5.73666461427243,6.555391238712449,2.563671962156886,11.781180052435253,12.227570979267309,0.34512470107214277,3.83008480480177,13.491217977361764,9.267993401257026,11.017709833277081,23.074146358167965,20.418416831011648,13.305564024832748,20.527928935525,20.9987436291141,9.699277033352288,11.351292661763873,16.125139469542102,4.818654174219185,-2.292937972353059,1.4810495004742275,-4.570912109501741,-8.304005893366154,6.647396774865962,14.445452129387892,6.95499908291409,9.499953123696379,15.188100681690573,8.622138391636845,10.952413811073553,23.28571961422597,18.819541319257443,11.167508966041282,22.992779046501592,31.753456546801367,27.33883842924917,30.302078856279767,30.04234839333727,12.996341583248453,8.10473392084706,22.67858183356774,26.90097647758384,24.329284753822638,30.733684162969208,26.973630969950744,12.813119201053595,16.709747210081765,27.984755962903506,23.276165373288904,20.593020290959032,26.93074052102688,21.35227781821912,16.040991660703746,28.892016239995616,34.63857044785032,24.325928174614155,23.562561077312008,26.143513512230356,15.573116617771703,12.967473423561708,22.71994884715484,19.755399360992733,14.04066476060401,23.486157864457144,25.514824964823895,13.899228870091708,13.460906755816051,16.18597858988827,5.536279267494754,2.640194741445336,11.58316317369603,7.9518293622487235,2.8718192491067516,15.047491861429773,21.357622396701387,13.748354672124147,16.071385091383693,20.688727567071982,11.97865814152786,12.422962615520468,25.447490923114774,22.102478202746457,10.177413073561972,11.240032501144078,7.817243438572794,-4.739723885914906,-2.5554910872768968,3.558888131074939,-5.405906331160384,-6.23351450155448,8.098457820651278,10.766418111562254,8.573513820009657,19.38491796227257,22.04606306201824,11.33086009398232,12.612482583310074,16.228387424533828,3.819287900547441,-0.9331114454510562,9.161424696212446,7.17497986365767,-0.27459650578694683,5.020347334326573,3.066012102150063,-9.4535043799485,-5.38322084407081,5.0065206903577835,-0.12307655804799911,-0.8324064309654197,8.710975298670402,3.6172869796169236,-5.063516343508249,3.967217402406482,9.081253400121241,2.1223099417531066,6.4132739594606445,10.755926413476978,-4.41875373583134,-13.461329818268855,-4.977468932673284,-3.7672790835600027,-3.6462949943783154,11.020199574180218,15.074185212502575,1.0080878375831333,-2.894516847912925,-1.6687900681548582,-12.438634228850166,-13.400970803257893,0.6439114392413066,1.9814958820750044,-2.9612132973265046,3.2297083489268914,-0.36448537317024066,-16.63228704956278,-16.851372052833106,-9.295265144588317,-14.598747208926119,-14.657491158908389,-6.36098669919798,-13.274583265338173,-21.325758580094078,-9.32178754545146,-1.1048628088243873,-8.18394953058024,-9.983184169098205,-14.284748005813938,-32.66669629015914,-36.074158530145716,-16.800608213221206,-6.360104708595671,-4.620946275406124,3.96214071678842,2.303488893553022,-8.769212089073845,-0.7633721718060569,14.47938151287545,11.623930119014265,8.224503124211113,12.516936134395644,3.902851379091826,-5.96103814667132,2.2603461976407555,6.443997192831063,-1.245324672498783,2.753397318050429,9.109840196614343,-0.8651982816037522,-4.820362814180088,5.269339699903737,4.217396873956424,-1.371769655158006,6.067322479461107,5.0151934671374825,-11.183858464467894,-16.118112994322647,-15.745773333003884,-27.78514835362547,-30.495369923434467,-16.94128123307637,-14.717481869115655,-19.196612055499507,-11.93308431044246,-11.685388015351993,-22.822061771991834,-19.610168484720628,-11.864927393209602,-20.86071160905796,-26.449711250823206,-20.56338029791254,-25.151930032101795,-29.713981545445034,-16.419052818996946,-9.612554375706546,-18.011762761482156,-16.171652131135062,-11.014473614526725,-19.88273097344664,-20.194389107598134,-5.650682633424564,-3.708221272401162,-8.129006455531059,-0.5654526321218345,-1.435169313050105,-15.45553642670824,-14.971307567916849,-6.968354763979702,-12.126754839778766,-12.466907417287487,-2.0674466823477364,-4.796622127189822,-11.349790052476335,-1.2604553217768473,5.019559962240399,-1.30733264903284,3.075697442228317,9.804825261713264,-0.5749602073872317,-6.0488037596458595,3.2266584341716205,2.4761456258496737,-3.0527622051021694,4.306379681560452,3.8578811861892697,-10.302521801801305,-9.877165998630854,-0.5920322290383231,-3.9186211543174077,-2.0142420707375135,11.405238481200186,10.804627662214347,4.736324589325472,14.530600004175072,19.532010836118083,11.159362038210675,13.43657148526177,17.467073684112602,4.315539038866669,-1.9805281616523143,8.923476983199526,11.599747094584977,11.084755931115723,23.736893140354855,26.451992104595227,11.922083150369495,8.2578752102698,11.572835433851228,4.121613009196212,5.2980389332916955,19.811070541171034,20.29664214970048,13.639725525191203,20.739795849053206,22.585968766667545,10.80882395522545,9.275476420928822,12.308470125249361,3.6811161227729827,6.96472067798728,31.667687367605126,51.58864084355494,71.42785009396542,108.3338592009895,137.57484014059392,146.08912735462388,156.0449468490321,160.82654151468873,144.54592796282697,132.70087987023274,135.90264964869675,128.1944231259127,113.47747238741078,107.62688051118812,88.93640455754951,52.17792051003568,26.503164295184995,8.262773717364906,-20.43801905731308,-40.81549142629524,-47.7610603968485,-66.4697886874319,-88.47145010600529,-93.67943485484415,-102.71074877615365,-123.33274524613688,-130.00594660237596,-129.86890961295134,-143.01791904228975,-149.40000220935198,-142.28487465516912,-147.71423480871962,-157.15579077947783,-148.86927518627522,-143.25523502409314,-149.22868681647543,-142.03964298075525,-129.64283454973554,-133.7637260127805,-134.95716824339047,-124.2744011174411,-125.019637120347,-128.15749417588106,-112.33756811031594,-98.28898083822452,-97.1232021716317,-86.96996951788495,-75.17573149623308,-79.67221454190194,-78.10667259361762,-61.04464123741456,-52.9480958332152,-47.55365081078575,-27.395507729520943,-14.681682501046915,-17.54884172199598,-10.421222688653105,0.675415078740413,-2.748492494346612,-0.4196678836279415,14.455940499435243,15.96643512766531,11.107248795371582,20.28541032553489,23.945648925961375,14.641123977661744,17.863449666426522,26.08189110671322,18.432435379308945,15.380844838268288,26.071269092955855,26.234331715176687,22.661716819577997,33.61691645319217,37.49093589308764,27.196049176458637,30.102283490859193,40.05311073812293,35.8849745480686,36.0921500124147,48.050240292736916,47.88038132998309,44.07669453029227,55.66449228013399,60.5010922777736,50.36583589662246,51.74011541249516,58.916280385366804,52.13923283300643,51.124893359042915,63.93554566638948,66.41051743887812,66.16890080240555,81.71426595969793,90.10700053733244,81.99105869996264,82.85413129204541,85.6987815449699,70.44255902048009,58.899390045888225,62.05092608503537,57.392283922668696,52.91515136405932,66.21222882573021,72.21708280725672,60.26668832015287,56.96885922416131,57.972992717053096,45.08908380061773,39.59782704024465,49.56335404464747,48.323027386579454,40.89941740239467,46.20975946704445,44.38005361689669,28.90385358290463,26.804585981126255,32.31188170106175,25.019518476680886,23.35553480512768,34.41185289296832,32.851033540235235,24.887810547480132,30.576458199182916,30.460220638230666,16.375671511114504,13.91393597222853,17.341610224202018,7.297475200173369,4.417534798783539,17.140570812719655,18.93542389257746,14.37315561233428,22.849764213449763,24.405677810242246,10.885549054928315,8.871983793869688,13.402116928313191,5.018179354342977,3.3441718537270435,14.88490718431624,12.338888501767432,1.3876403490493896,2.9168483465766135,0.057693264279452094,-12.29107179534969,-9.1551825857385,0.5591544198810361,-4.933260210457421,-7.025160431025396,1.90446767261774,-1.9483638160863967,-10.175436218457131,-2.2138964752849244,1.9309570121280575,-6.323859171659636,-2.97246075007447,3.7699056804468634,-6.880543913623287,-13.551211469391532,-5.7775156017395135,-7.71540616242971,-12.763297001673875,-1.977508923736095,2.3443846114037497,-9.948374584277111,-13.4497437718451,-12.327403075390691,-23.68839148164689,-26.09201275057019,-12.369546675465978,-10.522698059358765,-16.07515657610473,-8.921690039261478,-7.770958973456967,-20.02754278829445,-20.21672433705515,-14.676890146988203,-23.18661435388776,-25.620713920757662,-14.528815269808035,-16.96811973653961,-27.306237254403452,-23.93663877689945,-24.32339074935428,-36.0120010215432,-34.69013519196192,-27.942295916654906,-36.23429331279029,-38.69111029590154,-26.196358924153024,-24.65938747507104,-28.68306320572988,-18.557253389333088,-13.979750006171423,-22.826527752100848,-19.73124727858128,-12.431654415996299,-22.803880437208733,-30.39990098320458,-24.83675252502551,-30.30699462967737,-39.272676390119436,-30.00481746745604,-22.724431720882194,-27.805699235733144,-21.46076549659456,-11.291343599415729,-18.689061997661934,-22.831326962328006,-12.626203045902775,-13.00803100103273,-19.742941968268855,-13.830678085547161,-14.513261824305346,-28.347741044707654,-27.536122612585316,-17.205680359258324,-19.345093544273126,-17.5504463223556,-5.17467562641486,-6.68521142332079,-14.094861052178684,-6.024402635306925,-2.654951660367547,-13.909362993356297,-14.678162397415514,-10.150876970474258,-19.756609506049966,-22.928551145560448,-11.066456964157728,-10.724710871507142,-15.79312410250092,-4.426578911310113,2.718910044863829,-6.589053779467724,-8.300751446935042,-6.452093221683215,-18.72233392675799,-22.60443141810208,-8.626997552751435,-5.740713170014589,-11.507286088128854,-4.675015342605803,-2.412566876205054,-12.164318374592284,-8.456167506024446,0.47429751233038786,-8.587428767695155,-14.555928410522736,-5.017688493680355,-4.297293436449513,-7.2578572492216535,4.835730531069432,9.0767167801384,-4.9231797382904565,-8.891485020223376,-5.092466755490408,-13.393557832188508,-14.38837729066069,0.8469730220278482,5.084799855669276,2.0031342009234683,11.93480451307647,15.396094255249828,3.1193837657738657,1.0234619545093215,4.823219853127335,-4.649145156606056,-7.385168855526606,5.400007991702527,7.705586431241921,3.673648263500094,12.216485741946505,13.549426744533104,-0.5854285773951782,-3.282420590899031,1.9691668676345264,-4.329892957240206,-3.618092791252457,10.830124868120425,10.65140992942414,0.05639466889251299,2.396491427465814,3.0936166020470397,-4.803910724825723,2.6319456375939687,16.1616512698859,10.481574101622167,3.2202904107773658,7.21965991632435,2.916839140832735,-1.3404664107709388,13.5836094442981,23.843683687490543,14.886686696545029,9.883831604405357,6.902446063765301,-9.318902202742892,-16.435159749965223,-5.0683699373502,-2.9591557038364273,-7.551899103458716,1.1952891942527382,4.663703036095933,-5.79133446748563,-4.383565202723849,3.181101042242802,-4.450912515725398,-7.634985974284172,3.97098331004141,5.049868503109028,0.19594402726821025,10.402326645393497,16.56501083268417,8.294637355744264,10.424663005252182,17.414991931990993,7.841755942851074,2.6906873303928953,15.26546120894665,22.498755221314223,30.372776277785814,59.05610784506694,87.36834104619774,105.39038365801595,137.16341327240775,172.12927450092218,184.0352895737281,189.47097447146453,198.1771836890338,188.90158042257707,172.18200358585037,170.4676653061449,162.4040606420142,136.26931510448156,117.01468386996665,100.7847626652549,69.08981423294229,42.900101438024606,31.660545247083466,8.968845833288032,-20.355117646361204,-34.77716337934609,-52.062246101852594,-79.97648175087495,-92.92512146111851,-98.11522122628207,-117.86124936728521,-132.56094859873164,-132.40342486993237,-142.37747371578234,-156.25948922197296,-153.3460434771972,-153.85539581695537,-167.2605760093933,-168.0348915519363,-161.74609987946457,-168.8520956488557,-169.3709898419784,-153.4642779520588,-146.96841475476438,-147.3046836056796,-136.29215477757774,-132.3544880044756,-142.23011368263417,-137.9133958844041,-122.66737033238934,-118.33175222480844,-109.33836874657396,-88.69141541433365,-82.23336783400194,-84.66944056344128,-73.8233522728216,-66.3002229718919,-70.26005463811661,-61.40284029375961,-46.850609122663485,-48.52069156623539,-46.97368604351777,-31.930115370817173,-27.838423077709272,-28.67965060678994,-13.681009303308233,-2.6427662217598455,-5.625720908578225,1.4063140139032146,11.515044832017102,4.082283842559437,1.759038668842043,17.356486983933152,25.02777912681465,27.29365304098441,42.31727013562623,48.24031722716316,35.22991481698203,32.435248360720315,38.826505753808895,34.36739532776094,36.602308406888405,52.10766282419706,52.789661985208454,44.38057962099275,51.2025702101729,56.008948315752924,47.985693507139345,50.85701015811027,59.394724484366336,53.302643300629256,52.12448628048561,64.96507550112999,65.20445093531636,57.705819062000415,65.36283452139772,70.7745321462175,62.79480565765526,64.18967267100732,70.02638792357112,61.46377811115975,58.7489966115555,70.89616460657378,70.74992740701501,61.09878669070951,63.26131796802946,62.791400047585995,53.501890564778336,58.79911757782892,70.02214061014918,64.01454318326327,58.682199425694904,64.6322923587602,59.075328614526285,48.364594768354664,53.54237209470848,55.94844690514716,46.14720675677209,47.7052223002811,52.45180794040401,38.57682444571152,28.25217077561227,35.031022379823625,34.73376770444048,30.587601976293833,40.4824428560012,43.6861366019747,31.599494597823305,31.48301852382781,39.130090800294006,32.78879635018207,29.8318414413324,39.17965493379526,35.85657475465861,25.169877714573794,29.467420223995568,32.34342996991849,24.253593579602565,27.374236107207416,34.106852641954006,23.16162153247977,15.197293105917865,22.56434429725092,20.90112254587681,14.019521626708054,22.103696990113516,26.044464573024936,15.988965545839802,16.691238159282463,21.762077214805043,10.192281940523566,3.7946516905647227,14.4099373992526,16.274302430616693,12.573563422044206,21.388861083622416,21.520188326147903,4.492893745918932,-1.4093149296029794,0.38321403398683507,-10.355010017388423,-14.330659229215623,-3.766968794241944,-5.766262577887009,-14.451902949330929,-7.731358398734137,-4.91533287271584,-16.100041928668336,-16.039107289946923,-10.338624511613414,-20.35208714946054,-26.07137348689278,-17.187194048909237,-18.698564258275418,-24.065616836163617,-12.005875214191896,-4.194239606115959,-13.764025390653734,-16.843223966070706,-15.90848956948684,-26.918257173769753,-28.34295657541595,-12.528837424792211,-8.62684689408566,-14.882868774284367,-10.615690837144196,-11.462207333470904,-24.464315989709092,-24.344760787414508,-16.569109532860164,-23.73119276164437,-29.28381480502852,-23.230319525114,-28.182136322349,-36.77303405364272,-26.913521672383474,-19.39160640641316,-27.82398574299561,-28.642936498831943,-25.036075914879255,-35.01273911065473,-37.34865811889322,-22.086185544051183,-16.689500136390176,-18.908091674610617,-8.908705183250639,-5.339706649376391,-16.842849812873062,-16.616606498067057,-8.763803010227512,-15.103577134383388,-17.666890982603622,-6.068634185718238,-4.825642032607163,-10.199618276354798,-3.2019088597432583,-3.85183623921805,-21.181630365505217,-26.714396478385254,-21.966062555509872,-27.83198099772789,-27.830478825798487,-14.817132973953168,-15.877635373689301,-25.59678082882624,-20.240860857304042,-17.204347477550535,-27.030056905918542,-25.68899773883126,-19.012594232114957,-27.757989638496962,-31.095432884837514,-18.31195993888217,-16.158395982684866,-21.554230528662316,-14.1183709448704,-11.73752586953826,-22.139290403987353,-19.19350746662157,-8.370890041511226,-11.632867326743542,-11.531607509905319,-0.20049908988901066,-3.587942645359853,-14.796011884601574,-9.503236035569941,-5.21734634895213,-13.331946126636677,-11.754276095893378,-7.967710803458682,-22.398405588263568,-32.048938236424505,-23.983014573205402,-23.9932935693533,-28.96756277775299,-19.270505670982708,-15.038056944572748,-26.132714914541776,-25.734543773285715,-17.05537193990788,-20.93715741434262,-19.664555624292607,-5.20924489608608,-4.335735893034797,-11.678332953582872,-3.5654437988627414,2.6592284859198494,-4.153883933274975,-1.0030217273091129,5.561966584276258,-6.402895837674601,-17.080687357653193,-13.81828098062269,-19.19014670673088,-27.171688505365587,-16.542651284825688,-7.43537125686089,-12.420287454220752,-7.835917972446596,1.5024957513322201,-5.863563054415826,-11.401473470090934,-3.7884827833589263,-5.61777100670262,-10.756615096744431,1.027889826735711,8.802772163204676,-0.16143627614487155,-1.9403837312104963,1.2098667583801956,-8.154199890536255,-10.000685870151527,4.170558147300735,6.0066488093677695,-2.0375609916686086,2.187988964331463,2.613781617803599,-9.205578624792793,-8.100825296389814,0.32671314300887433,-5.973535195418348,-8.127590532358555,4.547293385604536,6.342221000863393,0.8947762715639103,9.986876555214074,15.730748570319387,7.039591389078646,8.062059424441866,14.316976337675984,5.144892167614168,0.03364837698526435,9.297709355833142,7.229546843196337,-1.3793572933171427,5.347142096457082,9.142182950562951,0.0015627483548961152,2.3778048258118654,11.219771502893636,6.221112483990765,6.548562865282502,20.946966024130813,22.369729530031986,14.87305680881817,20.193166949619904,20.7472436637155,7.804671328565416,6.582558888605158,11.403596878411484,1.3939092064413945,-2.592717301077435,10.929536705819615,15.156748132907822,11.332410964559575,18.115440592483736,16.846091808694343,1.3198425431876313,1.4748788244609439,12.470698137676917,8.991393339345871,7.482791763742965,18.697316626227355,18.912940473708694,13.652924605878098,23.50217150290886,27.60408311842035,14.565106764489359,11.354975398905415,16.013890843041064,7.8155565214541305,4.363770577908875,15.036240655054467,14.640219759243452,7.52391351173704,14.717248994402944,17.770976073422418,5.75477828165646,3.1159049627549233,6.820989048484361,-2.4931251206199354,-5.6561152119966955,7.67136416792932,11.61210724550885,8.861636936966567,18.990965286864007,21.88692490420084,6.752905491678827,0.6211872868599596,2.685329371337029,-5.657914037909853,-6.459023473742452,7.613810805831538,9.335163304297943,3.393475298618954,12.448535383389789,18.643366933339752,11.13577702032866,13.913295879480431,21.976943985156215,14.653707686544418,11.606402713521831,23.59531747762691,26.789860613199206,28.75358890152151,52.04097095793233,76.31017502482194,89.97675199662088,117.21239521913944,150.7657872395477,165.68816501526533,176.53901443359064,189.7964815396902,180.433699834328,157.50595572489138,147.10692156575124,132.8391893958109,103.90672155076751,83.57205953943003,66.52242545218222,33.026590060354955,4.5948191510011345,-6.103465382987658,-23.764084511471776,-46.09740129554999,-54.660040896596364,-68.71462798167056,-96.76835470233978,-111.03530736111264,-114.63990074491744,-129.69318138722215,-139.11657436527398,-133.513272524812,-138.24310464394563,-149.14159988801148,-145.46261277417395,-145.91207269831568,-159.9471892142204,-160.1576035205487,-148.63455989948642,-147.25765839867904,-141.31854676366055,-124.99425474028806,-125.1035243724077,-134.27614300332888,-126.22491471083744,-116.9365615434107,-117.82761384176844,-106.96390867159232,-91.1503102257726,-91.06332699784804,-86.46039775942576,-67.49826764585816,-61.450096687894515,-64.67596317551671,-53.647057387317375,-44.358699836191214,-47.10455526394108,-38.10848379089331,-23.704152869180188,-26.851144783668982,-27.6654860818516,-13.032787319989374,-7.927044188720637,-9.670070818185577,1.864403998339724,7.308248728084177,-3.2915836759458994,-2.633448248966803,6.2083450190209275,1.7422846991611136,2.5101816655134717,18.690273494745405,24.765607651847027,24.813523601477705,38.547556839610586,45.58959535918125,36.120655878071936,37.05070832720573,45.65631236912673,41.92245722812341,43.48942222349597,58.19741586855061,59.76816393661443,52.07235016214271,55.58593448539358,53.426641848356944,39.2049577507823,40.1363173922703,51.26213052251447,49.470703002973806,50.37734760502059,61.63424857993414,58.50392747600982,48.674955811745804,55.81360743123089,61.146203741184095,53.49176924697139,56.36532432109439,62.6229225848119,51.064968825802495,43.96001062014789,53.4673799991057,53.09940961764164,45.99559695263868,52.5042994368927,53.70729810687155,41.136984363711484,41.32951805595589,48.612819834270354,40.70430474802659,36.83442785850691,47.903740091509704,48.5370535377198,42.34948344168328,50.10845716621794,53.46608633874748,42.36951266754772,41.58681199691169,45.80478761162993,33.820099407142685,26.512207215486306,36.5438337616786,38.165055725649836,32.41673390602012,37.32765641032825,34.06194557176438,15.761900362875085,12.14487621250236,20.13564534823513,15.314687504550886,12.062712602050684,19.546713439854923,15.418831164003052,6.916377169987388,14.814833598740787,18.41160104926662,5.84993597975356,2.3691403170468806,5.857147674944501,-2.99321061534839,-6.270409905045614,4.663201778068219,4.191356212785902,-2.834667117698637,4.722421523882282,7.463380061852024,-4.812794365967345,-5.354199597188142,2.4215702889655124,-3.9835260872881397,-7.383974668184898,2.2771495668397606,0.2638621847206415,-7.071885268587017,3.204791124218775,10.901203491915535,3.2328240572045708,4.557110476933909,9.976441994811752,-1.902075743973513,-11.13016623900436,-5.469440224905408,-7.935026722399814,-12.743056552083276,-0.3636338820886067,6.597765584741532,-4.94832133083739,-9.425117249770853,-7.788642428798549,-17.275941147901165,-18.356140202719978,-3.603069139157427,-1.668043224986059,-9.585856905279428,-5.428095222087828,-6.045315763947391,-20.455921702807622,-23.707474845800476,-20.2121937225933,-29.37686874726177,-31.282269482082192,-16.914504528950403,-13.874959857270525,-19.995853591649798,-14.530917568651951,-13.787432483638332,-25.062156203436697,-22.372724477265596,-12.09932611249885,-18.036819598657594,-22.293250648755343,-13.920111486353722,-16.952082360455357,-25.690584114518774,-19.24912422679896,-18.30386837890774,-33.522907581481206,-37.7486107457714,-33.44715280568265,-40.42931013547884,-39.90568310610732,-24.082865234989796,-20.950750096061302,-26.880823777811685,-19.838457871642177,-16.498870369280127,-24.940575571957456,-19.6471344108678,-7.412483015091876,-12.46729671495275,-17.1250806197681,-9.657276878119458,-12.529111992153933,-19.09578989905947,-8.611787121058715,-2.5743474518111236,-13.0139618941188,-14.509115156840066,-10.661381206590619,-20.942985503772515,-25.024130600054143,-12.935368460924321,-11.054807075556765,-16.262602140742004,-8.53786245717477,-6.224171690206825,-18.12112567421794,-17.718887808114985,-9.026310382925237,-14.30193130085291,-16.420142720935445,-5.744549313114852,-7.1650263117620465,-15.690107352652284,-9.400332452951076,-6.412832800315128,-16.939402464757535,-16.06016301735236,-8.811476273319649,-16.051947560869454,-17.865393520328897,-4.348462198184899,-1.2422511233617248,-3.7682986169748065,7.662223135904869,12.433783129795447,1.4615839756919762,1.4965703747524621,7.712910540711804,-0.6268585988642599,-3.242197846780604,9.662755249498742,11.252478618754726,5.637691494588554,13.412303252631556,14.43841786444832,-0.5352920452653667,-3.0985674499674807,3.680874511780784,-2.27562188060983,-3.578705012937453,8.73181396992907,8.951239915655979,2.2238782143139098,10.43666667862935,14.318010239906261,2.165045652558544,-1.4791886774838927,0.3490785916974788,-10.503994544741065,-13.732259380531179,-0.8952474118324938,0.13146617963341622,-7.743433866502847,-3.5632221902775383,-3.825496919294286,-15.863663803910422,-14.381459473615703,-5.4065274136811095,-10.711593271679803,-11.69922364693299,1.6641317812348841,4.242473554048642,0.20351347791995344,10.225652800135567,15.305838463159656,4.501533466534513,2.662442202653242,6.381366921363429,-3.7988042419498784,-7.960244687143036,3.363906226414877,2.381568124120159,-7.79992247440705,-4.429841022157555,-3.39281293054675,-13.434553796963726,-10.98596679473285,-3.9206553240687483,-14.853580264989006,-22.9915076326769,-14.655671546864124,-13.016869877305712,-13.88162233505476,1.4818462007355873,11.10892872747148,2.927347597411154,2.05483952678522,5.840799985074337,-3.7720747159177686,-6.717965781110187,5.738503646813229,6.114506906039532,-2.4589138991753714,1.646192613913899,2.4053951514789214,-7.230204474791561,-1.9773977586117915,10.863113705840806,7.889045756921241,6.473562788185996,15.616049477961402,11.63188522264285,3.1355467959912873,13.465378342642115,22.6966472927133,17.670324507529564,19.759009184068233,22.434192356101054,7.5835887883370106,-0.22263164523867085,11.68389156598378,15.537629690049581,11.298121979111555,16.610633864593886,13.021842021377058,-4.991437177595811,-7.548817047554453,1.210611858228372,-2.8736355373449256,-4.528782140482984,4.197094260224167,-1.1424812261035986,-11.744552642967905,-1.977296052360507,9.397100425536335,7.7951200234521405,13.30562742753866,18.294413234914813,2.965347197528698,-8.559727620266331,-1.6665115167409992,-1.0215171314796918,-4.152955130790922,7.5791181343124725,13.52846681776354,2.6408055749255643,0.6650891732505255,4.661661523155417,-4.26928295245494,-5.089791647473374,11.625649903190482,16.876248349047685,13.63603535402573,25.091783178922604,35.194577751348874,36.42437389368298,55.102391666401,84.20594985020432,99.5822173655818,119.85605343068876,154.92026245583043,175.9116114135567,182.51997380904527,192.9550681171135,188.88045856605729,164.47922284844728,150.57850576696188,145.2488094012313,126.58586514136542,112.01100435977031,111.23665928497698,99.18404620975423,79.76360046939365,71.68703351853108,53.866665401064736,16.913506920384336,-10.809276129905623,-30.681118522890923,-60.650940095202714,-80.18822191995594,-81.43798066940548,-93.07280978325845,-111.92294312096774,-117.27888799810881,-126.96689792912721,-148.76235378341613,-157.04093346123574,-157.62174508883777,-170.6829349886961,-175.26822517452655,-161.71425565342548,-158.68497213091882,-165.34358951389464,-161.0194020481005,-161.26075257787292,-172.56860456011026,-168.46077164115965,-155.59684821430994,-158.40701505760995,-158.68042219977966,-144.46854333464105,-140.12193127474694,-141.70171299421685,-128.6566788608197,-119.67226802836697,-124.58568712654173,-118.0129131472569,-103.99716673634335,-102.9840566397871,-96.37101582394662,-74.99267691581146,-65.54455938304176,-65.3162197454388,-53.39440742298269,-46.72982255110816,-53.773790982205455,-47.72728017861112,-31.746821360084517,-27.799860663737036,-19.938425197426174,-0.6118924203323441,3.7068129376618795,-1.8853590596571261,6.791355171411524,14.301142389862488,10.452998778567736,17.41805939652657,27.686653190322804,20.06975524881065,16.591835082945323,30.792422214295154,38.28320863280719,41.39536103278725,56.83932575612352,62.378272108516256,49.28077752576549,48.183334332551254,58.132148366809304,57.23333457977432,61.666396737866364,78.93884653792772,82.25776551034667,76.71257358912295,84.68499423656786,87.45792773386883,74.61127267577449,72.4872384408729,78.28968996985813,71.06017098356538,68.13537421087868,78.73148188647514,78.04296530199345,71.00413261491667,78.52108096870548,81.76866195182927,70.93699970930882,71.63724488958695,79.35501346387217,71.94218497058577,66.29134696603266,71.79496879604191,64.7876020100378,51.94320718660093,55.61252808392226,57.89646439056425,49.47087796143779,54.734742763385164,65.78001485247196,58.30207170761045,50.96333053776606,56.55085298493223,53.19325226191654,46.691248449751974,56.30489920963242,60.38014258688628,48.10189761802105,47.204410730750965,54.98887037648365,48.8518176487771,45.863079332813015,56.11664196824494,54.724739071111856,46.42604475150956,52.14882273281499,52.374042285043465,36.71225817959205,31.20611907427122,32.38110735435126,20.08809306088156,13.996029331354858,24.097637817718415,24.1190537885701,18.02129137539533,26.678427755136155,30.765562328967217,20.066162840588106,20.021301495141024,25.355498766989754,14.415660314122874,7.158668264515134,15.121873385356212,12.99366151785522,4.532455162692677,10.817650157412425,13.247923341798874,1.4375152793720742,-0.1614214436128163,2.8363133933416265,-9.937017668202099,-17.31339627937929,-7.344691689063585,-4.4535328001948695,-5.917202907154819,5.842607533787107,10.94195945172664,0.0006329534932607572,-1.147076907359492,4.258285961535657,-3.6374292024123465,-5.860476349246357,7.60006678499779,10.522543137089713,4.9551005948205855,10.207192609006174,8.650129987462943,-7.2392525239135495,-11.406318561126977,-8.742134863072549,-19.947734576803818,-26.235281796746182,-17.753346926645555,-19.08836980207799,-26.141529911748727,-19.798688448611912,-19.1962030818552,-32.45928942477141,-33.32495094199854,-27.365231069790482,-36.04253184801095,-40.42710722063459,-31.500856708368975,-33.94786124653629,-40.39235863217949,-28.914960942271108,-19.26749936515155,-22.80549578228276,-17.637274527296213,-11.528659562273958,-25.077765538533917,-36.51954379536155,-32.47945457588878,-35.189491161335226,-38.78181012880024,-24.61572781590612,-16.209409508476462,-26.859734282852948,-31.652482596170945,-31.946962599382577,-43.09732833194313,-43.564545069706455,-26.12003172525745,-20.277056587337896,-23.8580906578691,-16.15485213822235,-14.395347056152218,-26.748426065986955,-27.801159717149083,-22.712140297778017,-32.43771260453468,-37.49593472372908,-27.3292629157553,-27.272030980501654,-32.80979507523021,-22.871546113903015,-16.851424485026076,-25.97175885304344,-26.27493302161182,-22.95176754298831,-35.962967193140166,-43.79118705398274,-34.12233718942356,-31.498164828329777,-32.44294727958612,-19.04231466300047,-12.595830574639415,-22.653746526618512,-22.69767095169001,-17.16311159440835,-26.466936789533207,-30.44959765089516,-19.163827001021673,-18.806568431949096,-25.049215494784548,-17.04527425297963,-13.800084487416534,-24.76488373306354,-24.15802710817215,-16.98080280498818,-24.944200829486665,-28.953099716122715,-17.753780200877216,-16.081450553395698,-20.265447855360453,-10.303530446399382,-5.287662700232692,-15.134766029334571,-14.635144258176078,-8.081343348452288,-15.8671679854588,-19.402247761964638,-9.310372043273096,-10.39172408922773,-17.241934504270848,-8.798839409821438,-4.214962565810678,-14.315584846410152,-14.796526622708313,-9.27923015854263,-16.29662160102915,-15.842714130670844,0.4869333970758607,3.825408024751686,-3.593618495281939,0.43165015044517574,-0.03278705177444574,-12.428924167230615,-10.561677289713849,-0.44459485939318544,-4.6161780922496884,-4.438131082241079,9.401394037641634,10.390998261651168,3.1569232305489976,9.493252470242007,11.114573279914083,-0.7164793131945686,0.23100699211718556,7.998824433010989,-0.06426279858231254,-4.5580930059590115,5.695670806293206,6.649740810472483,4.0871672188481245,17.175752180381323,23.20666922414937,10.71420810875693,6.509600139557215,9.484514713481316,1.521701414399173,0.2104077322001141,11.849957296489183,9.596280926641482,-0.8213718316284506,3.9733088710863917,7.35114596453172,-0.7624022721096022,2.546459863653648,11.009743555673063,3.8296349349878622,0.6018394336835156,11.899831876347111,12.587377003312394,6.331231515355402,12.846654926458298,13.225557625018578,-0.3788156421931195,0.1423083251314674,10.125925608141063,5.871350791217385,3.8618641860005507,12.718827208627904,8.745724850310879,0.8042231960373019,11.197429352476659,18.66248032721382,11.217722276767196,13.751709909237452,22.175212463349805,15.30895699117701,10.481886905248146,17.17123413947724,12.374740999216822,4.1131598525539,15.004251065833174,24.40707092061392,17.954418605007177,17.37946380470696,18.829857882290103,5.336206612492584,-1.1440252317315562,9.716423132399251,11.382300273597963,6.562148713609174,14.689083519079544,16.970172600649782,4.935861734403677,5.356482436987667,13.494292922980184,6.509544596145046,1.5872085649422631,8.392648740662544,3.5727758591975376,-4.633983173387128,6.278268050964208,14.834119975094204,7.113285553800471,6.833437524556683,11.322807171633135,3.101578273139131,2.688313657928375,18.06757531161691,20.645007051360935,13.820554840318099,20.227474878185106,23.623744132935485,15.126941326535583,18.928060067921,27.960591298217107,18.154679897153596,7.002650728348957,7.126947988120304,-1.6262612563959737,-10.805977861094465,0.26064305033049795,8.193004848560003,-1.813503355537815,-5.202995484530853,-2.4900922070538067,-9.969537904131034,-8.425834233830207,8.471236625303863,11.92465345538302,5.626888939162717,12.128152227532945,15.02477204437323,5.301135771487805,7.14827833461249,15.139987816534166,8.793253200953155,7.354794614678874,20.0500794217349,20.344509524566618,11.767264653269672,15.178306639441429,13.73712962560028,0.22404842000209602,0.16360955014994305,6.797075337860095,-2.197687009774831,-6.306667852425361,8.031937628554495,18.36540789596845,29.448294511960036,59.991588641829345,88.77501888480019,104.32476500181343,129.35910758276862,154.90237586254904,156.8983663846489,155.6356235828957,165.40508792552302,164.1629229828643,155.63390482171113,155.82057169812185,141.99620404126108,106.01623829068004,78.37966522521222,58.83724331378742,28.333316889771627,4.999080578218832,-3.5525792826777742,-24.613046295561624,-53.94278563573633,-68.84664045241198,-85.07154453424755,-109.96461514859459,-117.98283749155905,-115.65346924963117,-126.71132625036833,-134.70600162920095,-130.17179832233535,-137.02479054506477,-149.68388774454354,-146.7443452343047,-146.28547044363245,-158.087547854608,-157.40249414121888,-149.5786351747081,-156.77108021371808,-160.62172468208956,-150.11332778000897,-149.12544446272642,-152.54919370886486,-139.1594359191622,-127.3623945184134,-127.41294734044511,-115.13122815279905,-97.00293406109348,-96.59123347878055,-95.96326452383045,-82.93525826284203,-79.1086615306727,-77.45998673626201,-57.34526754465492,-40.09405243428469,-38.58252914308513,-29.567309781167367,-18.05169207109711,-23.52449762843942,-25.03218436712133,-11.931349918089682,-9.863144453443258,-14.396229841785333,-4.520180117765559,1.2890972565808865,-6.579913266431739,-3.614452292122605,4.849790515758388,-0.7593722138952788,0.44578959704552124,18.54369945331664,26.623409763172234,26.622783162033784,37.8097347864579,42.373912615887505,32.4968547367178,34.8367407284644,44.82875920675675,40.24813813777464,38.72772686394855,49.97711295786032,48.97737528728899,40.593026109049404,46.85723949254812,50.287677626835254,40.69918104477802,42.41750967947968,50.459080718135205,43.28283525203999,39.74117998929182,50.81726526084813,51.75149116893836,47.06706327327646,57.54879518709896,64.03936447471395,56.61750319848554,59.93463753688971,67.84003466551518,59.18304379771638,54.29516146968702,64.15878146962179,63.47806605703211,56.44302252138399,63.252926298643956,64.76004325101196,52.56717537411503,53.23089829380702,60.537775927233554,50.9672466837395,42.85769192984329,48.15190325577203,44.80407374448495,39.41262558194362,51.58797697753912,58.408581503009835,46.54723252517246,41.47267956946009,42.065662552978054,31.238657653397787,28.960917869920017,42.93423904464743,44.8725331671845,38.02515222572988,43.68022199841014,44.45304240478792,32.190160716874836,32.079540793264236,38.0441464557031,29.17795080832485,24.392432194454447,32.11846484987934,27.98045940642023,19.476948378499664,27.040796786155802,29.513184906274642,16.8626899274287,14.760473358963965,18.870433143830866,9.851273743984414,7.250715315642349,18.82622435713037,17.589342543284367,9.009330780544046,14.646563648356684,15.104596978653246,1.0412829642641164,-0.5960214724578501,6.118844346752809,-0.8392200984645353,-4.112480661208892,5.214657012727684,2.75914797861248,-4.689962162584926,4.262578697592265,9.309270219244588,-1.2042645827019651,-2.9700418392816545,0.39515650793680157,-9.519821055746176,-12.403028015207816,0.4134714835732627,1.5073939860224086,-5.992458979543146,-1.9520937449551883,-3.9426435422910027,-18.760922886873452,-19.262865675806133,-10.994348463249896,-17.285614759503144,-20.94473317753311,-12.529528150961903,-16.3797207825455,-25.603219883667485,-18.133850750759493,-13.932689023984032,-24.075873834875786,-23.43430485413301,-16.477540510384838,-23.88614096705087,-26.919376626484894,-16.607387475954827,-18.46318111917134,-27.010736281493216,-20.39977508239287,-16.554856579305827,-25.70437519063744,-24.498332301821637,-18.543412172911964,-28.412719165397668,-34.671942662209176,-25.96155060894852,-25.670154868150043,-29.757638706268786,-19.891223904855806,-15.701167984986617,-26.01805851860082,-25.135701268760442,-17.61223722730885,-24.350524162115008,-27.25555731357733,-16.316677068418457,-15.15507952891285,-19.121550352278785,-9.583982701027576,-7.385553460890231,-22.512068250303933,-27.31023860489217,-22.69610772011241,-27.735767263274553,-24.83759504430463,-7.088594741929114,-2.917395698493755,-9.713763071786088,-5.9193316325643845,-7.356411295740171,-21.177987014320895,-21.388023729837233,-13.098967919262442,-18.065238811779782,-18.400085270997508,-4.813627247794155,-2.539211195084347,-7.4662979186051945,0.2528364994043999,2.8717048437252886,-6.915491963098409,-4.068002530890938,4.294637954496054,-4.261377187855712,-11.124020529933187,-5.125709670189652,-8.450665568976495,-14.966147561259394,-6.090862452855915,-2.9200132026871906,-14.55958206869939,-14.93499207478588,-9.226020703993367,-18.340254046115987,-23.382580350510196,-14.40252934675924,-14.871114413143205,-19.73363848802781,-11.29685199320202,-10.432331826258558,-24.800575878600796,-25.692173988560018,-16.288421880679568,-18.97280407372985,-18.596608117234982,-8.670366808220871,-13.640425496505374,-23.83865075847748,-15.020229060253468,-7.345436231881024,-13.108827514652827,-8.947370438371408,-1.0889086985489116,-9.788999271062481,-13.654006097332482,-1.2494492197871736,1.7612632527994845,-1.5690371203971252,8.205640789848328,11.613172569865732,-0.777122648492047,-2.220283603123754,3.616512300732523,-4.919990259383768,-9.875737007953717,-1.1898207679543074,-3.332930413933263,-10.841944393430413,-2.7279928257930535,1.5853829493795732,-7.822215840951161,-5.975017198787029,1.6231541375497316,-5.261998301688753,-6.977994434469331,5.033106647622873,5.208337976152068,-0.7759256473332505,7.666867177114495,11.79481823010973,2.72149582014131,4.647492436654784,11.049705194091702,1.8646303538940794,-1.8311934316227592,9.945385053010895,11.05439181509649,5.633939228951606,13.211834929214913,14.69367442793828,2.5549411276631733,2.798029627798118,9.14508809223117,0.3401573726525555,-3.9060641689437965,7.29513427339848,9.767493651669437,7.45326255574332,18.705222509162915,22.554093035954907,9.235734529714815,6.401180722155072,11.412446689842957,2.9172607824409145,-1.5256854886255373,7.45056237691287,5.099575477059334,-2.8652029282799774,4.685684140554649,8.084001105521345,-3.031209247318679,-2.8866449027937637,5.030059160163233,0.04634263317794618,-0.9274771215733799,9.631889652944503,6.775012493194077,-2.5109491986122827,4.195549604711764,8.3662782657881,-0.3145652388332021,1.6024612773706393,8.046770116516148,-0.8407255943399115,-5.115781658122268,4.260512858234879,1.8236576722454365,-6.553182221404803,0.9909300677250048,6.0125648516851244,-1.5538839979800638,2.041096340088661,9.996694152059373,0.7572218606038925,-5.505739307388003,2.5100537840384223,0.6403489285357642,-5.331983735532884,5.970326864064308,14.855130341232833,9.331871747761712,12.093630916338837,17.233270394490177,4.9913620634441,-3.3896192410646635,3.5953373410038605,0.918184742480106,-7.8855761932409,-3.0020563220037095,-2.275093730157034,-13.303963248233151,-10.382483597205205,0.34807997001825486,-3.4603382188295386,-4.227852958564251,7.39784535238441,7.444095689532752,1.7622649115556857,11.110554314636625,16.48234146145671,8.665804741164267,13.009681008805211,22.975139326195904,15.324219762288099,8.391402019896885,13.067992058514399,6.362107959420211,-4.280460574634374,2.34497835191178,5.121190995073862,-7.198878920363415,-9.222788267674108,-4.620498211729343,-12.332289349401432,-12.162417519491566,4.587820897066089,9.806077094147192,5.9213679181042025,13.282395573837801,13.957948037194779,0.7323073350754363,1.5446052862311497,11.610895072890829,7.914714318637131,7.494367430283445,19.305245993649265,18.75778823520576,11.916800060385032,20.016396763501753,24.055139846211244,13.834689512215187,13.754911798898206,20.127277638316844,15.071419735198054,19.330291466213925,42.935623949119446,60.79741694208792,76.87080861607465,109.528739583196,138.37208703332075,152.3635349586766,171.87899036238,187.33340910795354,177.4980372278417,163.33314036351436,158.28590277522952,141.7339119570753,120.06332519411743,112.22446331356431,97.62150716359892,66.26038250261061,43.47877760555137,26.10816695332413,-3.975614812414763,-27.020882125756682,-34.206042932239114,-51.496730859370885,-73.96241836706966,-80.11832335040606,-89.01227083917773,-111.89717704894204,-124.71044749700799,-130.7796840286257,-147.5667232810206,-154.57185420352764,-144.73642072273466,-147.85887783766097,-161.22844893074966,-161.8020943085104,-163.42551183681678,-172.9220797225785,-167.89697970566857,-157.3846833390996,-163.25946254977106,-166.0035827487144,-154.44987296652175,-151.15327200402865,-150.52572956193723,-133.74139180633364,-121.31849691662728,-123.44943701410885,-115.18823402085525,-101.4537546763159,-103.07455196939927,-101.1377738336361,-86.18524276728824,-82.77668394204385,-84.05233885110206,-68.41305690716327,-55.99132705717478,-57.57708440817756,-48.048622667144556,-31.67762740282328,-29.392051953928195,-24.457180120803443,-9.315163884568305,-7.677102271623138,-11.01704175605474,3.0248376562380797,13.69935843741167,7.640407113468395,8.106507420497632,13.376615284845508,8.182266318305915,13.034789056333066,33.923952531143755,41.118836084416714,37.31817183943504,44.26062881799178,46.818983926532454,38.630488036190535,44.44732341925937,56.78901922776122,52.71914670344316,50.0734961696467,59.20809182859564,57.89684045237777,53.210294389991546,64.20558644803575,69.13783040633015,58.32258995712879,58.41712462386292,65.32199642043769,58.414651654332104,56.09747832184924,66.74754631923666,65.361419374982,58.916172588175655,68.4063330018596,72.68224150111222,61.58738879513311,61.55681847175977,67.65020360665375,59.455738013194974,57.52965779122567,70.44918710766873,70.80217482678685,63.1344279673098,66.96793646184798,62.71856499973126,44.454409849838555,41.30548341677853,48.88479291892993,45.32655572569513,46.97633364441761,59.53468246236892,56.94210631608803,47.24272858878941,53.80215251982245,58.2891413018842,50.46080944107763,52.77149533617244,57.90138457069299,46.30972379057359,39.42087176627106,47.66149224547708,45.852193870742695,38.32249738422867,44.248574624652505,44.15258212774068,29.874979137472643,27.342978631592082,31.174335774033782,21.162390292044442,16.70141231038347,26.57473623268732,25.798865277930666,20.306731050422968,30.1417267213146,34.312351618913674,22.10537353836098,19.584865587197793,23.96868499603613,16.835239492074823,17.498687354095942,31.562712579856594,29.1158184835971,15.132335505036965,14.470262935563827,12.790050198378696,2.0606699359288005,3.7619326072113393,7.719532266557793,-7.200945660176319,-17.47156377999649,-9.336282610729128,-7.4305832401164675,-9.740490701153018,0.697794138070174,4.785202237626214,-3.5400322730498566,2.025324299937339,13.086507731600536,5.605830012547022,-1.5734763786233243,3.6877959802213907,0.4571248630877216,-4.2239472115246395,7.2660906834880565,11.609494844221723,-1.7545361509879864,-6.204792418845652,-4.993219856609802,-17.366093224248385,-23.87513650278083,-15.811321164213696,-18.210707437449777,-24.536330461019084,-14.323478431021133,-8.853184671806803,-19.289682887163767,-20.85088639192331,-17.679851012352252,-27.605941369274014,-29.62646699838095,-16.7398796005807,-17.19708616820972,-25.455131029444303,-19.60692557210865,-18.179833377022106,-30.364931541395137,-32.538799714717605,-31.26535454803046,-44.77591497380524,-50.38084461186368,-38.330697424023526,-35.52182364509146,-38.425182529784735,-27.36956483943694,-21.03184973697434,-28.304584475511536,-24.912007169986445,-17.21232661970818,-25.69223675946595,-29.70257243811653,-18.96948247856143,-19.177793540231796,-25.275306855673865,-16.63260080360574,-13.086124266248902,-24.153362125065104,-24.402443937513066,-19.327289469329035,-28.88908596072288,-32.1362604994005,-19.346274502240725,-17.103820964142244,-21.303215606181013,-11.78599788872777,-7.753621266564904,-18.034160633838745,-17.303440493563183,-11.39834050966565,-20.661623522794574,-24.369081478401206,-11.837642311279936,-8.230758204193467,-10.450390987080718,-1.386642777379147,-1.1222452779482914,-16.150154186628143,-18.236788319247317,-11.298563619979348,-16.58742885383629,-18.37872762312394,-10.662802423011273,-17.036548585249857,-27.453142799348402,-19.116613063460477,-12.263524141679099,-18.477935018986734,-16.141036916789545,-12.388238005839828,-23.952234454662932,-26.552136393355898,-10.81129156423244,-4.937084620089799,-6.794416737723588,1.372601579071966,1.3782976778404532,-11.279529896154692,-9.369065279371283,-0.17899689912028682,-6.875920664721049,-12.589906279399955,-8.649070188957214,-16.94907785338203,-28.18987822301745,-21.767743304237325,-18.39670416035924,-27.602321136361674,-25.52690513594727,-18.726082039664284,-26.122205856611178,-27.52879915538717,-15.037890645612727,-13.415251745197567,-15.74160297878994,-2.2539375375976407,6.674828717867246,2.087732460438507,8.339747826943269,18.52011537979329,11.792774459711405,6.52291463569061,11.566066563457474,5.1455652438807284,-4.030195176564833,3.257050673616453,4.350180252559294,-11.776843871451652,-19.25108545881468,-19.608586804545705,-28.142563099767,-25.415357683224556,-8.251989954641747,-5.748496327320844,-11.112594243232694,-2.1788607797710733,3.2610435960360675,-2.09236367234085,4.938941547948485,15.0165565354556,7.487956065725189,2.8624894967182586,10.657853257634962,7.575316813084912,0.5081609228075195,8.301207967327711,10.37332575810661,-1.2619167728065506,-0.869247788041144,5.270250761421194,-3.501038577917151,-8.225885760511147,-0.28503421239395177,-2.655903152639363,-7.312778802763571,4.576848244981835,11.144393209594458,3.623009523246732,7.414164899982178,15.957738619068824,8.955554984777546,5.825723087365856,14.520010697356746,10.77181766183691,3.0918146973771172,12.272736702956502,16.71956592379685,6.651721176721292,7.121466452214103,11.210530918194276,-0.4656642111049205,-5.470558288821058,4.982265630298511,4.083196325124626,-2.301877233098235,5.52714334984834,7.592745598572749,-2.325956470443531,2.9843135240330927,15.925054978587863,13.842425607587227,14.92663004302313,26.71296237076347,25.154295668748354,19.362184909565496,30.405205547535456,36.80146866230591,27.853395347938346,26.91460521029549,27.36373943229736,11.682010805913732,2.8288950846630994,9.900237475787092,7.191437580883164,0.3185245023820622,8.412032217466772,11.59641956516317,1.7277542313327392,3.56905132974231,10.692967231085115,3.723457426591139,3.1227179443920847,17.080987632679147,19.591282872138365,15.620734514483907,23.88900284987879,25.270897594575708,13.263549095179966,13.118450652601977,17.957846334417887,8.07474661046641,2.047939526404944,6.076943521670752,-3.431521476799345,-15.808232728524738,-8.792392615027728,-2.560572950823899,-7.345438881042328,-2.244867707633,2.9795833741534663,-8.60528864493837,-11.514239833050524,3.119946955096653,7.703212944029175,6.663403746385979,17.831348135471153,21.30808131437386,11.085347293027525,13.09133842714554,20.381715257951406,13.028748011855159,10.691643360112243,20.257134975762153,15.812304671438014,4.414522759785241,5.925092507306248,1.3749510494357753,-13.841712149769391,-13.00791375964609,-4.499207892658361,-9.586587842211152,-9.981094351187032,-0.41589889578476313,-4.731334605998876,-11.415126170236842,0.4132426524013031,7.998240513296136,0.9197013456280931,2.4705223646342445,5.550546044630044,-6.710068862949242,-10.51726351568455,2.80544077103995,6.728977916642956,6.036415757680019,17.596752636742064,20.185761115772326,8.027276930296164,8.676132127960164,17.157092318926946,15.62403148940322,24.680362432084465,52.186513360584215,74.24584800876742,97.24212542516793,136.16281564298953,165.05748526292797,172.0676476641601,179.26944067401203,179.6039167089031,158.47776525616382,141.7044872450572,139.36220464776582,127.63495781230577,113.2100754388286,111.81022464522177,100.25770649478667,71.8209896157215,52.8345937738354,36.64479074112432,5.392048990999058,-19.033077408456638,-28.77591205887981,-48.091994499206365,-69.53277074729588,-75.69794380493357,-88.04505962308319,-112.82073926876288,-124.34511067479879,-130.04509038599963,-148.90650883772483,-161.28654971241806,-161.2470200112248,-172.29201307721218,-183.82502066042008,-176.0675642366107,-171.15009677723882,-177.622984965277,-172.35795039874301,-165.08385785043868,-173.70385372404183,-174.1189347928502,-158.76085923636015,-154.2280883676538,-153.46022897537364,-137.81667926531446,-127.51298792395619,-128.16536517691156,-115.76074325055302,-100.62791671027486,-102.28587688126706,-98.90892982229164,-82.20761500613281,-75.91590752685094,-73.30083457272511,-58.232436667594456,-51.91737928024362,-59.372944979371624,-54.19821410938624,-43.496958462878176,-45.66235741573034,-40.28192181690828,-21.8150094752732,-16.11011374550541,-15.24045138234091,-0.39203585181742184,7.423040589250977,2.1959803518267584,10.245126796322431,23.458520233874854,20.956624297086133,21.63990989024512,32.00865707140904,29.11710535316758,24.227269535426213,37.96987555761024,48.30121103398633,45.51569049066455,52.24098242457324,60.220809780399655,51.6160179858186,47.93233442609862,56.046593656748904,52.343148119596236,47.04715772540409,59.151095735206596,66.25831116255371,60.095918553791556,63.829813427748846,69.55876852411703,61.25586284860232,60.88747156082985,73.42159309775143,72.48840218712859,65.91344547927514,73.4048893754236,76.20443348208511,68.68421818078046,73.71282919265907,80.23566353274444,68.88960333647766,62.133804957279324,68.42886546487802,64.51145559245819,59.37738372513693,70.5292919016774,74.37728186172885,62.07918428028859,57.975519530925965,56.15145883300784,42.31404160166595,40.288363126293824,54.65676333261604,55.29415992395832,47.22618556322164,50.96360586286963,50.15675683892758,40.968943445112686,46.210380036110756,53.062741191054556,41.339107093456114,34.7922794927485,42.89500530058524,41.28321899457662,36.28660281384553,43.605318145525985,41.93239489010229,27.9475959745363,28.27997654398792,33.31111760082445,23.67655999328956,20.455800812890917,29.19683540176277,24.755553829317094,16.721258964035737,24.469038822049793,26.661547689136835,17.107907456121037,20.872715371363228,28.01047974713669,18.397356185379422,13.216609539668944,19.1214912340782,12.284905783112876,3.5339891535115986,12.404913587135441,16.544916616222835,7.703756886282496,8.87665602790955,11.224653234183924,-1.7032506353418544,-7.174229038719604,0.10150797337222706,-5.215880045274373,-12.76272674843668,-3.1764084337002005,1.0022065832033686,-7.921189738793839,-6.448518523258951,-3.968861344688818,-17.140656884757544,-22.411057062718246,-13.759970964933451,-16.609011902431185,-21.703294744357102,-11.048861968658944,-7.345279109643641,-17.555642255182097,-17.40923911725637,-14.621408039525647,-24.09837031957007,-23.370628979242813,-9.831850184325184,-11.048993069621103,-17.421718149325837,-9.286280984458315,-7.014795805458601,-15.75235560047876,-11.805369035770813,-5.7901878090369,-15.024539780499627,-16.856565071279576,-7.124312815614669,-12.242304989257388,-22.186245775712724,-17.109761875029513,-17.303622691495804,-28.425450851184586,-27.241016243761432,-24.111608478730943,-35.76097089834477,-37.87322080691537,-24.163012326235176,-21.339025465641207,-22.23866978228486,-10.661717501847292,-9.285140418647076,-22.150076009119513,-22.105498393413505,-18.113356801808784,-28.58280394848924,-32.02669688438479,-23.72637632951563,-28.240945328122123,-34.05757419540096,-21.831425590723843,-14.57189775552904,-21.01511837543656,-19.099081117590256,-18.112801857084353,-32.74343392247304,-37.04420271695613,-23.983773805501748,-20.73619172187075,-21.96676671598585,-12.156545532412036,-11.80027487820597,-23.20849834705208,-20.050202534238892,-12.675927218329464,-20.58811812806912,-22.641314936309463,-13.055331834921112,-15.922148744881595,-21.54990412292418,-12.986302993552979,-12.631559143676347,-24.853345871023045,-23.79955154189644,-18.898743915575462,-28.05650537727353,-29.83236099888879,-19.979959497620925,-23.806029857786875,-31.397199001853103,-24.225629028139437,-22.43432274569924,-29.74416232056456,-22.03172993299994,-10.787622092314423,-14.845888760214969,-12.881554954042368,-0.6775982051163059,-3.6040155119231834,-11.560782812208718,-5.708124598325541,-5.988268594719758,-15.204317869639045,-7.9591316205295275,3.7841447056094584,-0.6926318474917159,-1.825613946320316,3.8378514307031835,-7.061035246528169,-20.4990943383797,-15.639117276706099,-13.137133637546764,-18.470087064449988,-9.78569150459303,0.16570756747277704,-6.97344469129513,-9.138078526225312,-1.2685499132626368,-6.488423946275498,-11.93976362149497,1.1218369187136288,9.004230556128224,4.002349507204771,8.416281666913651,11.812335798648002,-1.1691030224941485,-5.67323129613143,4.331637419417023,3.783304155140749,1.7971015241720465,14.686307720690273,19.156018122564234,9.279645213726468,9.13654800152525,9.285439868990029,-5.950603828047805,-12.23854328921363,-3.099012408395466,-3.1045921573941957,-3.69895796697797,10.126326355450798,14.127115992611671,3.610407865927398,5.535483090488791,11.08949521091677,2.0025464549566427,-0.7952222386318439,6.807838928146847,1.1074074466493857,-5.335401235093531,5.917112286063377,11.666819231505714,5.4660377255922015,10.081883588390669,14.593556411436428,2.6095301505250443,-2.676592956036425,4.311480934798851,0.5954996019922416,-2.5575763077737617,10.53283326463483,14.669698723627555,4.02648186283491,4.000477943281879,6.281739156893558,-3.8930510606835345,-3.878583923515891,8.812765777315708,8.11408532269806,4.538825704582028,15.577412073651768,18.951235319324216,10.150028045724907,13.828804719305849,20.401632958558427,13.454906007434438,14.055306397896906,24.447332272433698,19.670194654929546,11.405457184967755,17.30681017865954,15.119035975218727,1.2424354073916808,0.6086755481803832,3.2427069247745606,-5.964567857044649,-4.755327558103731,7.852775370176078,5.744908569494741,0.6227870019251114,9.836012164888636,11.000153567530527,1.1112552261443627,5.126684713312907,11.742036824978666,4.782282217319306,7.388643159246843,21.84398164698903,21.710847667998433,17.929711736717092,27.631111608913844,28.032217288457847,15.889221721450937,15.98597013737528,16.678817973311595,2.2183974637201587,-3.0382022749787954,4.846043779447891,0.6752922921522821,-5.665029897157431,1.35250157243911,0.13223181163115894,-10.366676312916786,-4.324764940217693,6.134775659443684,2.0244344257627844,3.4886847162053884,12.803833146707095,6.74338397998867,-0.10173532792033813,11.502626373328571,18.790867152102376,15.795919461055929,23.179065397510556,26.180860137865388,8.315498612012249,-3.657788964942154,-2.08449617788319,-9.001926584883064,-12.098696871703426,3.085397262012692,9.76740696876412,2.359890663488141,4.764962439886707,5.9812205418599635,-7.56458660074816,-10.504446021893953,-0.4658941909301104,-3.191064990941093,-6.422078158584368,6.183060717394819,10.345202803217376,1.9952858953899342,4.589342457034589,5.905788185143501,-8.069292613692852,-10.800258982908227,1.445505305099548,1.8137012886172441,0.09207226180572803,11.571515102446007,12.188077009954782,-8.533306320333907,-41.420547346098694,-88.84508617547158,-130.31446439182906,-136.06309130446044,-115.46221832561358,-88.81047747356853,-71.45983056916833,-81.53027839913243,-103.96272374743883,-108.2294531697037,-108.15055497219203,-122.56199385143012,-132.36698278427633,-135.35650713703905,-148.4087527184783,-153.583126042615,-139.33517336938684,-134.4327552133127,-140.66561847688766,-133.09859305130936,-126.86795087532502,-138.90377036034542,-142.86117763244343,-132.35976503952833,-130.54800835094048,-126.69560071634278,-107.18259028392107,-96.4156104104112,-96.81379201074512,-83.96544587542033,-70.30964998600732,-71.50312585629766,-64.73596301011838,-48.83194910214459,-47.43302732949759,-45.29467792643672,-24.806161039994443,-9.528649460257794,-4.027926782362797,11.904884239464385,23.450642854323117,17.505084091950202,21.971090238259862,41.04977908540469,49.73834056391634,58.14462597379426,78.1093997571104,84.46365475328733,77.69011648690966,85.420987451518,95.54982859941478,92.10218170205752,98.93331687133937,117.4959132339628,121.91669186999705,123.80659786549714,137.2364935782907,137.6873430763019,125.63447098145136,130.01985732317925,139.95034786271714,137.73485563688104,143.48811116610983,156.6264556867551,152.21642598388962,144.74177503362438,152.56197570858595,154.7847338315385,150.32949833852996,161.53663527748577,172.3570325581683,164.3297712552803,159.7251448289794,162.86446898766687,153.8840383430308,147.61084037225817,158.1041083960144,160.2101241833994,151.63186192275964,156.0263393629636,160.0300824764186,148.00588492016973,142.45469536814426,144.85629753564658,133.24491142110261,123.24261861694873,130.96672754747482,131.92391125867704,121.98577524319568,122.42395772076414,119.15761744705128,99.03873690804053,89.56152634850923,94.47134098324382,88.91606622346374,84.17009875565581,93.57547901001084,92.68831967853009,80.55385558894378,82.02276843260765,83.76099345783985,69.87484147164156,63.41801499701283,65.66551453273729,53.293385129945975,41.15160690253147,45.65871900677722,43.18576673138577,30.39471014739307,29.166961881394265,26.41179875162419,8.997982400948489,2.304325374682477,8.593229624120598,3.1759406094945035,-2.788801467778483,4.426417173893083,1.9446556185226487,-9.976502079535006,-6.557209187829544,-2.006640396392811,-12.405912996124687,-13.917610296728569,-4.992476408456918,-9.27067823463716,-11.936377720370432,2.2596461450950525,7.357132923618065,-0.6733946066096532,-0.3197018706829815,-6.601070906429821,-31.90283300896632,-46.075068011608636,-43.6750277152706,-49.6162090559827,-53.850145143642166,-44.619247098198215,-46.18826253476118,-57.36307708479421,-53.011397148461356,-47.752324431565995,-56.93905984059874,-57.592059703346315,-50.175172121855084,-58.05873068557953,-65.67924691205342,-56.76589100074046,-53.70658890427019,-58.05057709050816,-49.40053990275638,-44.58899046715525,-58.50674197121166,-64.70975838862233,-59.36486531181457,-65.47029345327735,-69.95678845362313,-59.877236598644814,-61.172689328958434,-74.88269637293025,-75.63610611771023,-76.38426292777923,-91.07407905967492,-94.70383839322834,-86.83189351474226,-92.54958349056685,-97.59238849420898,-86.1597881345817,-82.11315271392687,-87.03094306456525,-78.39632888610909,-72.21546020117155,-84.02982659024343,-88.0985752750079,-81.35164771915544,-87.13539089799104,-92.21908253845515,-82.58632089610455,-82.04634149900357,-90.62786353890087,-84.31502830146218,-78.18081869300289,-87.25597063333589,-86.37782414003011,-74.74375225291685,-77.6385542715852,-81.95388077028835,-73.25235015284787,-73.98848933319717,-82.19593321673183,-73.94672637265643,-65.31560040459523,-71.83765875067317,-69.69158439072315,-48.4240597764049,-4.9410378925518526,84.92314236323298,204.37053190724401,287.2295667478053,302.6621421299697,269.87844052671153,213.59946831551338,167.38221392137976,160.90637398792794,167.42083900733743,145.62120016221297,114.72688597579645,101.80280186044533,89.89084368068139,74.26716638552361,67.58111840002697,52.26770520034698,21.932093290250634,6.720272885213031,4.97486266474868,-9.967916841856981,-23.115582901581703,-18.888131063202863,-22.603264163231845,-37.5802958233811,-41.333445779857115,-45.83927859503567,-62.084801261080194,-66.34789669618362,-62.70436821426732,-76.66434423723615,-89.87392447645526,-84.49583078161078,-85.59190846530845,-96.17269424371652,-94.73402463290915,-96.12785621593717,-112.16782940639598,-116.11906660509112,-108.37666038884745,-115.23173629906901,-123.46924740193201,-117.39900747104431,-118.39624127608397,-125.52742424851691,-117.31076082238633,-111.22653876999678,-121.68350429376659,-123.65356794782716,-116.96306682303177,-124.41803992500323,-131.04007213545228,-123.60346034870565,-125.22875033546919,-133.4804858201849,-124.72440527767523,-116.0216598070295,-123.65036180709576,-124.41230241810553,-117.93948944140931,-125.06851094184506,-127.54089929140945,-111.03425329809991,-102.67210387259618,-105.0135853492744,-95.66273303859634,-88.94983929056033,-97.06181587588827,-95.0173242000577,-84.20198290853563,-89.1356234900516,-94.67394563725627,-85.60562225945364,-83.69993025996293,-86.81926237215687,-72.87170496379916,-60.03778528520341,-63.88454034341127,-60.83840648726907,-51.9118648456315,-58.89338355486178,-63.316737995560274,-49.82162377596107,-42.958564675057,-43.8201134032919,-32.791884874947996,-27.804180224723243,-40.69715611049608,-42.69149721352248,-31.937300037600934,-33.451486671852564,-35.23595414778556,-25.088170076382546,-26.279249467020552,-35.40940966348138,-26.76207577976197,-16.31357100083168,-20.704666904745718,-17.201552407996303,-6.0106201973292075,-9.44123365740579,-10.726920801408951,4.331504405319659,10.13912889875861,6.174847368751704,15.597315236023572,22.94346443518474,14.387994618889698,15.147336456238435,26.297646996622323,25.824566951545442,28.458283395457087,44.59204152499809,46.782087464115186,36.0030955005772,38.42410616590413,41.659652148249634,32.94623391158815,34.608803124806954,44.05047866632962,38.59285420976511,34.54644704886356,45.20069814971583,46.17087481249502,38.86796255865208,46.80961901509331,54.44886296901377,48.22581937802826,51.7394385414316,63.23191853377573,60.565105362287746,60.38311729645348,74.62372183934686,77.41030873954708,69.52992071636646,73.73186171656951,75.6904222578374,65.29496801818838,67.61955309130258,79.5379386122748,76.75930470983886,74.25262123673656,84.0559064933365,82.57020584535103,73.47251019598386,79.64193078255806,83.02132063482779,70.22275215598746,66.40040852120227,70.53840268479216,61.887020386012225,58.916572939689786,74.0042639008938,80.17824035297622,76.7734362178869,85.64592553382089,90.70142270621882,78.60328220243579,73.75000592372731,76.67388534412275,67.49835939510119,63.69379655825763,77.04038839327227,80.41123596737566,72.99391435184094,77.00200148989165,78.0962862429848,65.82445683219825,64.85724203336298,72.09632994835803,64.79828904322594,60.028461258027875,69.49482151850404,68.04741862154657,59.26382888867671,66.69625543245681,73.14743137820793,65.348043065398,66.4009305449692,72.74912101730773,62.80824088104892,55.853856770095874,65.73048777618072,67.99152585239582,65.92813622481084,82.21967264405119,97.49444488270836,98.23942134653097,110.3921721356586,132.10589953799465,141.33904327208597,154.58321290827882,180.23281615162946,188.87551950245341,181.6255523069597,183.1629085913733,178.85838862376235,156.77289563677496,141.6847380853291,131.2854353046288,102.20917987508821,71.97220284042135,55.866567130950344,31.406928643805905,2.1032101295761265,-8.283316894650193,-16.76109230492922,-37.69608510460679,-48.6111108889627,-52.78952786720708,-71.63371157630246,-85.84967788865659,-81.3441339143535,-82.34523446196977,-87.90475057622251,-79.59817177649087,-77.34425526221284,-92.43223246566087,-98.35964452717168,-96.09712195238764,-105.95608814493795,-110.78135568562323,-100.12211237535601,-99.08988944862138,-104.8498844767739,-95.55672904530749,-88.33173799249728,-94.90461231945608,-90.98310222520001,-79.49676560864624,-82.30881694547799,-82.7210778774694,-69.71522445040381,-67.9126241427939,-74.33260487766282,-66.29188202331376,-59.34738730772081,-64.57087485128368,-58.11990716352866,-44.246306106572916,-46.66321014309912,-48.554301923882974,-36.67604610947218,-33.9079020308,-36.675441678240254,-24.408915747592232,-16.92467054910997,-26.018365481071378,-24.919436274457965,-14.981440044096605,-17.49828250528375,-16.084457996939964,-1.1588477634196845,2.008392471414475,-2.9384152497587746,6.141534286763617,11.722099132981729,1.984187257889447,1.4519683735562325,7.174721831671781,-2.602359605842545,-9.636395196735943,-0.3943904506955205,2.0921579707246205,0.23334512157131027,12.911843222076115,19.96492665691062,9.340703703387806,6.765570802870496,11.108985759802403,2.9623603673502994,0.5846221676145373,14.448833607532462,19.267258435323463,17.20696364050529,27.665279167337765,31.52873481407419,17.8455073797166,13.058448020684395,15.876466087507701,6.1044056354587015,2.1984424168243457,14.153738791934906,14.319571306697034,5.335683180826346,10.885740642639135,15.085927816259325,6.896852693075628,9.63870784354991,17.61256683317192,8.061880154716096,0.5163962039938843,9.152907606016715,10.564292079384847,7.67668201507345,19.981328666566377,26.898404323140106,15.858923537736043,11.853214989801355,13.00730776313221,1.0212589005809223,-3.661698778641478,9.05385799667771,11.330141871774178,4.981955324646652,11.480091838428987,13.670519938338952,1.969302764962615,2.4202176932388877,10.450911758612072,2.679996438364988,-2.5542630131452353,6.910151480992706,6.167832438639235,-1.0076065414718225,7.211099748566374,11.81887794513182,0.8125222818222069,0.22396757115254573,7.671841878981042,1.034739047050191,-2.5814060342556764,6.864396353300443,3.7075190601236514,-7.6094116713245725,-4.368660296340234,-3.962399314359489,-16.562772786516742,-16.29709874958038,-5.867128814786671,-6.857660926671743,-4.343778811232239,8.33362711798777,5.548226256543395,-6.093170084583301,-1.8082382430503081,2.346478920658193,-5.653626749508172,-4.405848680263153,1.1213570485852342,-8.701077169985517,-14.426597342670318,-4.930747223492857,-4.532522565116008,-9.416650913609734,0.3707801786367977,4.946718295193466,-7.640304397611782,-12.553948211394449,-11.372742527717818,-21.5794295139783,-24.016896620424305,-11.172038825476296,-10.066488678046383,-15.846855520207905,-6.793403130266258,-2.0964636459190142,-13.362698507584527,-16.180948792430154,-13.293240984129941,-22.716111671893337,-24.560065578384325,-10.790229062585137,-9.799746880360605,-17.755757868210978,-11.382296186683867,-7.829100958001155,-17.79936407786328,-17.612088171965638,-12.570170532687394,-22.648065989708833,-27.518872188088636,-16.653323117139635,-15.372552749563273,-19.843893556065936,-10.174362430805273,-5.646087522880238,-16.280586317083667,-16.31557080788066,-8.995251329910722,-14.695812824382227,-15.639744545462085,-3.6030581837480087,-5.175748699979184,-15.44715527635137,-11.21426417735411,-8.852789453642513,-17.32805284168831,-12.829486632857297,-3.142948352826051,-11.447472411407114,-18.734922345260994,-12.687732277918855,-14.68581338048942,-18.15402889100871,-4.399306058508937,3.98530106304381,-5.10618021661246,-6.714828641339232,-4.399470378909331,-16.768018756247226,-22.261735328753055,-9.75696576558556,-5.1443435636409065,-5.9042038572215345,5.449379732744417,7.511845506549916,-8.528801043273063,-13.488957054729713,-9.165985662205333,-17.032507924488126,-19.80166793835724,-8.261303724249332,-8.257786866038806,-15.03990530226847,-6.946932300709404,-2.6406940456854064,-11.724128999408986,-8.93601798343861,0.09704547755518567,-6.852029277967315,-11.815476141088663,-3.9451962259025075,-5.697870954585756,-11.45229801716106,-2.965517072258272,-1.2443236874191692,-14.79105816070097,-16.24632737931299,-9.158659250934036,-13.87227393825802,-12.935141837738023,0.16896630051732764,-0.8770228748230902,-9.054384175267653,-2.2820533482459116,0.4868131558888762,-8.790912883419614,-4.17470622903698,7.5033776326747965,3.530368795255288,1.28584515273894,9.004335104440244,2.787965455465725,-8.533848544452267,-1.7949861266584994,3.0090516456991625,-5.660979270551035,-4.066231373010458,1.3760916696549481,-9.684584406048424,-15.60459280001564,-5.262089604534234,-3.9478671060614343,-6.866581594765134,5.462915445999311,11.856728262427236,2.128166546355185,2.412462642227559,8.54460314355797,0.33583019304301764,-3.275986127352667,6.629529043115473,5.403905617800234,-0.8960455745801017,8.176874283761405,12.830161424432863,2.5318909398864236,0.6880537055773959,2.1311984917686146,-10.650258566041117,-15.638688162914633,-3.1410094584840875,0.778564794003979,-0.9098889933909413,9.007230554996042,10.99012494442409,-1.0277315102465607,0.5136243160314264,10.428021582116488,6.9299366868164265,6.527574038488342,16.30198850023713,12.519189367139505,3.924321370421846,11.811507759380744,15.281578524234966,4.009421779290044,2.4689760563944185,5.788971823260289,-3.8264536198337025,-6.211929467526962,5.12298379901695,3.0900485172297345,-6.189629738259818,-1.6039385855695558,-1.7043573987220997,-13.500535087148362,-11.063004727149941,-0.8760519692642998,-3.175422896811835,0.7845002672461074,16.3344730501114,15.86891062620979,6.488986148505479,11.151433861451777,12.678745730502417,3.0448356081271273,5.4048542012393455,11.766204285580002,3.0214194513387036,1.5311003351873786,16.678435951968115,21.284416981062712,18.410018479037873,26.487490640147307,26.748136174585845,12.80571645815587,10.765522152756278,14.620678370622098,5.254990852712501,2.904849697092389,15.128622914294068,15.959689186748328,10.550963694021908,17.905350919708162,19.29557324837696,8.025671543088649,9.46253909332756,16.76252201093899,9.131952862087969,5.168107192515628,12.626805672162678,7.614718883252842,-1.4316945869167061,6.653624355124455,11.25028139275951,1.1499158200163935,-0.6766723013036293,0.6414156335236412,-11.782759823712972,-15.474510535901345,-1.4228178792230919,3.1069294331938524,1.136200878107106,10.544008385313994,12.085070916968471,-0.05210478544782671,0.6193437250379734,7.5440339937950105,0.6837630859202948,-1.1561126912495392,9.101581864867953,7.545435034708143,1.1899133093014758,8.527692396431691,10.611363354121007,1.4140426263288486,5.192224057295111,13.126676774049269,4.145332779493041,-2.034372895285405,4.088825853827306,0.6228710782486537,-4.1595729388118405,7.033502085470836,10.795569956731555,-1.0550457401918854,-2.0994586485270084,1.2136563800135214,-9.971679675291789,-14.753926550963133,-5.653469486319083,-6.430563731660542,-8.258496192996216,7.160523473121458,16.574941421423034,9.837236462862535,10.156664528106315,10.622586502056727,-4.939583533668272,-12.35152463294185,-2.0110733868000237,1.2503251588098883,2.7503253411690727,18.092983763181117,23.939757594195328,13.874620701055928,16.947332526747147,28.99782361672941,32.58778768494594,49.751176387455864,87.15114474637527,116.0612791856176,138.8742317042892,169.26777525621304,182.52239206617526,171.56557999877367,165.0051882892899,158.71475403976237,135.36180227981055,116.74409509145121,111.63314655501632,96.11744549472628,76.75628372527915,70.44753496798202,55.46953224488131,25.40973266885945,6.493192061793787,-8.282613457197616,-37.22212792817332,-58.38818666128546,-64.34738385923647,-80.7557463437448,-100.26953011722631,-103.8396734668554,-111.6754526361553,-129.3330792958113,-131.72023893836302,-129.73213555115035,-145.36458783632077,-157.05051720534365,-154.29015406747232,-158.9349682900266,-162.83390198046237,-149.88364373997783,-144.499347974507,-154.5749457303583,-153.091163037236,-145.84751135614474,-150.97385600562592,-148.4934285047446,-134.1678021231647,-133.41646866794278,-135.6423418026504,-121.09570105505786,-111.8860021783963,-115.40343174469382,-107.53652776308763,-97.24884949775726,-102.01560624311591,-99.12577003370296,-82.5284393447229,-77.52305959359089,-74.71938920546536,-55.8362427197211,-43.94070950683215,-47.02836866623234,-40.93750806377,-32.87349536364446,-37.66830910678605,-31.302604136785376,-8.735222099461023,0.8983630361226931,2.367453235477168,13.554855409167455,15.936511141302006,6.97777746019854,13.505047962253494,25.75166126120287,22.86649571143552,24.769495929263968,36.848892936766504,33.946373532495365,26.385415746076283,35.708039239252294,42.90623841707902,41.808242385451464,54.4190498652302,66.92776685712558,57.73467644012608,50.29440288325182,55.11553463014266,49.898788368681856,43.89434249400672,54.18775024988565,57.66235456032774,48.426315780557815,52.03024829920747,58.64623558570394,49.11230662050178,45.54864019419873,55.114656862633396,53.94596008203162,50.6496726969809,61.64112749919618,64.98876897099376,56.330256514017364,61.344094990468776,70.23408240955695,62.64615929167289,58.14343057462559,63.673175688985765,57.83706059497237,51.95915152446261,63.70202984538723,68.78219195763036,59.113947217388095,59.45293656326053,61.596954732849866,48.7154726042293,43.22633477504948,50.31838742016652,45.123597400301534,38.06788492899638,48.03488102710995,52.48208486449426,43.468002613522344,44.19262765276336,45.9190502236871,32.45765354977766,27.39019946318067,36.93847672873105,35.048296639442356,29.911080478284852,39.870193435373,43.49963338623638,34.166969454695646,34.98588371789332,36.23025873936761,22.088091839546205,17.014834473502365,26.91040334377498,25.4451494951479,20.198373973584008,28.059992665533272,28.254852261122892,17.484135659079314,21.29943826921758,28.682042923865325,19.580773113322067,15.193639779993251,21.724803415033527,15.616191999580249,8.098211395717342,18.643114333874824,25.409688257206103,21.208100223947234,28.346098751687233,34.7183094292773,21.112733446753015,10.942865784051753,12.959804764012631,5.508661401325878,-0.4717972727495676,11.44309230977325,16.992160645710086,9.348094921796838,11.698491564395848,13.319582994010487,-2.1448110756372243,-10.228683351752961,-4.365388471866315,-8.487223483908842,-12.527629522914093,-0.5086687712580069,3.7287171695641703,-4.800964942416893,-1.3395645124130158,3.389666198347597,-8.326178976600977,-13.713622650222415,-6.929444245778323,-11.902695091199922,-17.970469687941502,-7.398060348417493,-3.219542160791482,-11.928659640678074,-10.068825891755367,-8.408507672664923,-24.398080371008266,-34.16330190688129,-29.30264671455401,-31.477544599902004,-31.096453766912706,-14.328403543829596,-7.122422259511643,-16.293833009382322,-16.860254840194973,-16.750864004481038,-30.216164194875336,-33.27293545599734,-22.1797492140512,-22.455966661110075,-24.193228891272373,-12.452858599064784,-11.051360596531806,-23.092565227271844,-23.098317311714467,-22.38985619673622,-37.46940157840856,-43.12325854340561,-33.294910415021924,-33.16662343601122,-33.58312019967418,-19.70705739189605,-16.197602980859045,-27.192218538624378,-26.49512250027474,-24.286338970215944,-37.10189613649119,-39.92237828281182,-25.966492294335083,-21.042673214165085,-19.40488705004693,-8.469080729155763,-11.154715862483652,-28.302148498743897,-30.961935467149154,-27.270222217459455,-34.10776423826811,-30.422459918042684,-14.564105781526154,-14.023077888518898,-19.725305139812644,-14.378749650451256,-17.655470754981323,-29.1180269981249,-22.847508077924015,-13.27920628670142,-20.658052245001116,-22.791714990516702,-14.431993901769955,-18.61125490076842,-24.496298908831264,-16.07589120799285,-15.05337383659279,-23.549506134261918,-16.182354726357076,-5.258310335181367,-10.952728247623385,-13.596029216810612,-9.259025310928942,-18.979814777880726,-27.73353037459773,-17.563707058680055,-12.074008157517673,-16.955535531251353,-10.877390820608962,-7.509336438384597,-22.80399800954989,-30.723875701932826,-24.336973412941447,-26.468718714777406,-25.90322193899832,-8.627102407487218,-2.120898832173013,-12.07413214132907,-11.046322034336166,-6.427358188518246,-13.477489875495177,-10.404458665184924,4.092909444302105,3.601448468450995,-0.4655120220815323,9.359998844978852,9.735802710039083,-3.813178385475763,-5.939894049392875,-5.321165822317571,-15.578184231985471,-13.610174169947932,0.5972906289299775,-0.8445742833964878,-6.585861744056196,2.115084355164308,4.456949266948974,-2.660979793729672,3.982695912569972,10.176167887768434,-2.4962302718728298,-8.191227695068818,0.916562952336168,0.2635627621770831,-1.2790823915262144,10.443260263946286,10.782964595259898,-2.382111669886412,-1.0924329448393557,4.18847246597403,-4.181098930591089,-4.045407470080928,7.715670353382136,6.2510176237233,1.7639741721944897,9.322843953079207,7.376137675583141,-3.9484046999566202,1.3655563490769143,9.743380885666399,1.5894057507559722,-1.4211122937008067,5.823127589183711,2.5434379298901497,2.082556598983299,18.191709242768297,24.083010775864892,14.604696494190526,14.279574989035783,14.118529636625823,1.1535497792878369,-1.0265570741374042,9.712089267758396,8.057111651105789,4.126676024108454,13.177410335111801,13.646015652670654,3.9949541107847244,8.490304952883138,14.960350482247769,6.697493482998541,5.583378137645102,14.3575281331069,9.958802517758654,5.428804237690901,16.723398900073917,19.784924913888325,11.045479454046646,14.77065671843458,18.658974960525825,6.329808139300222,1.5916902916293572,8.734654556550325,5.830651874205507,6.501956984698705,24.157964157129495,30.98494755654857,21.550474930792436,20.184546264621243,17.15518350375433,-0.3829067457766273,-7.001957770494638,1.1756185407196407,-0.07423050911576867,0.10079343663916701,14.2672490412104,15.310533083112942,0.17765366398538518,-2.456125887299957,0.7438947095155082,-4.548954338504683,0.986345623586983,14.10443602717069,7.5929348635297265,-4.237923378379324,-0.1077775099100613,1.1482095879230867,-3.914033477730404,4.28961075288986,11.172159539899978,2.4550040321832087,2.9530651542827875,15.411237008895844,15.393686112943598,13.800441545917575,24.49825538703389,24.078079334455975,11.004885981822284,10.340713054564118,11.291290730539146,-0.021801418755514668,-0.781894340996405,8.033638180542328,-0.1537139513957957,-11.210557410558033,-5.183974233116953,-1.6776024393191444,-3.138460888796571,9.537968510763093,18.383229304527948,6.798984318678422,0.6397488397708542,5.870033804516604,2.0663054483428067,2.080989485528441,17.39262180041434,21.253257707626766,11.825629566393395,14.835835035993949,18.726328919817153,8.912093391215992,8.229502895337255,16.25077725607002,8.324264818885315,-0.4320347332615966,6.595067642726853,5.501064879682563,-5.639606017234851,-2.4425689641793102,2.2978823537011777,-7.083893220386029,-7.770291837475875,1.6305681102270428,-2.6208906866153145,-6.694576850256782,4.91262894632024,7.631512231647633,-1.4624527046998246,1.3775404492763772,3.914540794541141,-7.413088498486443,-8.558617114867818,0.9143985947753941,-2.8189581592332162,-5.305104774780787,8.592539472872122,15.623691602011384,15.042471281285131,29.636608346996187,45.877836533637264,52.06335864075868,74.05990923633735,111.15834352526277,135.55902337061116,155.1047383720324,178.15939824742497,179.34801470758458,161.4355605664532,152.01449116116666,139.7171713043648,112.2694825197112,94.31497413163713,85.57617125846484,61.61846851007029,35.78009612835293,21.950524391740828,-1.6887616497932978,-32.04857143701147,-43.99061029205029,-52.630139490660724,-74.46220411289866,-87.86466089102484,-92.8432698108243,-111.14671285230455,-127.0068817894507,-126.87946347489927,-136.159781039844,-154.75947801373417,-157.33777338141152,-156.74058695141542,-166.05273530037982,-162.19479518037534,-148.43674276581928,-150.35626525348692,-152.99429931154634,-142.06430900887523,-141.11474280050976,-148.26290655199674,-138.85614084286993,-127.93553389314408,-130.37932925076342,-123.48733661098154,-108.5002109328404,-107.99777765229042,-105.62009931020778,-87.23965386113694,-77.79990039739168,-78.54655728188946,-67.12318062942597,-57.651693864824466,-63.26717631106739,-59.915733131419884,-47.08398996953287,-47.33519598672371,-46.08753012865063,-29.82026649771866,-22.721521454864604,-24.96860775924399,-13.63926187723952,-3.9325946002336187,-10.53418308721782,-9.025966169714408,2.6943591522529653,2.9040168497768577,6.185215779313576,24.793446236688432,31.603653656051137,25.084618877898762,30.535001154179625,35.36542390732326,25.4241287919317,24.212148067046638,31.774622075097717,25.710436692382707,23.22602452341799,40.02074900502376,50.18743647897059,49.63410758422633,58.7837677709329,62.97165697787444,50.75600822380777,49.4383911528944,60.713727882967035,60.941983565965856,63.44046790443646,79.79276540992245,83.50019954973878,73.80076098443803,74.77316876283051,73.23649606558602,57.586608051049055,53.81528768162387,61.838145232497844,57.99099749444996,57.06144047236688,70.97351466163028,72.97181240830288,62.8965517089602,65.36626555680398,67.2709110593158,56.16702591967291,55.31725421662089,62.30838713009953,53.908346765475386,46.830372279182185,55.57212284072043,55.60450007830116,46.3204403160454,49.7455519267818,51.21046608249263,39.11918999805277,38.17730362388656,46.18313015885494,39.129394954507276,32.97211787848675,42.18034161593531,42.84196375407226,34.7064465098347,39.282351474680254,40.84742227667042,27.808671707896682,26.279605106243025,33.88241591614628,24.513891416776957,14.088004869517192,19.722814168829085,20.481924071697357,17.928550845165987,31.5451647908567,39.825488168297674,27.365559690989343,21.209300936035234,22.283698401550016,8.252684763134187,-2.7326455029663292,5.388480354797256,8.872250153709167,6.503227360507608,16.38025395856515,18.9914147745542,2.490950970232901,-3.408561365683134,3.5050162817464474,-1.8035612883967511,-7.299947000577912,-0.25282923482049746,-2.2168257512683978,-9.642615765871364,-0.6198495017689796,5.505287176076541,-7.0151627502125,-12.703863810945563,-8.937525938803415,-15.854608813524864,-18.322328851378042,-6.007088189359189,-4.907607805281847,-13.158261420527271,-6.600119040185808,-0.5432862433647585,-8.800213591685973,-9.027182004039462,-3.773020306426139,-14.198649620209254,-21.616928318265813,-11.58003732459914,-8.366994205057802,-12.32600897995143,-4.2012829039985595,-2.1050534732422213,-17.692126315980094,-23.91099889298605,-19.85751992230204,-26.348134441121346,-27.792480763551357,-14.499676640259727,-12.587864610569108,-19.724446500585664,-13.513104565855347,-10.896227188930824,-23.29725272702415,-24.613609518079503,-16.433508586314346,-21.627878906970476,-24.482776442640066,-13.564061461824444,-13.161317331293768,-20.19181137820809,-12.968878604562814,-10.16205002860603,-24.53091225487088,-29.14335199906168,-23.206300060431488,-28.349904187007276,-29.66582776620929,-17.267698523625608,-15.880570086244163,-21.6908342805263,-13.066940678837504,-9.093589004126546,-22.36390342710509,-26.981862989157648,-23.179484689659684,-30.818377930649824,-32.904126209604286,-19.918664824440434,-18.077261728730992,-23.705633775720145,-13.496945412520112,-5.786791607554112,-14.327688616856049,-14.57424856443388,-8.43152072690363,-16.47824879649224,-19.423858276253288,-5.964067883168116,-4.009915356455967,-11.716809591367875,-4.893508041711359,0.6306753299521466,-7.460840547074307,-5.803934114342917,1.74548208522112,-6.437437447282134,-11.762709457333944,-2.081338064885122,-2.878158284953761,-12.15498636875511,-7.5455252265051085,-4.863697048522264,-15.400544349395991,-15.635923398289371,-9.058703291453876,-16.86893453518918,-20.936805138150802,-9.358104859632181,-7.2611437877853096,-12.553055952880374,-3.8653425868562183,0.7635466685843311,-10.701480763860005,-12.50788762042883,-6.1357904882326455,-12.956557435080697,-15.8701359264043,-4.145543738992024,-3.55469007289689,-10.994070089473716,-3.211482062895307,2.451522412578775,-7.130649933214345,-7.885802409851451,-2.254873505928935,-11.090865249596249,-16.06047115137256,-5.90154595032337,-6.064907513121351,-13.60095280722707,-6.723420189931504,-2.5970459537056936,-11.803045039623658,-9.6559585423832,-0.22829654391786702,-5.682698378840506,-8.9294403524913,0.26431341874795145,-2.964991784484082,-13.686243582212525,-8.388236160237074,-4.185479444255929,-12.505018204906811,-8.945119113110511,1.7931979045467101,-2.9974354655247386,-5.232199829545863,5.912068455982233,4.690246905033819,-4.936108434603579,0.40802059280574143,4.707771506944516,-2.901046297004653,0.25994473797831175,7.934466011491297,-1.6941158836667638,-8.51402827637165,0.6483902344971284,2.2155113929831307,-0.9945183501219326,9.540660495148739,14.384196766775151,3.2218002460338533,1.2685428534086716,5.493108764576391,-3.933813339434109,-7.891622480583931,3.702697692073812,3.9682624432424336,-4.267839625017588,1.053972705641148,3.462125907191102,-5.836832551862759,-2.1902958740759395,7.849947479236739,1.4346188589785864,-2.482937516646569,8.038853506808605,8.27242678924934,1.278353871773776,7.868318215801461,10.66340190034022,0.9891700937939651,4.587769572914919,15.02108799288757,7.642053827476465,-0.04869417202412274,5.111556862010267,2.1981063219305628,-2.771328192620617,10.00171482635639,18.527151105874978,9.041465753868763,7.2372590089930835,12.825593888775177,6.542698454110496,5.462691339256212,17.89131368612302,17.546631048146637,9.283975967068823,16.875195595718157,23.03495081316907,14.917755169060097,14.745251564599549,18.781034696576057,8.478864772887786,3.682339334077623,13.909024318470907,12.343877656113886,2.1991201105759943,5.6825974602558285,6.800158494720402,-3.6678356358367448,-2.569122659275036,3.6015208027648997,-5.720867718429902,-9.991742523806089,2.351043022493159,6.036580097518522,3.273853103769696,12.863262917520556,15.89079433922165,3.124677558925163,0.9055530940087928,5.554357400404933,-4.2454064651809125,-9.915901555581865,-1.2509619180124059,-3.7817535281032786,-12.75019309591452,-6.27275018517586,-2.5994914651072247,-11.266513825643617,-7.225031212050477,2.7837153688221554,-4.243243337191335,-8.87443039760942,0.2234300810895089,-1.2235787442920691,-6.9096220609356065,4.956441233702757,13.64638448438061,6.6004899846308245,7.894661433179141,12.803026570531841,1.1609177702266988,-6.372253846923358,0.9513888335035396,-2.7794199814618104,-12.877412382075077,-7.761089553992484,-6.009589415969942,-17.377108029441946,-17.54833551349937,-12.051047507806137,-19.962123873717342,-20.248382502599576,-3.133620604501435,5.3285893914802,7.810426629862459,21.896492688582896,27.609399682371514,16.641993034437718,15.74297961837591,21.30032515945015,13.171752838724714,10.000023139448393,22.37575320244754,28.61760469758186,36.60299810770338,66.49348836077453,95.4240692125959,109.21659752596472,130.3947445898474,153.02835082257786,155.81178882604704,156.76541945200583,164.3509406157895,154.83055370003825,137.23693467216646,134.1147928396717,124.51762335253946,96.98437202941162,76.71437604950728,60.56260191472258,31.147782377958567,8.52797668734815,-0.5226281568357407,-22.24489826175038,-48.786784423923415,-57.320290952111705,-67.30867214768624,-89.73049179158733,-101.38330191973198,-107.63386025280307,-125.69464932518278,-133.6995085024466,-124.52880363066816,-127.07353565576622,-137.05657440307218,-132.655775224112,-131.07346245622136,-140.44188218064198,-136.97857752642685,-128.60691388388915,-136.160256680249,-138.28551830255628,-123.9564011427158,-117.74507925205214,-115.29160893600364,-98.66905574505287,-88.41081169547361,-92.93257899584734,-86.57406283129518,-74.83925287631672,-78.1264219767339,-77.08007086616965,-62.09454681956045,-57.16773936844571,-56.77096243172967,-42.855516413848314,-36.80372958136395,-46.54764892875629,-44.23583213021336,-33.623224107075586,-34.7351986299844,-30.029158723149223,-13.391563806873805,-10.053872909848497,-12.115546245912364,1.4239300940463977,10.359666706121002,5.055494135276393,9.833439330812945,19.06570835483354,14.196698696328728,15.935345868785236,31.744153430500457,34.21305133359455,28.134485506803827,33.995181063467335,34.64917229078738,24.892184336788695,30.828997407537138,44.080693478374634,41.033947502547875,39.103108454103946,47.052532331691935,42.443223299814534,34.607273523477815,44.04684077346591,48.84525879636181,39.26164299999213,40.62426604276758,46.84919731288477,38.86646280459909,37.75752478069152,51.195252725891166,52.579952831608814,47.81730329682348,55.775467554037775,55.61794115396035,41.48221305544103,41.89192405123179,50.50655631969755,45.23022113845237,43.55849623698042,52.303027712585894,48.45263563357779,43.022679809510095,57.20307137252585,67.78008803562288,62.75494046572236,64.91166139263956,67.31761908610886,53.11478397315695,46.17741168825346,55.31386806480157,54.10302056294191,47.42361726815568,52.575320604967786,48.57443590364264,29.40579931288672,22.91561820494228,23.8696107422209,12.987007094606511,10.059974540246989,21.651806435585577,21.520577028825894,16.61273621537986,26.77337862642189,31.47459375082479,22.266521755006373,23.43437850762556,27.548812151555975,15.605436944700866,9.247954056115947,16.970930642354674,13.480574590831338,5.548207769251388,13.108449525844321,16.61038945613089,7.917543213933012,10.086560467876465,14.136963136818872,0.8456852485102946,-6.62880951830433,2.300055437095878,2.9275406605810654,-0.36173816322877816,7.743508594668529,5.359233565322851,-11.707587292195935,-14.087256628979874,-7.967482172382912,-14.055097518056115,-14.57588615984396,-4.9151859254026355,-9.21780863699053,-16.274315639428004,-5.614489871667834,0.24069658924545273,-7.510937142268867,-4.583801177693856,0.4669163212066134,-10.955107843892922,-16.492269777833794,-8.783012102883971,-12.357145374638398,-17.765757445184917,-5.56705633141015,2.857018547778037,-0.7023891010425674,5.415277599761506,10.711232537813736,-3.172056664322917,-13.42009641458286,-10.042522987680176,-14.733626610995703,-20.087776840815057,-10.519702914665828,-8.141916554923233,-19.261861172841254,-19.208016143621293,-15.79004704796374,-26.096784386955836,-28.069356983605687,-15.104636173431526,-12.517302514150302,-14.055515237349292,-3.8981309156319965,-3.6459610117375187,-17.465996044507918,-17.096138368847168,-9.165237126875498,-13.355174768711382,-11.497770319373032,-1.081580456348028,-8.31054467378474,-20.96087703275488,-15.929503707322693,-13.370135233090899,-21.56150153127084,-18.19474813298594,-13.210646247227928,-24.477955064419028,-28.84442469465434,-19.477928596140032,-22.271319442243477,-28.523190956455338,-18.76313360563364,-14.812232722718065,-24.550525387335906,-23.224555274923645,-18.060431573685175,-26.373832951621132,-26.490169550879333,-13.21158306744745,-13.715791884127812,-20.088382264247674,-12.004681273560141,-9.03832033341096,-17.343904165560865,-12.882465335815638,-5.577603793879998,-14.612766711320928,-18.45823837296211,-10.457611648489863,-14.730123987502726,-21.802294869082747,-12.718388120217426,-7.992873331580347,-13.846462394776218,-7.88279632993669,-1.7281647999037522,-13.45267248424149,-18.995432341845692,-10.558219779752314,-11.958479901734632,-14.081867022394427,-1.0662983271423254,3.0437677383094037,-7.439432533088972,-6.5926835965338135,-3.099737936650662,-14.502955790313537,-18.394539958012427,-9.049549814142308,-12.31462661924326,-19.58131904989652,-11.887931073014732,-10.123822453549842,-20.008182197953875,-16.561340296342323,-9.613242572380008,-18.56251586366449,-21.96361292867326,-13.187455593179337,-15.234936247224104,-17.548133191493275,-3.249829377436828,3.6472157318531586,-4.405647881222324,-3.243998207688293,-0.6111885649278161,-12.713466148631934,-17.03137820957958,-7.040487669831184,-6.905919097838344,-8.237801615408916,4.496377746956472,7.502194163941199,-5.02198416708316,-6.945888770174044,-5.165619652907289,-15.408036625286302,-15.497132039814208,-1.1931351440902294,1.111458464000412,-0.06507363097132413,12.321243525108114,15.797906374460478,6.161380787553958,10.054300297499077,17.53802738882052,9.316314830656273,7.03066277665382,16.42016805291413,13.359619610376964,7.531056353495299,15.456007603688978,14.818990538312342,1.559777614909656,1.9664019315088002,7.580858864025945,0.08579387393609572,-1.1584620996789188,7.235398359605322,1.9683586437119103,-3.618128804278691,9.432898238228827,16.561418540006496,9.644334523061408,11.92732394903953,14.144735081153625,2.48545159576262,2.4317792532931204,17.128268322506177,17.310444637077588,11.099768508658528,17.589990925575844,17.50365895143725,7.6817372525104215,11.666769524598887,16.663820840765744,4.263753648642092,-1.570978612597955,6.881096180545029,6.1271481409899,4.076623748325262,15.203384994132405,16.52945072882764,3.8000529376165963,3.234030631620632,6.940218778878664,-1.737585769453907,-1.4097220754833915,11.761063536265926,11.885528931566963,7.3526318345644714,14.358006308625892,11.202401915541024,-4.764059874514489,-5.956564080377545,-0.19526328472657317,-4.639795416933093,0.23900974223638105,14.939834073013223,12.422303251271135,4.248892691635389,10.753604323964229,11.549472445692745,2.3780071212673928,6.9739622064007385,13.459600070761697,4.303996715426322,2.533696476971666,12.45749170768847,8.883248461479264,2.939326004038749,13.224864550506407,17.7284622096789,10.564998419223448,13.949437440881926,15.98181113423221,0.5554182712565057,-7.678405261638137,-2.341061718549332,-6.516107775413212,-9.740221224058645,3.207534698324922,7.944891569919621,-1.0993602115029137,0.07625776963049713,1.7073430925346387,-10.552972737715328,-12.09487960834405,1.0522410544230496,3.1013403903246863,3.4248309460109763,17.289704886947963,20.74445375431213,8.967132563513548,7.485444212732025,7.827811197534112,-5.359960206644097,-8.885198243639344,1.3892035115949275,-0.885472819312104,-7.420167158544412,-1.590876488509834,-3.962923349915477,-16.13621378189692,-11.865867116175776,-2.60462549907065,-8.097730839944585,-8.512034929431334,-0.5751871573136493,-6.986285867667812,-13.448487721530572,-1.5836086539055048,4.488337960610505,-1.2188024927900543,4.0645575813785655,7.724425347525955,-6.414553502274168,-12.48946853869259,-4.176234950744297,-5.997729770663813,-8.167705468612082,3.9193668640014883,6.037775260566879,-4.665508528986074,-1.9282542343503155,3.8001805474670514,-4.135739494089795,-3.393161688529869,9.807242965304567,12.294856445101352,16.124473164540973,37.837853011712504,55.198400375289694,64.87713183248347,89.9019364688926,115.39238429771642,120.46567078903496,126.05008622479947,136.70198865166577,129.74850981462913,117.29875145714269,114.70268628717366,98.48112553053642,68.17156063165659,52.51654098250211,40.558480823144244,12.618646942109905,-10.650781217123443,-23.376355580085495,-43.863468117006995,-56.69953134144638,-48.23300631965513,-48.4383109153469,-65.62785582143452,-74.5613646999106,-82.26938764460995,-101.78422337319876,-110.12383575021133,-105.12364388867829,-111.49684027660926,-116.90875719700455,-104.52269448275504,-98.68195698404341,-104.69723857283158,-98.69150832381413,-91.73165324854929,-99.44165273473837,-97.9118617500466,-83.31902878705844,-80.85234189635003,-79.90771627367307,-63.77540431512645,-54.719058264659864,-56.537646068877116,-46.374387366610534,-37.6629898129869,-47.11607759346889,-49.69377435267958,-39.43291956780741,-39.75339445131016,-40.53610145879051,-28.195565169274836,-26.536940688785485,-36.45855547219223,-31.115295335134498,-22.102925427510385,-26.65411512700391,-22.919741271998088,-9.073659150994478,-9.183631869352018,-10.000968686169408,4.840884111910697,11.82851542946163,7.687746316727356,15.802655301075676,23.56036066952182,15.603458340415058,15.933648847645726,27.605118298893036,26.685897520568922,25.27106166584382,38.017235257324586,40.33237816469543,28.97202674197017,28.65022872894154,29.678247205244517,19.465974152376546,21.780324966738057,36.32897535750883,34.964798303298586,28.001829492451442,33.07846050161629,31.65837112732768,25.286426159181694,37.93938041773174,52.212331999860154,46.19847952235105,41.020217675212535,42.28791126925127,31.71534005672982,27.008824065887453,44.63773428465526,55.638782753730084,50.587495663675085,51.37613350565998,47.32497951229132,26.93410920985319,19.467246459363448,29.976675468751882,31.468216941047917,31.830355531536636,42.735609102181584,39.540124210893666,23.281278584198404,23.64876787320241,31.09514026367338,27.991717580204398,32.47175230066506,42.30708937577564,33.42843568082715,23.671587354399776,33.05364110471233,37.10954363154894,29.95983203818593,32.79452674028351,31.989781250988884,14.35378997537278,7.718310591706887,16.595134581407883,15.335372193435948,14.035503033502426,26.710678958403577,28.417418282880213,16.25946977450729,15.930358105051837,16.530982696318738,2.789294113640163,-1.5805126388810855,6.760605244594448,4.34699375683101,2.931787432971095,16.068411747448035,18.624322806721498,8.684404950478593,12.039304542519865,16.163812156664736,4.344739652711823,-0.2707442939791305,5.064393073698427,-1.9717196794426295,-6.547418750835394,5.418452962610616,6.470605949327323,-6.605114915118108,-7.353379112512649,-5.815808742344338,-16.696535199958877,-18.537319556131056,-11.09434622315088,-16.788096637730504,-19.884035278193714,-4.92352353327156,1.378220125148587,-6.395332441287044,-4.783342128742779,-3.7190454004263644,-14.808856271098298,-14.300535555243862,-3.530050142578748,-8.48643222705791,-14.867609580419334,-5.218914327327276,-2.485225296355588,-9.626443828956257,-4.5554951063029465,-1.5486494498763128,-15.473243508963755,-21.478618327642778,-16.520186325282694,-22.93793479236087,-26.174564290609034,-11.268357819098236,-3.8805729886260147,-8.54194448756482,-3.454200855437673,-1.3754712456638067,-14.63688170016516,-17.51467607918829,-8.605146594037642,-12.739637347172312,-17.204108276276777,-7.0226456821648355,-5.269256964069287,-12.833990832673084,-6.370424617546316,-0.7697269794964698,-11.741288899745745,-14.401385126101918,-5.9400233752894245,-10.144006569386358,-14.47456347183578,-5.410344944466917,-7.66137849323743,-21.71430375318213,-21.25600403732086,-17.764280646013397,-26.4783941095783,-25.91156793961256,-16.70334130654257,-22.635748094968218,-28.75264065052427,-18.568866247403847,-14.438147545293884,-18.12898403927955,-8.966058727753433,-2.8387579578815405,-13.582148588068549,-15.077683337922105,-4.9163634792592275,-6.790285833729418,-8.174595845495615,3.510264999402472,4.237760336872536,-4.705274853975477,1.376326734500167,6.997967046561862,-4.252876070686983,-8.920601555127998,-4.874368602628909,-13.013343560168162,-17.747209821130987,-6.001517194478236,-4.159948820310948,-14.65556079696406,-13.8732187117859,-13.215769110838357,-24.3078285600802,-23.384650983612588,-11.817756672255129,-14.661181845409363,-17.749002245589196,-5.584892539063324,-1.5274033002013545,-7.102189178746687,-0.4086463779582101,3.320965394645376,-9.812082111333773,-13.653558137255423,-5.232547254612832,-7.432376200163867,-7.432415306899761,6.127032637705053,6.3577940394723225,-7.196713096943471,-7.485874217511568,-5.435062619289158,-15.624715142121671,-16.967837020292137,-10.930963071977597,-19.830845386139735,-25.558560558577955,-10.527033375821436,0.36993074107263135,1.6860838641269509,12.209563964947986,16.215651146639242,1.2945903249026518,-4.4145230422458095,3.031484010708801,0.2738702174100194,-1.1512695137058995,9.655081731310839,8.145136664573291,-3.2986791114768126,1.193284243975874,6.853157951988394,-2.4265208904485744,-4.224283727767433,1.436583582812824,-6.709631970500126,-11.035707198200054,2.393810409799954,6.603647937615202,-0.5849377655269126,3.456000373376856,4.292273575354203,-9.723340031772167,-10.951168080599269,1.8085547897846164,3.2444378760582646,5.357921802957755,19.583864059731713,19.564183798002567,5.525659726834506,4.331706270593701,4.310395654450777,-7.9660709076500495,-8.98787480590106,-0.22036404056379366,-6.135843733043525,-10.944633378472611,1.4119898955538286,7.560554335917312,5.717713868914908,15.730984754715523,20.048079643939094,5.021102183343343,-1.8440133137273524,3.0435651022590715,-1.801526973770235,-2.230431710187157,12.543887448050828,15.238116989624455,5.63193774335098,8.968306384198339,11.971882736248762,1.3113799342141785,1.1803381612108785,10.751303420190101,6.033134842120777,1.8346806701314693,11.697903969620056,10.903101484367898,-0.07142880900417037,3.2158385597947725,6.939518423170964,-2.612411113578963,-2.4632092444939486,5.72183387414907,-1.8049699742883858,-9.275172312824042,-0.7748816651620416,1.9079128086334014,-0.9149465499250613,10.923463630787182,19.04540010279107,8.466812742583247,5.510575895924451,14.302600767987938,13.49314222965451,15.106210706727035,27.958078751978118,25.356525291628394,10.244003655238975,10.53518182767519,12.570645006376099,1.202692713590169,-0.8847730491640147,4.943314754276457,-3.6925212703999946,-9.74840629304042,0.7215031338745801,2.250500510402387,-5.940857266095794,-1.2135063840394849,1.7872128194802372,-9.343148085305847,-9.241871653698528,2.0277797805353437,0.8472122353251068,1.1602745217543542,14.932906707684104,16.9870962898809,7.763980961204981,10.229283770000283,10.215893758599655,-3.041281527450071,-4.6894981313110105,2.245111250852218,-6.868940955109711,-16.436279109969743,-11.592512571151964,-13.283687936655575,-17.988783348212518,-4.528658276153363,6.70483134651419,-1.0999157504109132,-4.525220832772894,-2.5161668782074655,-12.568693277012027,-14.580655824643467,3.759707197518746,13.702577877400671,11.571187251548466,18.11130769138296,19.63625340262833,6.231000749191566,3.7099686620134023,10.488650390912227,2.1073912321078865,-6.07763402529214,0.7785577250084694,-0.14277323750177184,-7.445890161513281,0.7990164925725685,6.988283413731564,-3.3069065821011563,-5.78608090049641,-0.2169520154722968,-6.806183292093817,-8.263644731741332,7.169623156648635,12.381970439556401,5.8034205091182915,9.110999190697392,9.616340146661571,-0.7571433964380523,3.301931778727291,17.345626449347538,15.047868922064076,10.441088741086222,17.67197254077237,16.107585944726864,9.541985236903383,19.780701609949016,28.90030464313279,24.088535884956396,32.179321533025146,53.645330343887636,65.89577978877708,84.50658827118318,120.56683669116782,145.9340867293108,157.93326668962885,175.33759220990518,180.13460274161733,162.1007707743161,149.97589027955144,144.2294733657895,123.0847044959897,102.55786131966588,93.54133851815554,71.81828579668266,41.009083022940345,23.242881825247167,2.4045325783534324,-31.215585225024974,-51.743084405603206,-61.15610238567718,-81.04088557370926,-95.1988227933606,-93.46390888044539,-102.0002070213757,-119.40575905405444,-123.32761308483563,-128.48377456024983,-144.2959414325678,-145.68839232266308,-137.3455082740918,-144.48357221387926,-151.78583399864337,-146.6920844032918,-151.3850816895982,-160.67016839146825,-152.30271875901843,-145.43543217173482,-153.09796681970698,-149.7933094879716,-136.99752470321425,-136.86234003929076,-133.6937454241979,-117.22785332600603,-112.58799098239129,-115.41340630162811,-101.09288345657943,-86.60342076568472,-86.08516957131715,-76.4896015606702,-60.774822133370165,-61.140382190723756,-59.48289403173209,-42.36536374912565,-34.9745419720454,-36.49636306997669,-25.55430013313027,-18.182530824454382,-24.005773778853406,-17.087014021576667,-1.829633763929332,-3.443492951899051,-6.236207306835599,3.1419195052382016,4.345984197575566,3.0219556448500944,18.36967225084336,28.821089561058592,21.54898430743848,21.797463574601263,28.29639022226815,22.108658388389358,22.459014737623463,39.95669057147873,47.033488981362275,44.2999704426919,52.66140284807262,55.074486183556246,42.21584746443175,41.332467308009925,49.810876081102336,44.734058680854375,43.406017031020816,57.906966114772324,61.73018172018958,54.902105562753476,59.473429505537005,61.16595410500871,51.474804029832306,55.86978324467786,68.73336181157299,64.52701510407364,59.270347754065114,66.1082588340964,63.146728372994794,54.70745592320779,61.9503320060654,66.53116954656593,56.753316148182584,57.614627865808835,66.13740135763022,60.248987115936956,56.87133613814666,66.2514189254916,62.64636074461564,50.35097132775285,54.143085126965374,58.12277047305521,49.47002479663995,50.32249228249269,55.77847042071913,44.52124421239398,37.135204776851566,47.216896608891716,48.64478598936835,42.2540110056939,48.74133218289719,50.37838092111783,36.457919215820034,33.23247904012621,38.82216283990058,31.86573690202068,29.912214662779256,43.16486815485874,44.26332825640087,35.14279770671611,38.53226929178968,38.498680793924876,25.08770585005957,23.24615895957465,28.700513045978134,19.415256542156335,13.756850192315632,22.700267676668634,20.260918594625853,9.419866788842317,12.50163373239183,13.20998883863821,1.875972657116924,2.7958987338455126,9.494889462178595,-0.9980247019937893,-7.70925292288006,4.052636348821742,9.275170327070361,8.02207506002883,17.433784417545905,17.404261686950868,-0.6639117699538071,-6.814598262822204,-2.050404649920146,-8.991414127896915,-11.35335568278084,0.17514294359222937,-0.9263947215346837,-10.85023332643855,-6.782391398917179,-5.317458255274969,-15.543314969162694,-12.07134458499507,-1.0639343341415821,-6.977558898082455,-12.446429678755228,-5.321966754419931,-8.442131976391094,-15.798717426982417,-5.457890616048966,1.9475100651234891,-7.4975483462963135,-9.64630851082941,-6.957078281237582,-18.794695694906842,-25.415925320686686,-16.125884063800537,-17.18305693055451,-25.15946220503102,-18.31821312487919,-14.791886989080938,-25.55388793925688,-26.559893633606336,-22.074595085975588,-31.34701796040306,-33.767879693788295,-19.363701417608908,-15.614977227374276,-20.410051705283365,-13.442203492467517,-12.508365416213328,-26.123604049612773,-27.42755376270489,-19.79897339926675,-24.92992380270247,-25.961667587561536,-14.373187841291085,-16.71593653131287,-29.038051217228627,-28.283254872518345,-30.38964089166729,-44.234367985881484,-43.79342475604752,-32.940541150423556,-33.6811956008795,-29.88108521653563,-15.116267040732694,-16.777686631774873,-28.311440474025467,-24.33788783399901,-21.05327615788228,-28.904751013435217,-24.83517358346996,-15.257673602975904,-21.552863322035137,-24.886619507468538,-15.036464046553412,-16.000664364699002,-22.08623909595549,-12.428705388980994,-7.039924938815505,-17.845190913961794,-20.7256121690477,-18.20747884683159,-27.435693893631544,-28.602716270676215,-14.338444002773052,-11.849176025129402,-15.552930754619036,-3.4035857537077097,4.932865281883353,-2.3377918535100735,-2.653533566538035,-2.019546009203014,-18.259249366727236,-26.898024097103068,-15.685854588988914,-12.182377068967702,-15.039067632221752,-6.192291051213274,-5.789131754681458,-20.58136547358072,-20.85131237940415,-10.988999837142927,-14.711103751817118,-16.04724923702031,-7.135430827967438,-12.106695446019177,-22.20993328543361,-13.268660209422158,-4.090822997125113,-7.564899325876701,-2.300485284558235,4.823087003765741,-6.713912330482452,-14.978471914074667,-6.600697621707717,-5.93741024785532,-10.314846051459881,-1.9321291496172286,-1.2176998762524018,-16.132319780168324,-17.9033105759666,-10.00017418438475,-15.326399302562113,-17.624053385753683,-7.673293509287552,-8.670702750359824,-13.526515234593882,-1.1875235312390586,7.85183540330285,1.8459023521882547,4.984578881268928,12.976740199164858,5.861557564192487,2.6130349297427076,12.65915918584224,11.822992402977246,6.419451978654477,16.483706261847253,21.32843319170528,10.848562363711725,10.119438967704586,14.256231557577687,3.956382884244178,0.13037647528407248,12.421493689365828,14.202238756386713,9.74936114901287,18.616774076013773,19.328999198652276,3.0068795887726747,-0.8890722055227693,5.135657809121039,0.0959976419643147,1.0525501621303353,13.316221840681639,9.47552401116459,-1.8212639541803641,4.453914393378055,9.222510123861053,0.49625040024075684,1.2899108082524358,5.993256755666642,-3.9165871809520754,-6.852178085276428,5.90485629064441,6.956149898388169,1.2248803795538699,10.022509644436498,14.00732043072862,3.6351383121184186,4.324391014660508,10.518452373373355,1.7710990753372768,-1.4888803711848082,9.80775092779243,9.175323885216091,1.866032313170121,8.505426732718433,10.350903025272492,-0.38040639524788844,1.6816428131224215,10.108100822108268,3.2288120022418174,-1.1624389004596198,5.797424148247208,0.8086004383430527,-9.056628023418066,-3.6241832847228608,-2.150397876353599,-11.961533078661386,-7.613157178508091,2.5954029907684655,-3.476233239032611,-5.491013159508713,6.376998847949074,7.848628708921514,5.6806529373822485,18.048162342272583,21.78959035462238,8.531325331284656,7.428207466965123,15.681259631434957,13.302228233064524,17.191056804834773,31.36884986044189,27.19676946730526,12.37418024017086,13.190599941291246,14.445445192853098,6.915599271522678,11.163418102228341,15.412804661430638,-1.5718876982325085,-13.970699823967223,-5.68619588053171,0.05687158973227285,4.404428108103274,19.748403547945422,21.663063406744232,3.042090118815672,-4.55340784776359,-0.6439235141587984,-3.6773371824185634,1.5754982879544348,17.635216685159747,16.837250898737512,6.28144707318042,9.228803159959044,10.373883064056532,2.989468493195631,9.022880146929689,17.973525123129566,8.766330679282873,3.308506371436846,12.99847991162605,14.666598416596766,13.843021553541698,26.6928103298568,30.48453962298612,19.232084522344746,23.404090922918588,38.844206937609215,43.773597364562356,56.53459707432724,85.3130984338404,105.21113438551433,122.82794112615358,154.81560877486137,173.94871250221323,167.3574347093388,162.47356456001071,158.62765990806218,140.3393881408195,128.88371132776376,131.3348147132056,120.4975907195808,101.30916374059956,92.68235268560346,74.27162822900145,38.79617333649135,13.528340086678812,-5.093397095628575,-34.01304813348623,-52.969721747705705,-56.488995880218056,-71.95473282620011,-93.1395670670454,-99.74753399673325,-110.86112825267077,-133.80907606741178,-144.18021837149303,-149.7656865158097,-169.45431590951657,-180.5435626165046,-173.5731929298186,-174.6729483636741,-178.78760558312493,-167.77316175206056,-163.11246059826553,-171.95983093121782,-167.36212100696312,-156.44675067391992,-160.40755669858333,-159.92773870143296,-147.37603897979176,-146.78285654729055,-148.66381996781337,-131.49636066716232,-116.74859996681423,-116.01284634201576,-107.55864226525526,-98.93024108333428,-106.55751806994027,-105.78810886999402,-87.58096620657031,-78.70756510259726,-74.48787120155752,-57.50873575771108,-48.15704573980337,-52.14183452729021,-43.62828685167214,-30.76744027694925,-33.392180236196495,-30.46989139090099,-14.433417037627631,-10.874367202868921,-12.045168979294514,2.67048093944236,13.414955071412647,12.5739597099899,23.882068837453254,37.12761623164836,31.293530303419047,28.43361600888156,38.079662476669355,36.52450423513244,33.1584975921641,48.06672566442819,59.05101786964187,57.22162411611142,65.3399376044419,72.36244193398501,59.48409725153696,52.32612550921573,61.87280341209899,63.61661490355476,63.20145617096565,75.69121167976982,77.61668653231705,63.41736593389622,61.81670261429552,67.37638470624266,60.929589053407156,61.663834175965235,75.29955777818101,76.7800856012193,74.21868707487312,86.05856641508103,89.70082704138474,76.57124731969321,72.7328724260691,73.45196931121289,61.73549844803849,58.3627092888117,68.990376520988,67.11234097660241,60.66470909846956,70.00991765367861,74.38579254267452,65.10105050444845,65.76114316476401,69.07975125546335,57.9848621582008,54.23074529644332,64.01924389995384,62.00687536479394,56.02397948672363,63.741430268244336,64.09245128197877,51.490699354128,50.51661728588937,53.102641486274614,42.344722148609364,38.57334199906495,45.81060795493261,39.41411771142067,29.5533832909634,35.59973127553597,36.51560579929152,25.595101997936712,26.850930476357515,31.280992185280695,21.463896590989762,19.981173868137322,31.98070047013655,30.158935505689513,23.02228552126502,30.956801913419536,33.65562339530804,24.382175047546944,26.714740364906422,29.839676469336986,14.278821945284303,4.106153404048454,9.781469901347457,7.57187014791905,4.100615934605315,15.492156115607223,18.53954841945618,5.639310947085807,2.8255934569301417,4.653300575509264,-5.303454407999819,-6.112383042935031,6.1172135384516935,3.72199554433737,-5.708420469694349,-2.2203100200538906,-3.5362109267847774,-13.496671642611744,-9.306147546190788,-2.906520720024833,-13.16283875194556,-18.18965352666441,-11.383440615253098,-16.16143473851468,-23.28803186820448,-15.207761356979479,-12.628505003475585,-20.876359577277636,-16.81610648513477,-11.422936763471323,-22.75159922554048,-27.423164168308695,-18.37379967919837,-20.80794608765808,-26.65275455247764,-18.539615408881403,-17.812215234801407,-28.84548441270353,-26.260468558692608,-20.897936658722607,-32.53746359683012,-39.13588147652605,-33.484744597612554,-38.61360707408519,-44.10439921898557,-32.73695197382595,-27.590298655605686,-34.77779055029294,-30.70977180818058,-26.46402884100512,-39.70745012844721,-46.724465185848764,-40.27935862306815,-43.49704821202241,-45.42593670401553,-28.60317881425943,-17.399695622909157,-19.83928936499417,-12.955270165414634,-7.358880150360875,-20.363467206373667,-27.97166242968288,-22.584643138353005,-27.86352097085793,-34.378626797369165,-25.11978550800854,-22.967744648104837,-33.83237947516318,-32.364879695563836,-27.53476470919383,-37.34247213815564,-39.70259608159627,-29.19675358662208,-31.007671270955534,-34.54561550306667,-20.97842548521806,-13.891104748456542,-20.893695538512834,-17.618755904900944,-13.14172455341902,-24.238812455818074,-27.4644282185675,-16.76665667506107,-17.54641711847667,-21.422349408440635,-11.516039537193548,-9.152305904692323,-18.114532085633254,-14.091704415984546,-8.711830764392582,-19.82510735419726,-24.281516347732985,-15.857271997628795,-17.65467547417599,-19.730467510596164,-7.594512082995322,-5.743535168102706,-17.473500520457684,-14.552278485635394,-6.0558406840565935,-11.891975448761805,-13.319301983722013,-7.493876323798519,-16.850604195396464,-25.846622286992563,-14.210789975308124,-5.86491080216256,-9.561645511635119,-4.174591489351643,-0.053145334059605975,-11.120731718221942,-12.46621418101578,-0.16636575546693866,-0.48925030276409176,-3.5225471421366445,7.55666182471737,9.083051438414472,-3.87862870536161,-4.9337781797499325,-1.9296687113680298,-9.623199070813179,-5.394194518809012,10.48159587733253,7.272689205733504,-5.091094811154209,-4.163183494348274,-6.633044118136922,-15.076962563428198,-7.328256572234498,1.646038710770541,-7.880545222409996,-12.117338091518686,-3.8438312120627334,-5.8702281881113505,-7.123069594827658,7.956024027167006,14.156778956098314,5.791952819793797,7.948871820364477,11.209193188824976,0.6424372788250929,0.6947605959586585,14.364365385040701,14.069197784875772,10.149899152689965,20.863760648482533,23.529170203937806,13.212079016037453,14.089941469012826,14.5289437817335,-2.203173537906795,-10.531322446718116,-3.8262847527341104,-7.343628725601447,-11.539352278619612,-0.2860976386019525,2.973789757483667,-5.105201588678723,1.0908654957787385,9.436093384844082,1.6151744761163536,0.27746241998096666,9.711636225829913,6.504872213138384,3.641306056974445,17.933403106120878,24.44847146451061,18.089189891634412,23.439463061112665,28.397205938634848,15.679781035373646,9.655819809209792,15.166550275202649,7.855500381048719,0.2711546614167788,9.529058477195644,11.540280836749009,2.2116370921041364,6.286440443327022,11.487614297152707,-0.3380187867754749,-6.221917738992719,-0.6809379870673031,-6.1096316771507775,-9.230446906045973,7.046070341018889,17.04766905093655,12.568364520617756,15.792422578156561,16.7276520691747,2.5101816823228127,0.173464348397802,14.038628660144553,