-9.588951854770963,-36.635508762084115,-34.90191964779185,-34.28251160087768,-63.759038603018496,-69.99647893387622,-53.02319165176782,-68.15158846883624,-87.73104589853997,-78.51028995749544,-88.04268831371893,-115.80581743045138,-110.71372718816451,-103.90627728099966,-128.05423578401144,-131.58602099061898,-112.10073932284104,-122.62422522712966,-136.2933592245268,-121.65055938420493,-127.27941038671815,-152.11095201983045,-142.49552067577756,-127.64405582145957,-142.0121881786475,-137.79561854330373,-114.18679802457942,-121.4016214701779,-124.31878758288721,-80.5845786738308,-34.96271708688117,3.4743281545511664,68.72873886946469,113.71721944636764,99.19538793347343,84.75507306539343,90.16228570019052,75.15008900436074,66.291520767198,87.69833004267635,85.58984058164492,59.417369619238926,64.49216680726929,75.46807029289964,58.8124842683427,59.52331913362748,77.15128769605681,61.424259017534894,42.39888238209261,53.91026657992301,48.47081002097259,24.4329203769503,31.557203478402123,40.59965701351572,19.72571231002187,18.500353152307053,38.510697315055374,27.6513292998692,12.875416109223465,25.565339459455377,16.998346681302174,-12.928800557671673,-10.819669808000146,-4.53062920572183,-27.650071046299015,-31.73970117559385,-14.513478836831142,-26.29810842585868,-36.80146948511272,-12.517440928661575,-4.965644830960854,-19.3618630119129,-5.126560415129721,10.03283730431987,-5.609026375302536,-1.3124190107114346,25.94956311444513,23.35372096764972,17.103634836247746,38.65999346729541,37.41446016722503,10.498484916721287,11.097622780745592,13.633910395538262,-12.262277770834519,-15.797279653376028,4.000878544008973,-7.676268282977807,-23.39086483830933,-7.949155031862066,-7.787854317866931,-23.440031590172484,-4.984277951779568,13.719743189207485,-3.9341115874413806,-6.3946832917474365,13.072108347521983,4.80878930254402,-3.772561620227861,17.74323559647002,18.152954049949486,-3.2613839901335684,8.341301740668749,24.26220079934577,8.299860376732966,8.113603563413612,25.88906097556796,10.675694612387291,-6.479031574396316,9.608809555876139,8.553913062051326,-12.881759644656935,-1.4640627883196835,14.363614385091928,-0.5981717626431671,3.2153242502772827,28.34430028611456,20.215513401659212,6.089917428703912,20.74074184583239,15.121986018158424,-12.455647207808152,-6.900643768827298,4.826390105301501,-13.316264451514202,-14.834765470195729,1.3142944204650915,-17.80346862895086,-41.84731868986449,-32.22395898745853,-35.9939051974071,-57.74097704244559,-47.4244084092545,-34.72837988418271,-54.643919786996136,-56.781041623018545,-36.396145574118265,-45.887660016652475,-57.84239596762252,-37.70009612411114,-34.44403459156503,-51.491477515215465,-35.63615883610508,-11.740595898015968,-11.579753791542105,11.340309165907192,53.127689984642345,54.174196557877465,38.42519644025144,44.061489793638465,31.96265339203139,5.061983485734995,14.37114280390893,28.533622832352325,10.968168581250016,10.298621236768458,31.037713992090275,21.053890601014153,5.90118827977721,19.151703792514816,14.560895430779645,-8.453274956461266,2.9375253976662883,20.66059026369115,8.81780483670085,13.949694961250577,39.020380993922466,32.17200417497264,19.4516313885581,34.64435668559816,30.88253321242862,6.06461183823206,13.035375913978104,25.410754334552745,8.257016984651171,8.112931441434988,27.270322424914074,13.291424472843076,-6.307069830831154,4.905217123253924,1.0318598822647997,-21.333363414553727,-11.143827674391797,4.462855182346011,-9.487872941103486,-6.295800560450264,17.098486478934323,8.653283401972061,-5.069030054642411,11.52722174080337,12.48846015760014,-5.9422673751377335,6.50642550105572,22.743711332348298,9.557067051116718,15.558264327337021,42.786852759878684,35.03814739356137,15.030851266238875,17.709687101074575,0.3480449345504528,-34.403208526170346,-30.68155861614482,-16.58379484343935,-31.87729573661727,-31.945927335130698,-12.227927867258462,-22.897524359999004,-35.84101236479322,-15.769288593381168,-12.233673975287624,-31.68276792109134,-22.819301488433574,-11.499002725889987,-30.85423380055277,-30.308847037235832,-3.8362326506663367,-4.34188984206116,-8.013085266809103,16.959020081535186,20.457662815224328,-0.9735944556193505,7.775916930715822,21.600097236195914,5.124380869711402,6.330265756867907,28.838152023481424,18.776863383790023,2.972190220001502,18.14206062661814,16.021772399341305,-8.046679541696902,-0.07598251794925126,13.848634409237466,-2.7528063571428216,-1.5470560558894997,22.4636696994467,15.504595163891505,3.0132236421592973,20.786826863266292,20.697544285185028,-2.187512390323171,5.228571605506613,16.32721716744383,-5.663688171315304,-11.877223237701912,4.928691553951251,-5.884768832940124,-16.634626255015064,7.567031054795587,14.75746213457225,-3.419403982795423,5.198068683740406,16.073543449366074,-13.736074921029926,-65.62579053078204,-146.55864283561095,-254.78215329386146,-309.81835787185184,-281.649795018581,-225.02575218568606,-169.03920942291916,-138.70764705798447,-159.15398278867684,-171.86813562760912,-104.56787591714058,26.758049221201638,161.01611863706754,249.72719918975938,269.6900732467684,221.61322254813211,148.63784329923106,130.53453311920157,171.13306314733703,182.74580547153823,150.15999833279733,131.7030639462696,118.12860007118817,92.10736749923947,99.20792424098673,123.66454569754777,103.10577842643806,75.86550781860998,89.81841598295051,91.77579110327707,66.77026732051962,69.15397773919793,79.3252799063281,59.6226260403936,52.3770846194039,63.647977443874176,45.481638859714636,24.748158433757112,35.68937676950818,30.14451992508438,3.445376459356332,9.071908203341213,22.24676692820675,6.834990408176913,9.611710074211892,35.65036803045391,31.496897756922145,20.53959300814707,37.16894297932685,32.979446824540105,1.5950040710507203,-2.6553717480479055,-0.11516429479635737,-22.564708620210286,-21.82880310821377,4.664461364867472,-1.1657079600102467,-17.957027423796248,-8.658512799483665,-16.98528529929539,-46.099027595017155,-42.67218676225308,-32.3988778784806,-52.304138346313465,-54.01810393810102,-29.56799676158096,-32.62560285618794,-42.058978021685775,-23.690460917694146,-24.000526133603323,-46.438005129576126,-35.84727894731215,-17.81396721547288,-32.5903958410158,-36.03539717350605,-20.86267129460422,-35.86210747929926,-54.28332677702463,-40.15473794204114,-41.80857493755196,-67.1745178040246,-64.32304299870498,-56.159904794022125,-76.13426432811264,-75.20078387332974,-47.45187337442023,-47.90833460810546,-55.34249804468845,-35.90939055988238,-36.38102435656322,-60.33733566749836,-53.05509056458216,-38.83830204041115,-54.315315978350974,-52.54780482236552,-28.049299984472565,-34.82893375860231,-48.96784383130211,-33.215259716508285,-33.05512810903162,-53.71814385358902,-42.96555485730022,-27.323217916500063,-45.28696793523068,-49.657763603692054,-31.74354044755836,-41.69753076114795,-53.6299698856283,-31.381643611583918,-23.99583559951195,-40.07554637666644,-27.830319616710263,-11.03922673736023,-24.926324026171073,-22.004936795255674,3.0714846354269767,-3.6081796222725533,-17.26436720746201,0.13874744553949014,2.456170336425752,-17.671706062850127,-9.499379331884317,1.5307996142296942,-19.695604341331354,-22.931615829405693,-0.19416068025518562,-6.51929570905019,-20.379782294009576,-4.521737609093492,-2.855388199362153,-19.645437779963434,-2.8700404816395126,18.584897382734557,3.05855553065061,-2.2875564126284074,13.665760328290101,1.0372123515418235,-16.1052904216401,-2.33881913591925,-5.8169491586267785,-32.02225641266786,-24.689146044497683,-6.883623312901448,-17.800871586541398,-13.495683032027207,10.695675697404692,2.0753997706341494,-12.086415412192746,8.429201411270023,15.81272295111222,-3.3973757046718056,-1.874169831328794,-0.9744480059054685,-29.57575550776519,-33.22799188343779,-2.960914049765039,1.3510853772704277,-6.129150188601997,9.26425499584511,5.766031950771661,-19.294775629545388,-12.813624566743547,-0.15228467889023367,-19.033355436968375,-21.31267063574023,2.765146889609273,0.8133474836664556,-5.954331479195736,17.55791194634409,24.45324112577123,7.458802444338896,20.374349585426014,41.504249621301,34.37803612211909,44.71915537447259,77.90293048070346,79.00365868105888,71.99687073537153,97.30222064210017,110.8147697258339,103.75346410333096,125.07659025769286,148.73016573039266,138.01126505590975,141.74457313455073,168.7508188795067,164.9037982150292,151.17501308334735,164.2572055153151,159.25848187215996,130.01831531276645,129.92349637641098,135.8330511257603,109.60766390668604,97.22456624648233,107.7630613364776,89.28611119361526,64.70629128363186,71.48769642873322,62.599494594312034,28.92181772326837,23.513660535563027,24.189899997884925,-6.66920194617969,-22.462926584010557,-13.730544457697492,-32.96618028404475,-58.18046976268628,-51.48677243456606,-58.30679144864741,-87.66479546885058,-87.23532938726046,-79.29162524167343,-103.37912698995493,-115.7240043008344,-106.05801090826975,-124.14065766943422,-147.63590066380257,-138.93258752509286,-142.7128938614256,-168.16088867214626,-162.4657571869223,-144.80006003836763,-153.0830580392357,-146.69600118584026,-120.02149842940338,-125.16594216076187,-139.04107692137373,-120.84303604604642,-112.96251488283765,-126.8459145932311,-115.01679345027516,-100.18907398227202,-118.28336823527606,-121.7772407867312,-99.34284390009172,-103.32361742451369,-115.35689159613983,-99.37646250787357,-98.56894748176154,-120.68779647383516,-113.28278063001682,-97.13248402110507,-111.27907882283512,-112.8605871930326,-91.80202860467728,-98.31433176673777,-111.16558442293513,-92.7293011246527,-86.63456851812927,-101.87064239313396,-86.9624858679552,-62.66413458949647,-67.31970710232342,-58.80587893350075,-28.699035062188866,-27.45334584023017,-32.82895783691762,-6.60479698603497,6.3336511260896335,-5.519030291236662,8.041878318641974,27.74609203417957,18.93123666053033,26.805371827188324,59.31233278797651,61.91517144176846,52.02601919142291,66.6526629916075,64.83623230726506,40.19590991725322,44.85379913993668,57.76275988014791,41.722640976860546,41.183079660903346,64.54133112538952,59.03641660141,44.66077847100914,57.57659163968762,53.95301809516778,28.30533342616762,34.39550801198468,49.43446254584964,35.43170873140134,37.40362306027116,61.67298075749905,54.89521313526812,41.32348158546033,59.655378590345165,63.75589779976053,45.1100047864054,54.13303516234371,64.68860103846696,40.441058446496385,32.15237436936248,47.78895092167797,29.29168874100607,-4.981773416125012,-21.103152297396328,-68.68042927991453,-149.01415084190376,-177.4316881418826,-129.03153428742937,-22.709657941309803,145.98101536015247,304.68773491166024,334.9474674215589,263.63390519870313,208.28411488643002,206.60494787700173,263.54183437541326,376.8452713045073,462.1247915311642,467.0468834938645,464.74719928543766,487.7894928367002,487.2880876330918,481.74540231669147,505.6589383746649,517.5090633874839,517.5488149306827,553.9531114288786,587.6372277189282,574.2797075777205,565.4671391142599,572.2124175609678,546.600789986175,525.8838451841632,555.3517452856298,581.5659366156314,581.2699240402003,583.8205764355436,547.4718235667747,442.89440225143255,341.3711115613762,264.82828964129976,159.794896995403,46.56701377480621,-35.70147850297706,-122.66092261461489,-204.58748311706157,-222.19143563077643,-214.9282797363635,-243.86119789965343,-271.1138176416843,-280.48491917870587,-314.57822643183414,-348.0532836785748,-347.24677647720057,-364.1560585481867,-408.8014345046044,-421.2391324772813,-415.25806523019537,-428.40135712863696,-419.61218142551627,-384.0199773442988,-379.2769854959915,-389.3873790702294,-377.5792902884137,-385.183141674913,-417.39181519050095,-417.76813113422133,-402.2830123343371,-407.78328597697003,-394.06841940454103,-354.99359497293307,-343.7484556947434,-343.2653818932031,-319.9933325994242,-319.39901432496384,-350.1524247168518,-356.3305165379122,-350.2372074230852,-363.4577262818036,-352.7215419135,-313.33583570607163,-302.71212611034355,-304.2389523940524,-278.60654931080126,-266.73904588212366,-280.2528745125178,-270.6958784480847,-257.58437624638736,-276.01564573508057,-277.74124596628366,-245.96688371259674,-230.51861065422867,-219.63939620700992,-185.42184236062053,-175.73529643485148,-199.69728274883443,-199.73233580002918,-186.36118547869648,-192.87830236366517,-179.70840753793016,-143.44933730130674,-140.14107219578028,-151.75176180951487,-137.72061859114734,-135.60737092562113,-151.87964229155656,-135.46439300398524,-108.41175153755948,-112.00023108526389,-105.94356285305288,-80.59863827874973,-85.16138930495637,-96.63428784842334,-74.98428393206419,-63.724656347724796,-73.91149638269263,-55.81033319447653,-32.03556786750244,-40.56008721981301,-35.10476669508611,-5.291954416622885,-3.9285961351985534,-10.68639201248827,11.670393901373464,17.66255452421917,-0.5355279243779449,12.174963730394854,33.95939082388852,24.118937202879316,27.028454591004916,51.76861567316343,45.82498033937294,33.164456450747714,52.90967202901467,56.292166431235934,31.31024314874238,36.1142136248417,68.0595543636814,108.0888223200388,193.14275820406755,296.9822226874229,332.43184443234344,309.9887515570963,289.60827170411596,266.8537848090995,256.9372674103326,303.74171042899115,364.4905254827187,391.5522093597024,429.5753697721259,481.91670283363476,489.0982424631455,476.7312995830654,490.4996477912365,484.570141688814,445.56228265319317,422.2794823275205,391.40770204246587,326.7711208811571,294.07289428894444,305.6600976191043,294.6063118229628,272.8850693251966,277.2266092057141,262.1076471295919,221.5255095925454,213.24372176937712,216.264923232042,191.6554041318302,184.95842660576074,200.7435808260774,180.55091382465304,148.69948230404847,150.47347375169093,143.7265180472328,119.03655461639929,127.46164059819054,144.4517896499792,130.39715151007434,133.017790251615,163.62853511834103,166.99400499658293,159.4839253258917,174.13721562288777,162.79212710845914,118.66630287374639,100.91128187862998,92.72353656307514,54.4594823021835,26.0737371762713,14.525686250087459,-30.361862588864728,-82.51549759490081,-99.25184932926177,-124.64249993260398,-170.9553831416714,-187.71933264903228,-194.9126973752986,-229.6849274395901,-248.37898159381535,-241.86865244881224,-261.98878734985044,-288.17043346601463,-281.35111779330964,-284.8553783025068,-310.0907932264701,-306.562292502721,-293.93730759650697,-310.4234671617337,-313.4923356178573,-292.79689489387295,-298.9043693895886,-311.78302902307723,-292.9394012377279,-285.4772340540267,-300.8777309251984,-288.6187091945165,-267.5188206225783,-275.2306856746648,-269.7875258355197,-242.4763368306713,-245.4240584588124,-258.26655661771804,-240.38050916898263,-231.86525096481455,-241.14414629473345,-217.59671213939265,-184.52953762762135,-184.2499403315194,-175.16611025949223,-145.57499312333567,-144.2169599234413,-149.22923241146293,-122.32330332192205,-109.41798593832735,-122.66154256612838,-108.80236938216387,-85.98282105755457,-92.72835692708107,-85.7840545693147,-56.350774168800115,-57.73709878581123,-67.25578371043747,-43.16189010022758,-30.599862626017213,-41.61649103864463,-24.159876936541522,-0.26922947521252905,-9.207412389279533,-4.3297113952686574,23.92880383863687,20.79376574313048,9.595210217646079,32.71419348543228,44.63026007379827,34.411533023362544,54.39632071685963,80.18486254349081,71.64154230897721,77.10204250214093,107.00702051251685,106.32646534839753,98.1379804004143,123.2791251618601,133.97076682376618,119.59654364253498,134.69041828433646,155.84965202813228,143.31658293202153,146.18229981916386,174.5026837433796,171.63265143842574,159.42388925420516,178.27496904189843,180.74450647273653,156.88111173644447,162.07324964562596,174.2170975091759,153.45638751202586,147.39190819510824,166.23625861971993,155.14771230571426,136.88064435286026,152.07732248043132,154.1376767060091,132.5291829431613,139.90050797081187,152.925297207438,132.97127231635122,127.98073238145625,147.9726083854811,138.51148170613416,120.55502391892071,132.5751004304412,129.4269965666874,103.34505950459017,108.31848349364549,120.88307945294005,100.15024000365317,91.05571962632408,104.30425918557239,89.56207516578542,69.79701335396399,82.3360854083758,80.22483832568244,53.240186247686346,54.26270124299308,63.41800230271152,43.37961436616697,37.11860109816976,52.26676776641233,38.59400985362059,20.54170656184717,37.48138555861458,44.000413350027145,27.517220203782095,36.1705032221924,48.26829688319853,28.742993240688953,24.392066381180012,44.64839915528608,36.78288063021802,21.181917482074816,35.924032331787686,36.971441275097,13.60857836241097,15.693551543739956,21.97077849533633,-3.5587895889719796,-13.197087872350966,5.135485267883044,-1.1244164193533441,-14.760447839338037,-1.6932354774110303,-7.304181360491166,-38.48563898259749,-39.3624374098754,-28.220128693491738,-43.07867107578427,-42.75962686564766,-21.948978106385198,-33.56585821618409,-54.050126323831094,-42.41226068839519,-41.37203469431261,-60.803379711696934,-51.77911565670897,-38.55338990496106,-58.82840156065656,-64.73743064512882,-44.5003430224791,-50.25776831792399,-61.91206189063004,-43.26989775022737,-41.33414192284147,-65.87667908900974,-63.15305894450956,-53.550352206556425,-74.37009528754697,-79.43093783616595,-60.101692532991734,-70.66999802040802,-89.16487044807539,-75.10952627786317,-72.50246248134764,-90.80526054689891,-79.1761573807359,-62.3707954687155,-78.95558197160793,-81.05391110778106,-59.569621474200986,-69.3408766872125,-87.87208850065916,-74.50714703955788,-73.59508359691931,-93.10340067487786,-80.28362613692707,-60.7936877206358,-75.16245678958292,-75.13602605050286,-50.37390968394669,-56.220685441879255,-71.47649521390613,-56.3471855363949,-55.71852770054832,-77.5459421762369,-67.8634972855719,-50.94292648940716,-67.83085645666787,-70.63317922933774,-46.81089370894433,-50.0750882436903,-60.565145136241114,-41.15151886977924,-38.160806961731275,-58.22497419181592,-45.02453458140694,-22.18579159190594,-32.6877431774921,-32.66758067931475,-11.679442995507575,-20.5971591176078,-35.945949456354455,-19.3057843766633,-17.42903995291082,-39.27918378294051,-30.106496313613867,-12.044866978330287,-26.595347064071188,-30.1413008330736,-12.465388194777068,-24.380863900411835,-42.2938500436275,-27.130058357609425,-25.58955163769022,-48.57672497857504,-43.613950109361745,-31.98031189628412,-51.46448585652568,-55.73222925134224,-34.12709874406774,-38.200667372888496,-46.34262658916097,-21.795008495981342,-12.024022137988343,-28.16497761837878,-18.33312087455509,-3.6594463586981814,-21.90831864608779,-27.350997007447532,-8.910136251300374,-17.431225980235713,-30.921079227833374,-10.635089746503622,-1.980895411149299,-16.309962982550704,-2.4110526028538946,18.274507809882877,6.9764135424922875,8.214516274402209,32.423402873924914,28.430488456678233,17.34955998122228,36.5789709015737,40.56587898294974,19.315251300293163,25.500345621826714,39.174347275676155,23.151484860151296,22.045875054964636,44.799075040400496,39.06051790876738,25.526694279451082,41.344132584579896,41.69729714373727,18.129879874872834,23.093591048013444,35.10509489439795,17.521962810900284,16.773043218486674,41.60293914914635,38.57340860257429,27.93188094773584,45.74850711760988,47.36546360061007,27.67767128920925,41.431030889158464,64.47354748847013,55.277929685652275,57.59901473360038,80.59785984371544,73.6270816295052,61.03805309815368,80.87950084637862,85.7070553934061,65.71705063673122,73.79950175499704,87.90321925707707,70.58849674006495,68.82142932297435,91.80244791127762,86.43277105894282,74.78340971330444,94.17453013134072,98.14112730159194,78.84031108247476,89.90021609530238,108.120397512371,95.47767616606637,99.13843450487985,126.66223692769111,122.86865361024522,110.29307542916766,127.02177101643493,126.32477556451218,101.55093150094575,107.28257566414455,118.3901505211194,94.83750901729765,84.28631830754442,96.30406430936239,77.79250244153897,52.945290649021615,60.51918190758117,52.667907358998974,21.271955966592277,21.930904150205105,32.414977440700405,13.488570163815258,9.790925399699825,27.41520315406654,12.131711245617387,-11.537012389768249,-2.71932438711612,-6.459824216873397,-31.95435798327609,-27.57906043112,-17.39899465295414,-39.28344072424546,-44.83464401493863,-24.4664311971386,-33.36424135373721,-51.38537007491816,-40.71430161592351,-46.61388843838722,-76.41482414599268,-75.14376557790344,-65.15054107348334,-86.76286923105316,-94.38422259835804,-77.4112430824336,-88.43809038545902,-106.52726369428517,-93.79228668849392,-94.73975211882073,-117.35157037967683,-108.88714888177779,-92.26863016815201,-107.39121885944927,-109.53501201811645,-88.24182860071396,-94.69356600936474,-107.11523983335852,-88.11551914260284,-83.9085437356025,-103.65429361807463,-93.49247650682592,-74.75832465148045,-86.61869552235991,-83.85744849559157,-57.36285729557237,-61.68898230087819,-76.1939131610394,-61.01399888309254,-59.43346521781933,-79.26323540139677,-67.38215814448459,-47.040736439412335,-58.967654027171996,-59.20211550298968,-37.9657706652618,-46.07856292945592,-59.732688112457225,-37.53908087103497,-21.233186803403477,-19.60329362105858,16.812843198197115,62.76776011259743,77.0355478180677,102.3767553297333,146.10273384962653,152.48557111787903,139.8202121768905,147.00557471992576,133.94026823360983,97.47770746808646,93.66303849250517,100.17654215146777,75.62287702780455,62.53678679971544,69.46067549749043,44.19168276307652,8.67005486912543,2.4045201018530493,-17.191221129005775,-56.97508168783315,-63.763109843261134,-61.01921477563292,-89.74100131883368,-105.9032660313301,-98.90893407310861,-118.13455066454434,-139.795825979089,-126.77263833748127,-127.0021017513194,-151.66501550310446,-148.4311045563961,-137.71966621154417,-155.73303782534637,-155.47237307246525,-128.13396566557907,-127.94057220919038,-133.95236918956266,-109.12963698934777,-99.13774100033535,-110.14185198996148,-87.64210490890324,-55.66263684057464,-54.50966818150333,-40.525736874928455,-7.881041397712744,-9.814998143934254,-21.371834040779564,-3.2896010842123893,-1.4315760762197896,-22.161467336200726,-10.657269429714807,9.43633095203879,-0.6920847062969209,5.448023975027112,35.404500358204956,35.410944582787295,29.156313728897075,54.22207985691776,62.63956037512715,46.19767592396521,58.29756353872733,75.14734343366742,59.32260752931093,59.080668921331224,83.62293474585061,80.53736396458034,73.86864544779233,100.41224127825423,110.64918931944537,94.91345266283767,106.57005407741944,122.84143775765558,106.76755965434562,105.92078465588561,127.79191715128259,117.4865032776084,97.469978912997,106.59521448837639,100.10744677686057,71.88609636578013,76.57631344996243,90.75830506846172,74.4770196657959,72.08578913027227,90.67969597098316,77.38685549033013,56.44056260319981,66.88152884516347,62.603246567048856,34.56987007233739,35.74302224524561,44.80207239052735,24.406110164341385,19.653106780798495,37.900188350942884,26.02431075078573,7.868595801622131,23.364838373929388,26.84275496165724,7.231374872559318,14.330712785960023,25.499268787215183,5.611133790073334,2.9862755255506053,25.944020939060632,19.592205064215346,4.432724122108549,18.60476860444599,18.496404022369966,-2.389978436624748,8.860773321810289,27.82566871175593,14.13679797240246,11.987455285115413,29.043508831114124,13.260170147677755,-10.22434705805628,-0.18643872600498668,0.10410910264872664,-17.557004961070426,-3.451902470021574,15.251108577861398,-2.1650451478431663,-9.011968717729568,6.641476867455624,-4.51796090482589,-19.291690957373113,-2.442248900214768,-2.676296170762593,-28.2524265356178,-24.092258030911548,-11.266499133199027,-27.94676006754273,-29.655593243782185,-9.148762070152378,-18.421757627980984,-33.38339498155784,-16.66318797876503,-15.528448619164086,-38.323034428054704,-31.3167901517965,-16.56475868575752,-32.418877887831776,-34.33323373723279,-14.820316688111994,-25.351227521553998,-40.54593129075004,-21.937541345408103,-17.662095918135115,-37.70825184750762,-29.107026873444518,-13.365436024633105,-26.446464519930235,-22.267373645742886,4.23011390310735,-2.4262737510585346,-18.895978740363955,-5.518938964322654,-6.458273560422293,-28.322358692621616,-18.202624856498204,-0.22737449001273813,-12.933029053279853,-10.407876170359415,14.55413617263126,8.724378150302028,-4.014235890083516,14.1351093993398,16.109655915454315,-6.367918697351017,-0.25288432433686125,12.118333734908626,-5.24043608895907,-5.215485315137072,18.900528234386602,12.910923786511209,-0.05683771143403682,17.96474614681207,20.934681225724887,1.553398442282913,13.005591338366994,31.160675217556776,17.109272045252037,16.749351251273108,37.35054680964015,25.403530948791833,5.539257665335278,17.946013744010916,17.855402212822852,-1.7785246719275136,11.273845593161365,30.79087102584131,16.53390197759195,14.500746839226434,33.32916966135912,21.921764075284873,5.767806842423448,22.483627335528553,23.814395941590057,1.1909563290043916,7.350396744549483,19.08265508851723,0.7276321467788804,-0.13386751963295707,22.704615576488536,14.683176899690677,-1.6624363658282881,10.95299634383606,7.1517943074303485,-19.078814774068128,-13.992350811798762,-0.98714461504313,-17.742167653554347,-18.414005414174664,3.5743846615046273,-4.760538930350565,-19.1681428528558,-2.0135737548601895,-0.0861661096377575,-20.848784310430396,-11.186787767861748,5.629358383240976,-7.341282474255561,-4.001624291393413,21.28451884022326,14.235395388621765,-1.3469227442492695,12.803383861520526,11.031142365687757,-13.253536596702311,-6.74967435721368,7.3453898089763925,-7.445363683910141,-4.666410416004967,21.013873178733178,14.435042800637017,-1.3841552775089294,11.805102212154683,8.985817788792303,-15.792562271830237,-9.661824111225297,1.6436236369344313,-20.896898110170344,-29.712787609557573,-15.521344247209042,-30.053286506317917,-48.65527489682369,-33.792656177403025,-33.423020961990005,-55.99049555099147,-48.03538246961382,-32.7274040934609,-48.00723695055206,-47.86317935503022,-25.518695129160193,-34.687991118098985,-51.29288046904038,-36.67145935717032,-36.78484668480196,-58.43726739266865,-48.33470091058555,-31.36265097216768,-46.64602389292908,-48.47158671815914,-29.681625707098128,-42.57885054556102,-61.87389671888897,-48.77820961975621,-50.052983821596115,-73.95714026221745,-67.19402568199231,-52.29862068602161,-66.35512625390675,-63.323380021397675,-37.098264990759375,-42.29038075571777,-55.831363291967804,-39.229173444181136,-37.09914363407409,-55.22673232495368,-40.47036589823446,-17.897173453103125,-27.57413213850102,-25.234637031923647,-3.1944937141393464,-12.047763313137267,-26.64780847745978,-9.7559366809517,-8.673188040108915,-31.194719841823762,-23.10359481962876,-5.645435456812288,-15.855170361920884,-9.343211006290336,18.728721295149775,13.88662958688358,-0.18229237269872467,15.49353998729148,16.302297580037788,-4.273705952248681,6.213989481442659,22.671891593049068,6.332859958880531,4.21498169136582,25.248805247139195,16.99968574251282,2.2209580968916454,16.90569250452163,14.343410660197982,-11.07700939869408,-5.191964709856986,7.967091897190171,-8.784794383036427,-8.156241310209705,16.989258799071813,13.19390065690251,2.7624145878901407,20.843885641394984,20.992181921152344,-1.3208045445804757,8.183167185670243,24.08708552106164,7.2126833980812,4.543643198923338,25.330006944335643,18.475445852495152,7.4871332727370135,26.861723373921087,27.337961301959012,2.6163840486153216,9.23619991193975,25.615291859768863,13.554649016924657,16.995229139542232,40.774372587759956,31.865015171627714,16.127841244532583,32.544106423163626,34.445077377187545,14.244944230024808,24.89382529216963,42.51001065097446,29.54935821527756,31.932671801973925,55.727603470567736,48.14497165989994,34.68433063343993,53.50354774550557,57.77403079338683,40.35834934173333,53.398447091702735,71.69525606867002,58.13606546167989,59.71297138415213,82.24872242749342,72.46054342164405,55.74434907956032,69.838651074547,68.13360459903043,44.77674070543199,52.48779581090895,65.25088937607214,45.2849511692386,40.016806995553864,56.90958332937923,45.02680516857823,30.27991671683026,47.82258362227873,47.52682564552957,21.67603872819421,24.562474717889636,34.64352512920497,17.140108998475487,17.869072159213786,39.80673374706572,28.22949648195778,9.380197913062414,22.92323838973076,22.668047505115645,0.6595135248062487,7.478099296351121,17.02010657765505,-7.416272501638053,-16.86036386545188,-2.6273913490322984,-16.50896568137798,-33.58456459434818,-16.867452761502125,-13.849930376344597,-30.934546428449803,-12.809026932375847,18.733541216518105,26.210132279954358,53.287189729527604,102.17698978547088,115.80574821257345,116.49876436396924,140.74727860355364,141.8180737875049,114.86577208466161,115.02100527615465,118.90373930260036,89.76012309943732,73.87337832685252,77.17236371401272,48.00497481622012,12.295926021550883,6.879280480542363,-15.177326226519465,-59.100014583424176,-69.79285207300377,-69.76358702609488,-96.81413011416944,-107.6152669051141,-97.94139357369576,-119.83426366203378,-147.09373488786107,-141.73206547313416,-150.2289496915848,-179.644471765969,-177.66038665353202,-167.72192184394274,-185.82449386648452,-186.04081052784977,-163.45853004253712,-172.0384926509744,-187.54177064255913,-171.060550468385,-166.73979548394726,-181.09089132216644,-163.58175675261788,-141.17414664203778,-152.5128179216358,-149.91402772036272,-123.94159852628331,-125.60789772621962,-131.23928348780802,-106.02437032997261,-98.05506484819193,-113.47259849296924,-99.05742407790098,-79.61558646669152,-91.87874316751562,-88.12799918779909,-61.35062855497413,-63.629337128529855,-70.13029431438898,-45.592542261589074,-38.498072183255076,-54.770818986313955,-40.346009316298634,-18.798190637845444,-26.47546793187053,-17.148943161760215,14.003580933639117,13.164819416884882,5.038291712670074,27.03389360301847,33.00109584668772,17.6144440457835,33.56259587364418,54.70775552166044,43.4817672536369,46.99568421319769,71.48875943119224,64.60157775904369,51.87576469744462,70.80930873481005,75.6764584395745,61.0775711378933,78.76030017069809,101.81512327127685,91.36464243624057,93.37596835767812,115.17394385870045,106.00169963586049,91.44703205526345,107.96476153496081,107.81445399709268,84.35982296349864,90.94158959471008,103.32887033762881,84.72659364174467,82.1148255397241,101.48699392089047,90.14216929835648,74.00809964507579,90.67509691826326,92.57360087329286,72.41258109966515,82.078619677276,96.35979910302396,78.70416959993925,76.31952488621874,95.31821293257988,83.32615108188602,65.62511130793398,78.66762867842687,74.98943277841497,48.35630875606089,51.72584734097845,61.0169161736295,40.849620779852884,38.484954352473785,58.43308683989912,47.16395530345508,30.36667153305479,44.9970971932277,44.07027874716757,21.604349757105116,29.022460568522924,40.12502512133493,19.713309271349264,17.716852404848495,41.37115094250959,37.18478725341805,27.82820891196902,46.92483196393864,46.200239796276975,20.528261735201788,23.757099477189712,32.01895694435598,10.076713803402424,6.254221468625802,26.811568608239035,18.010533186208423,2.9486471280976163,16.592322153858216,12.861094778272454,-11.40576466443193,-2.781166655715891,12.80118796485953,-1.9196140380663689,-0.7012303900319083,22.18044039912946,14.330737880088863,0.14936686403669786,15.573952102578044,13.459521473738157,-12.102476874807468,-7.131571517870547,5.05876363275019,-12.163031907117242,-12.01274123530393,11.279048387221863,3.0242006840538167,-13.451984570070323,-0.407766957302675,-2.3754131644474685,-23.600073724404666,-11.778686134926367,5.725543812734559,-10.63905350102494,-15.553114262956228,-1.326943824834931,-16.28258610692091,-33.155712659625706,-16.969999796741906,-17.344966004467793,-41.86155009113643,-38.42730583134928,-30.572593421748472,-52.08872189515556,-55.134615573909656,-35.104749539607376,-45.70167549045701,-62.23413144407479,-47.653952110209296,-47.266500115773255,-65.65747097715513,-51.49822457041478,-32.860293934433,-48.38283795422368,-51.04494642580441,-32.46041437339676,-41.928802352076154,-54.15378977219382,-35.03154968038032,-32.94422133105567,-54.36218491645058,-47.24670378086435,-35.55615853939766,-55.123835456805246,-60.44412740937108,-45.18340622705713,-58.667160776718944,-74.3118279501002,-55.89120751615917,-50.47138088502851,-65.88207843613624,-52.80507597998292,-36.11095507528305,-49.903956909001025,-46.571823418655754,-19.641072928512926,-20.726605140123034,-26.945109477171087,-4.724077930629372,-0.03633743052496641,-16.698423430872477,-2.3808190221724566,17.804441930697706,6.810894925571983,8.365448563714732,27.429265160156227,15.224384197610227,-1.1051965105176889,13.9892658128989,13.03148503012459,-11.554027494412427,-9.307190788335111,-2.3426109910114734,-21.82707095247882,-19.61523624825904,8.671990683488447,8.534393919533418,0.28252620994294597,16.559279125159037,13.454247238912764,-9.876275629617314,-0.12755202166016666,17.196754302810625,4.568865510862324,4.747111831611461,22.024398260401234,9.005998507307567,-5.084128074801021,15.15092324994636,20.79923024450689,3.156580660608536,10.423979169676112,18.372691579229823,-3.5354361762442554,-5.529197220141832,18.238461297607525,15.13912812003919,5.832331321018209,37.9534219308454,96.85346766589994,151.82098858913503,187.3670441446028,192.27744911650666,157.19844100257467,102.34966029932595,89.06696404147209,120.71377751314617,122.10535819970778,88.51220590543616,78.89086877477614,77.54753640628326,58.7742090285209,64.77384415718087,87.49154678707714,73.00732346393318,53.75732891061393,66.89991134588091,59.86560469021091,23.565374747629633,15.025963103371964,18.157432071836524,-2.1370065954523962,-6.74153518861156,7.722262158972068,-6.169860672564325,-23.318391457462038,-10.513503986251623,-12.798061762505679,-32.255166624527625,-2.7785202574213734,71.2902097384142,129.49739208540672,163.8747242357899,179.8357791798487,144.6106714951071,80.15787684155515,67.25950758755842,92.73265151490806,80.98782111374899,51.74284574538933,46.34713812665423,29.661273813754914,3.05624101715466,9.897927213896294,13.15919405670179,-21.326604529818106,-36.236570502115605,-19.92694376831448,-38.16646705708393,-102.88797414023043,-192.85154079689642,-316.8704803742719,-431.3906893152664,-453.96556059696775,-405.79475084827317,-363.2239527022466,-333.1703887379881,-318.4154305948468,-338.6299183608063,-345.2626804980416,-305.97655653354417,-280.66013105892773,-284.4557408344144,-267.45851123724617,-247.13040981737328,-252.0981144549874,-239.37492068211452,-207.96501644093306,-205.62892260385638,-204.44535003450795,-172.66231107524982,-159.7348912697335,-169.8716506746265,-149.4156961529444,-122.06675447683588,-124.37916939785447,-113.35286176095576,-83.85697161197473,-83.12058040873616,-84.77926611406805,-56.28676062898756,-45.660026861914645,-59.50791710356049,-47.944731696883096,-33.17623917366591,-46.52587257729135,-42.36445432543398,-17.17377696626015,-22.127785246480794,-32.59085772443688,-12.921787074252691,-7.925893625281783,-24.2974529912862,-13.037504849692215,3.322611510208269,-6.416011013033348,4.2032965248292244,38.472221508816624,42.5817723132907,37.77419544249968,58.78507239094324,64.51649943602945,53.05952341113574,73.53445352198197,99.40435787783454,95.14579753783758,104.76459677487614,133.23140872451398,131.95778195332366,125.375315752448,146.04101426009166,148.26686223708282,127.9020185288526,136.08084618884445,150.54385649272285,138.76050737027043,144.04943342280833,167.81224796196256,158.9301852112279,143.14872316940455,156.89348568414854,157.06836195590733,138.60957081192092,149.13946106404865,162.5417655504112,145.72344204500519,145.4420073805303,166.05428215652123,157.367115539944,144.91621952705285,162.6991600230716,165.08822617726236,146.55770380384453,154.2058288790637,162.54012569575863,141.34146378828038,139.11618149962106,161.61406031082208,160.7106163584155,161.5017975160193,195.66716247573,215.68076195406826,214.25623508105758,236.92547024310184,256.29624983436236,240.2296874025214,235.87950765324535,246.62827013602777,223.06924782860432,193.0999299037965,191.59129458693576,172.40518479551307,130.8921244068135,116.18201795940296,103.67864175815647,63.4304269919342,43.95153383305129,48.86038596975752,25.94640515490537,-2.6336337319727923,-4.798336238973024,-24.579378117041983,-63.727358092243925,-70.61185219332188,-69.31296851452672,-93.92991488688817,-100.20412580176688,-83.93389384531206,-94.25072355579434,-107.13207704247881,-91.1049424277891,-92.2746916516419,-114.31376151368588,-106.77570100900473,-93.40621297822607,-106.92710077473362,-102.63821032971433,-76.4618284208848,-77.46210256716432,-82.09047314213258,-59.21181167837067,-54.65930396902036,-72.12155597131189,-61.57717065297912,-47.48933331870455,-62.77225998495362,-61.37007693594772,-38.00622774589469,-41.67386421214362,-48.84706463103136,-29.63510036832124,-32.00444488337071,-59.542489438602594,-59.93829527700896,-55.37207963742411,-77.05904836428712,-78.0968397110388,-54.20949379160653,-56.79391020849308,-63.962245286784835,-45.717931058623776,-48.512154166581155,-73.97263449991254,-69.3475032004759,-58.435247275058,-75.22256104960283,-75.8245054168645,-56.33771549282251,-64.47160687603346,-74.02755721635855,-53.15062937537623,-49.208078713227415,-66.49919228996379,-54.91146820740319,-39.01152669901926,-51.55502901821624,-48.37682877135143,-27.772048687256305,-39.1100267308037,-54.65233677122249,-38.66636950692389,-35.45049146405022,-50.12611845241188,-36.46994403457431,-22.038522785997845,-38.95813099408064,-38.99175656372342,-16.884987480439037,-23.224957485590323,-35.25730272389431,-20.90738750746625,-23.267133420027058,-43.026418020519486,-29.988447607758392,-10.699133097845312,-20.080454894473316,-13.189567591726469,15.157568719404004,15.983951084305076,12.581335452323072,35.56737854246421,38.98345930097653,20.712520143961516,31.926252900888663,47.66464542577791,34.117878282879474,35.44393557947102,55.01440524942994,44.73714163121309,31.08140002212805,47.23983042233033,48.638094688603296,32.62254468834289,47.22679613574276,63.843597484876724,47.293192756399165,42.882268203447815,56.48707276092987,43.00592728188801,30.660969279035346,51.390543602882644,56.731856115656015,40.3267617890143,50.15855061456233,61.47235372217112,43.72316626331232,44.33850242052196,66.34507617947794,58.186832070848794,43.55656945260086,55.15539259570134,50.076331803466864,28.34120066592558,39.12406108362417,53.00571062104175,33.95713113557689,27.47369523862372,40.07995156170091,27.221547716667587,16.712736931694035,37.91149438390838,40.577557095615205,20.286555814702652,27.061693670357457,36.603976139333795,18.64409875063488,18.811930112503155,37.818617162130565,25.700446378441555,9.21464136630157,20.661271467168582,14.002474936654599,-12.503899079488336,-8.893574396831136,-2.419171890122051,-26.102630890835776,-32.96817339959663,-18.661219647526462,-31.01719869530906,-43.625744294638885,-26.192473021479888,-26.353907653808506,-46.19390614939175,-35.05294392236489,-18.790491730922028,-31.515237949142808,-30.589277800538582,-13.66150338351192,-26.060987234984168,-38.20258740045793,-18.281218280904596,-14.80272556880773,-32.602058925161636,-22.748510422360944,-10.218248730388014,-25.90761917008509,-23.395508749283128,-0.24578720992542458,-6.128379640334208,-15.157379159894067,3.518554356775587,1.3720869441639616,-25.02930769157326,-24.016288366013008,-18.80507943424564,-39.61744501773406,-39.96073316496942,-18.189334848192303,-25.06944886590753,-35.96317314606776,-20.16547788497002,-23.594104634231925,-46.89367842669885,-38.57813064062282,-23.85590149854056,-35.05943405593846,-27.76163778384715,-1.2345287846525572,-5.089642990770331,-12.909520052424401,6.6741872383644,6.759135503476333,-15.442949882341324,-9.679893148980447,-0.696783648766365,-19.863247477733864,-21.138848229623974,-2.231446693015757,-12.844561534448797,-27.161545650157045,-13.904340747405211,-19.65625145168945,-46.52416845206057,-44.4451717214466,-38.86278601878621,-60.726458590467004,-63.31217157570177,-44.36321127754452,-53.23543660313649,-63.54266202250008,-44.815799153762796,-44.56971512431271,-64.2570691109886,-53.66574835160378,-40.0880635179437,-56.09815318156896,-54.966054595847936,-33.52778899136868,-39.92685010731593,-47.28229789107008,-26.300872918314305,-26.216136959005695,-48.4375289030154,-40.80405221380659,-28.32269092943694,-42.175289481772275,-37.1709686559451,-14.31617640336474,-24.09283360138186,-37.74028733007137,-21.24270794312035,-19.52257214224721,-34.3117722567284,-18.420517240329342,-1.6981016212672682,-16.464471846491197,-14.284808982178571,8.847729465699008,4.157175722790882,-2.3010180759272023,19.830232259708207,22.94481342780332,4.428423049148391,13.548744909088818,23.674649401473168,4.01992502396729,2.8096894620406365,22.341545981630503,11.536925724555188,-3.23312649516841,11.468938889741409,10.949882420663574,-5.6918472375792515,9.725781568105507,26.51424559363786,11.259798621596968,12.549955642215867,34.28573820932196,27.351186232623604,17.893706331018308,36.48901851274111,36.84547947557519,18.285541839012165,29.71019684753642,42.33234024702011,23.706265123473116,20.887453011705436,36.68600491229379,22.210576658568357,3.8218824679645556,12.90736789070167,4.796113161612085,-19.81055069677228,-11.579987738620208,-0.3083534163887962,-19.683564790872524,-22.30015550168535,-4.425644351524198,-14.19069219195857,-24.883137850873847,-7.320408055910151,-9.346527064775934,-30.33290201315668,-18.336269050616266,-0.2883369593369043,-9.223272183559242,-1.4119713196350396,21.96707313501372,11.955553683594026,-1.5357775992706446,14.455615738270335,13.08232739465738,-8.28016593019791,-1.578823784164845,6.327668741169646,-13.72363036045278,-13.597994094646372,7.146575835496205,-2.727565098946916,-16.33029526496726,-1.0601789940463657,-2.5386738922133874,-22.327749004581875,-12.223770948709515,-0.8259065181127268,-19.343514644684902,-19.64882172160925,0.8386996694444662,-6.1842366776056545,-12.800910719315114,11.396821778819712,17.74359118139931,3.0850792860588667,15.678254622360978,28.86919487260102,13.880940418283338,18.4831265496036,42.24391808583961,34.27060445742989,21.60288249382574,35.765690021976766,32.05134985442539,12.03614963618124,25.00579337784682,41.190064832558214,28.05266406610116,31.26513748500595,50.42300586105469,36.93578181288454,21.301147615151383,36.389782328520184,35.188502108416536,16.33633021262426,28.115456237840757,41.14630070323654,25.188352539383125,29.717982052570704,55.260232286504916,49.71822469642468,39.225289856945075,55.12832426555152,52.273194041600206,31.590649128579983,42.07504048075194,53.34935707668771,32.92575798767407,29.97562911567483,48.324836670919154,39.086896477043126,28.32379749716664,44.668815302531286,40.42706306370334,17.144494898931214,27.481634836281778,44.50906352569636,35.445338515837875,44.41608135121145,69.36449993906864,60.318898807810115,47.356226431433875,63.6462662999854,63.22804797282489,45.523910851352205,58.00083859636898,70.09922885567305,50.95805077524796,49.81323725673218,68.29912231606258,56.854541030188614,42.762086733929635,54.42333016527205,42.879415108635975,10.402041356651198,11.072195423088345,18.265096926785084,0.12522985330853764,1.6857920400613637,20.128453713368675,5.53098063822112,-10.312743129145787,6.273914136187093,8.107547881978588,-6.827393775473222,8.399741854521915,25.091348864333376,16.306634452882854,34.01495927270227,79.3001528402875,99.61289900222505,118.01181255050811,159.0279759125973,171.61376905653347,155.4834161952457,160.73841668939642,160.0748941579681,126.120812657095,109.50223032230812,111.31852577611659,82.52905044096036,51.617739398356946,48.19832487184513,24.820082271574933,-17.545421395599178,-28.836906748891685,-37.007531832891985,-72.36769674452393,-88.69212456643515,-87.13044610087128,-116.21905321700844,-145.38233330136038,-142.63310572458437,-155.32103687129685,-184.87539884670312,-183.58375670721898,-180.15417751207565,-204.17224237397133,-208.06808957102515,-192.29821108018507,-205.74520051034847,-218.865097856998,-201.14995927982378,-200.53795464317807,-217.7189477480007,-205.25671702282375,-193.56900910581757,-212.12121272940567,-210.38866437082666,-186.43564478459024,-189.47288139644377,-192.27711692520512,-167.86747119590885,-166.01428727504998,-184.21547461376588,-169.90774189862972,-151.87336594519013,-161.93711685603284,-153.73418454365992,-128.04536852324009,-132.93780355660255,-137.88877756692025,-113.0432351546358,-107.97410217192453,-123.82162373894816,-111.13611592008516,-96.99299047979109,-109.28290071264594,-98.93598034926995,-66.36378575148747,-62.8581434283802,-62.13190774118125,-34.60532163872514,-27.022855714676588,-38.07282894005673,-17.634106461784526,4.703104147497687,-3.054581267098655,6.212140403113576,32.68536193445512,28.42572801205622,24.010100740153035,49.03366405141913,54.140184645441735,39.44261642907706,54.22470413638422,70.1307132546711,59.04705404726817,69.06407192023514,97.60987218749042,94.09100799843321,87.63941084294186,108.49083587304686,110.30346370881986,95.86695170953801,114.1315954745407,133.06382662962352,120.02967649202563,121.94228805925444,139.54445998331371,126.7482925561763,115.04996173821706,133.38402395118135,130.88695602451756,106.62004844629888,110.57309812615497,115.35858636511787,92.76519928558486,91.2150293409899,109.847107840544,100.12897569602197,92.00644007750839,114.01262882477886,115.55878001743406,95.15510019553025,101.12412549416936,105.36027973230964,81.11756954135295,79.14308945255873,99.35258730532995,91.17282781942697,81.0300091368056,95.4582899049341,85.51245642283465,54.24392667955183,54.29538339980058,59.14605895101941,40.10753148510626,42.966753910470366,63.31267282294767,51.287335892882496,37.51376811682792,52.01591383806111,48.209436614217836,28.377418379283668,39.10274580595808,48.63979334234479,28.920063571843922,28.68188880149676,46.465993772869446,35.61289267979433,27.98612016109419,51.535014659014976,56.15440049619541,42.40139906649671,58.01860602349151,72.6342229848773,58.52562323293556,64.2531272437702,86.31599970239162,75.09274506614963,62.23946682765707,78.54064481188965,76.53593610812119,57.11547788541844,67.00846649658152,75.33082823775678,54.969423254189394,56.156672908311435,76.83490177844203,66.48643015861225,53.42733147938135,65.24971966845212,54.66646647301121,25.904418703446034,28.180546282415825,30.088698065905188,2.34377017225116,-6.863788728975983,0.7551364712723396,-21.533845259754102,-41.36518834010409,-30.563615267646746,-39.42469686588581,-66.90166285710099,-63.645696947634384,-58.02208179341633,-76.27826525858599,-69.77436157015279,-43.99691537888126,-51.89304550473315,-63.9466396537198,-49.00292931000281,-52.850603259860705,-72.30428255083402,-59.30477078528632,-47.05818466430479,-66.63720993866163,-69.36702579786756,-55.43554578950647,-71.10533601114838,-84.08058589839135,-65.43454734836847,-64.45127616520477,-81.27171400734296,-69.78681077350716,-60.34942875797455,-79.07582013443765,-75.56051284074572,-51.210533670670536,-55.92532311204837,-63.02113398274294,-46.62096949750428,-53.30780466728769,-76.73425172840541,-65.3342592421203,-49.67054348654561,-61.56747316407326,-56.41794552495418,-36.81266379590369,-48.520487578752984,-58.53293498032415,-37.87822170024723,-35.88503793101825,-52.34984002394181,-40.63345180440133,-31.203077544651173,-50.90170844893876,-49.60687289742408,-27.84281680136852,-33.13825701251311,-36.64633548853031,-13.2172981726114,-11.887631040148298,-28.866014042592873,-15.56034070919329,-3.313754210686509,-20.774433669324846,-19.675230052309782,-0.8543574931146569,-9.844743869704565,-16.222103066280845,4.055503977326774,-0.3212817634261329,-25.84071695425868,-21.242975465280363,-14.267620434682614,-31.807688774113892,-27.660587452752402,-7.761999488585738,-21.703411056550546,-38.20362930210361,-27.411215009048405,-34.60979251026484,-54.871370884842904,-40.05696303907612,-23.096216933303623,-35.29855308367315,-30.922748232494563,-12.520755650214475,-25.609765679479505,-36.453555821001885,-16.05506651694675,-13.869004791621931,-28.853510146942355,-13.618935779275759,1.018965342504591,-12.422323079025004,-6.052843495871763,15.227320403863816,2.316772219059022,-12.390158440785425,0.7235478340314145,-5.277402243494467,-26.816070987509796,-16.759340260976547,-6.959806557688161,-24.192347075051455,-18.98016379105094,5.309744780301463,0.05350699328724584,-3.991784050491242,19.901934878002503,23.034645852622305,10.088235922073993,30.327452198376847,51.46924229803612,43.78556760243478,53.49912695534309,75.73030208644622,64.0417092824103,53.23820832547512,71.98699172512201,69.96094217709118,47.75005287882924,52.513061876877735,54.967657948883506,30.24708577296997,27.706575356757913,42.99940050623913,27.203231642634382,12.127050475705712,26.014341114773394,20.31522855933165,-2.092165938028538,6.38212699092931,14.904570521615891,-2.631491908742536,1.7580872966621923,22.16078730519619,10.027519542942596,-1.5362621963474759,15.7845260249717,12.902794746270397,-8.291176389222251,-1.572140562950458,2.617361895582334,-19.396696763464305,-17.47555439730019,2.6701342867803906,-9.508146503181877,-22.966940443895123,-8.337269200934266,-11.093161299559915,-27.29267045485598,-12.817706987341074,-2.67218790728169,-23.781840071919866,-25.308054721963373,-8.549565375340855,-20.12224359015137,-29.98702301618958,-14.367990302782646,-24.639517305848305,-58.94965586633124,-70.37113483611924,-87.99668500869289,-132.86098671751944,-151.71242733988777,-147.63369000045438,-170.06980294067802,-189.79248686933107,-180.28142971251276,-187.09408293239025,-203.02998376683803,-180.06777018161492,-151.90216017956885,-147.63744849994956,-120.40948016905904,-74.71863530253214,-56.89065714104746,-33.79594017234472,20.227211057908406,53.48535281424279,66.73105229769621,105.29840627121033,138.19614131050037,142.48852336529043,169.37146991668158,213.79657021955734,225.9155071068349,235.6753398743724,267.99669252005333,273.65776291023303,257.95881586419017,269.8289120866574,278.11182307805785,256.43582662004724,252.47198516023397,259.4818759544618,227.9948709881981,191.07497670644707,178.63124874425583,144.95211499482465,96.18611662261799,80.30400989877795,63.98047311292368,19.394537340408636,-5.0588367637194365,-13.313513883332604,-51.123270896007355,-84.54409941190306,-86.5409756986245,-105.70067908397232,-138.20230137748746,-137.68026466177656,-135.40695669838306,-155.06854678698133,-146.0901082571605,-113.15938292254539,-105.30448880372023,-92.93829490409247,-52.175775917649204,-32.02244327043107,-27.18678427524837,8.497516623018175,40.6519990870356,42.32040033384981,62.50957750441507,97.27658621572365,100.45135188151987,103.75493683146665,130.10091938376715,128.5286779560157,105.19749710554967,109.824177862528,111.52036504140112,85.72976071101051,81.36724247832531,91.52469525479489,68.46745687036838,46.199804435308124,51.94160410973129,38.972176244213884,15.562428366882255,30.969477876517768,51.74044578106701,49.012342743395244,68.22191970834412,100.81036157894313,96.98033404355259,88.51052761882276,101.91014254843103,90.84965720167337,63.93255261983349,70.20779330291712,76.70521423969471,56.26225124958309,56.6306703603644,72.68447526626464,57.6747398232393,43.231216214557286,52.74063274261841,35.88919518244283,-1.421673632605991,-10.749890314338941,-23.797044871063147,-64.13598202338414,-80.34701088224631,-77.16886681851751,-102.44655219500551,-124.64060766477292,-120.57670104008298,-140.73866188417318,-178.44285972057,-185.22322062655093,-193.66615522923598,-228.07683154949314,-238.73170227516863,-231.78553697701787,-253.67940777375136,-270.2938060908531,-256.3736622465291,-261.27104275867,-280.03976439336213,-267.2787282069527,-256.12121987980606,-270.0542955941253,-259.5837396047011,-231.65713253132722,-234.003353167,-233.71845628546387,-205.31916703506332,-197.3381601375983,-203.89815998950723,-178.4503951803097,-154.37899819023812,-156.20016528200375,-134.2201254089489,-94.80974192936657,-85.39151376349062,-73.2707189212513,-34.44154605819259,-18.413866522426893,-19.571323104516235,7.613158212427081,29.911448288810394,24.19959653502105,40.70598754182463,73.88783635416931,77.11580041227985,81.18461760657868,106.93619962286243,104.10313635970267,80.8686513223601,86.6899187323995,90.80296041373738,70.0406781828132,72.0598776835091,87.07764197657926,66.7871829337852,45.92811885425874,51.89570261739616,38.797248559535305,14.90259979993349,25.252166815605925,32.24079401876568,9.051365154712954,6.475076542162646,21.029130762826227,8.773604084244543,4.765738534771939,31.97857025897453,38.36618599836841,29.21784579425812,50.58067046651893,67.72501977877194,55.62643512273154,63.47209380123048,84.79485931926706,74.8648092890574,69.77395523044481,93.67107250155371,95.75837946650032,81.60601742666475,96.17282025284364,105.10237966406493,85.82841846265612,88.62892625636385,105.24333634130974,88.26317016187315,72.80660377176093,84.53570742221636,75.54263960398609,54.40540421469392,66.91816097763838,75.87751677110315,55.567194441043256,56.81613119523717,75.01810695575693,65.83272965999048,63.824870464781924,90.16523161851319,90.50215003101468,69.50095536082824,75.57277246003707,78.34039416995776,56.55470766799889,59.787535507248236,78.00576998213323,61.7444992273029,45.55088810817206,55.896732227926435,44.76774577753481,19.961722849401767,27.903534186921135,34.05128178234617,15.575424428890905,22.894681873115488,47.66122345553097,42.20344227847558,39.54438530371608,61.61287973883996,57.90220626014988,36.29240465863024,44.47990704749908,49.20576467692061,25.177688414036172,17.86721909079074,17.927800129436868,-16.906326992218773,-43.9875996339067,-33.166940404971434,-34.42728366925092,-47.40250994886022,-33.76020642665914,-29.81969870036827,-55.02156604448272,-55.79651107338999,-38.349314305541924,-48.7415436639203,-53.76617640222904,-32.26386664031989,-35.36619337968072,-55.863322147730656,-47.175436034925085,-41.74729554419077,-59.658061424182335,-50.44768978675965,-24.54747018483807,-30.017235686299045,-32.21186970728339,-7.793551142372854,-5.872795307847331,-18.42278324947189,-1.0729268631743825,10.449404698738531,-5.4477751314381315,2.6950739318788246,26.94695377229764,20.359003602794907,16.717339134888153,38.07470819510086,34.21765317903598,13.918864519191857,23.943167031251033,29.70655224005745,9.568324681783194,14.969605074426024,37.14023729416812,27.440163914650856,18.223572355926372,31.61854362873789,19.84144352086873,-5.753801435456091,1.6261746609841463,6.802832647402296,-10.435272217785108,2.2705100994302914,34.56798939778561,35.668717124126005,34.56681063039581,49.97293385185758,36.21113196545433,10.367947569923107,21.3585398841763,30.41956810237068,10.454591027824662,10.118617630487492,23.590460614109645,9.26008449411345,3.3249037078452552,24.625942393627575,19.596961743732408,-3.9373138327876163,0.2581428450650982,-0.7244974052788358,-25.294864331828652,-21.928508602991556,-0.34653124846180283,-7.285340510520724,-9.819499561173583,11.019902204778756,4.969699691462722,-17.420031994633536,-9.65537778251749,-6.081519267680686,-27.522569010524478,-24.304868078343944,-6.8099409376966324,-21.044085074354637,-30.69722512178368,-13.37297080664061,-19.277372202663088,-39.28815810659337,-28.319327815724705,-21.730519233113036,-38.8035127262628,-27.4429096174524,1.125873645173943,-2.6625956766008416,-6.0402777583589655,11.367329644920328,0.6296072557875316,-24.42700477076096,-14.851096644669438,-7.165586851696924,-25.32222424821093,-20.823364545655366,-4.161449361436305,-19.47926419892047,-27.617333546793915,-5.238234228497323,-3.917284999919455,-17.420513741469282,-3.1003808464887737,2.7712117655767217,-19.696363514402734,-18.31035865225185,-2.4762321241320233,-18.94236394406043,-32.35665374928687,-21.071775695741323,-34.83931096286619,-62.60532227427345,-57.50679590798978,-54.50495818711662,-73.95925167600328,-66.10680860804071,-44.05381064193219,-56.220991136009246,-66.41896366210092,-51.501384206106394,-59.416370753087236,-77.49733292580572,-59.47618695016736,-43.57503158119428,-53.89004904905771,-42.516637659465715,-21.200859795056164,-34.61629009928505,-43.348312159085914,-23.835017253195247,-26.67529395854273,-43.105392641862366,-29.18137813582183,-22.22360622838939,-42.615199421745984,-38.18339960970776,-18.526444319935216,-28.881140588273894,-32.62852520689371,-9.751401536309778,-11.976979770869496,-29.527531513376896,-17.866522921164314,-13.07080928105253,-33.25044800474827,-25.556483775668482,-0.6387064417574706,-5.89500160752665,-8.131579877786567,10.841932091734998,1.383330428251707,-22.262493597204866,-11.888191918752945,-4.174641863547446,-22.001443226370334,-16.657400987113967,1.5232855675709098,-10.370882744002552,-14.357718870707572,8.606500188335591,5.346925776886721,-14.960065455442132,-6.615590662584018,-4.112460598197957,-26.72873380149687,-24.339217124916225,-7.193368654033963,-18.771304823417058,-22.35232820536006,0.4416733185105084,-3.5044171863925353,-24.71689601718077,-16.61148476091655,-12.101668990530738,-29.50735347754492,-20.14317132303418,2.2966471205943684,-8.39178982452701,-14.8969018339509,5.388807625867674,4.284886686115593,-7.586655376535319,12.431081084394233,25.74183785679962,11.016849880246145,18.13081108177622,36.86324247792871,24.3598483948357,19.21103917565241,42.12582975970627,41.5728780689106,26.07634524606368,37.51037255194219,38.11431687910671,10.3833158750938,7.976795561878267,21.042020752531965,5.855112417265422,0.25943270037129257,23.713599527610505,25.214290167058632,15.260833776342881,35.67284747314383,47.39843515992753,32.16859453643566,42.50990813730284,67.02603120054125,60.53779817506871,59.00359694177445,80.19818329004065,73.49485365080768,52.27253539137986,61.95949180471926,65.27984385947431,43.081668092179484,46.28955296001969,63.14290629762927,48.93936662018591,40.62112842310071,57.15756403621479,47.296292282668745,22.68996019288133,28.958768906540865,30.073880719989276,7.105663187904406,10.667939503769208,28.79523042169264,16.541553894229768,10.485919384074757,29.972382261827647,25.110716186836406,7.6699874420516085,21.55530765731317,29.45084063731701,12.189487675976135,20.40723350760761,42.14032125361506,32.733904267302385,29.14354019857126,49.477995201474656,42.419187602135196,20.785037057410317,30.00944110961677,34.30569131404897,16.827165013925026,28.852243573642276,58.3244878838304,61.95785279422443,77.69748064833678,123.44481448071213,145.95274226219465,153.51115045725584,186.21386710048228,203.9134173549828,188.50784383347892,193.01859217556665,205.7948184163921,182.5586319442691,161.08699079951347,159.7035505473028,128.1777795585739,80.66538984148578,62.61391709606709,37.24215495066123,-12.967606529153082,-35.79571182072717,-41.54950237369583,-73.28518441022511,-95.59619604238767,-93.04007590439889,-116.49007999651627,-151.5484842657894,-152.7556181075169,-157.31792957546145,-184.80525483920331,-186.6597823281767,-175.3528907949051,-192.3616892087588,-198.660593421689,-177.58323090126285,-183.0854984029483,-204.45100465138677,-197.0022683025933,-195.9470634120097,-216.98333819366962,-208.7709839056041,-185.305076367069,-191.65347172022547,-190.23053478476095,-162.2887487606072,-158.29339475562614,-166.6553895454909,-144.97588403401238,-131.08151314965676,-142.0823552008434,-126.85540599301271,-99.37699372123134,-105.21507685686704,-106.96805345430985,-84.84326996213021,-86.87072697552512,-98.52125657244427,-76.35052612726689,-60.0963054596648,-69.54650735406194,-54.55830483657217,-28.007298636415747,-33.48629101935943,-32.93069421390461,-7.908979158093085,-8.447818102550505,-21.813110153141228,-4.577978205430375,5.9802985562572815,-8.483219192551317,1.569361035981264,23.25149174218836,13.651372119425353,11.682066474028774,36.03759943456083,35.15968893992725,19.939871115754407,32.949708228580924,37.91064346639237,20.175160835178733,31.30087337780364,54.76801927217399,42.806996491476575,33.515369817434305,48.51245834454955,40.493589614068966,23.050463459046426,37.220931660797675,41.85289505781975,18.91576059159383,21.864021668775546,40.01607117470998,29.717323622181965,27.553811489169817,51.18172599035207,50.79872741362318,38.6163009472206,56.04986665091201,64.08459247470242,44.62615504136333,47.79544070271358,60.99067555674034,42.443017238903785,30.801385633863184,43.624296836053425,31.814469030431024,10.415940567182908,23.061723088116857,32.010957503689625,20.36997575720608,37.65562378731668,68.17067889044776,66.79703651132998,71.2753243690955,100.38688942170678,106.96471121935579,108.13731909423602,145.8543632336039,174.86016488259332,170.19063629942423,178.10554606533196,187.3128388500787,163.1358662346765,150.3214983203984,165.89393937183098,156.81980244575934,135.54531156571176,144.60275962261682,144.73686312971046,117.2621011208989,110.74964645710975,110.62417099431005,77.65931902554374,58.055310590023616,73.95899841531005,73.75637365663525,66.84685757669041,90.0484818776913,98.39386048210199,73.07630630993611,68.73900732630472,76.26215906598438,55.38493623330642,45.349802082831324,61.51690379364995,50.85736618343482,26.46269685391189,32.33621922530508,31.659721915230524,8.78468362223828,14.290666396693739,32.44689759737456,18.034910845795334,8.624980899094053,22.42128924172837,11.56852853773129,-8.662350454896348,3.1337621834812373,5.782028993051101,-19.019271924104306,-20.203434293720363,-10.499547983043001,-31.58934869889696,-44.600993378529694,-33.371927116485274,-47.7592762729724,-71.47108700190081,-61.26728040703529,-57.42618208015646,-78.21707773667055,-74.41103489030363,-60.106617944966246,-74.81561046158384,-77.1371317059836,-51.970907740431144,-52.7701031316587,-66.49947246273838,-50.70712763479761,-43.0090848774078,-57.722533426753444,-44.55170887571846,-20.30202597490467,-27.87054308004615,-27.29643610144616,-2.654411879049892,-5.405913346681438,-20.800858325970925,-5.748610138379185,1.6668505258167559,-13.783130135260095,-2.302179667653018,18.88223131752964,5.936409196999567,-1.2683861771517948,14.735811117152993,4.033045492435911,-18.031026647545506,-8.92855456027683,-8.704653212675174,-34.0030194596218,-33.9455537837769,-23.74521252496021,-46.48747188146226,-62.67746866644188,-55.255462882865544,-73.88243845888668,-101.9175784450235,-95.59475599429987,-96.09927189639157,-122.80266050768996,-125.19499132314974,-114.94890019635747,-130.38342507980894,-130.33219108479005,-101.17513173502086,-98.58137919554297,-110.8162659658107,-95.4276200692801,-89.61591642875926,-106.97331886425708,-95.99806164515219,-72.33505088212124,-78.65204082847917,-75.76764575663144,-49.028097945117494,-50.85916630698364,-66.29286403413673,-51.42330976830107,-43.86700937581277,-57.99150811108807,-42.46002337164836,-14.073957801112867,-18.128287718181237,-17.003957636308744,4.999860699838161,-2.06982454034219,-21.4344153302165,-9.283286806659737,-5.269088166860869,-25.989495836453454,-20.09104181787608,-1.8362920076369003,-13.582553602536098,-16.840293552241143,2.173902359509727,-9.316342950075107,-34.99893300629459,-28.664165402807072,-28.02919327631809,-49.78271542566976,-43.45001452839698,-24.236512659847453,-34.05275717092598,-32.1953700224128,-3.570296754273407,-1.8067512762644018,-13.77018101591676,2.329778247703773,7.6585015176308415,-11.013621758008615,1.4055908472980834,32.61200434756703,38.748430062752604,53.61109490373805,86.32746114959069,83.11387247142221,62.16235920304109,70.80097489670116,71.20867672141593,46.46349936152653,46.712461493677246,57.13331630377468,37.08204953985977,27.817401874907276,43.98051544934622,32.49332732193203,8.600748897190417,15.247481468306079,12.44026707266044,-15.226231117073212,-15.2762013734424,-1.7033787510082377,-15.942698300916158,-18.550435313049164,4.214019383863937,-0.4051903381717876,-17.77519931621982,-6.21574745857287,-5.764582979219604,-31.384779161666998,-30.991717597219285,-18.670402600739386,-34.28265599242484,-35.97610545878909,-8.25400191245591,-3.1824283341593875,-6.704954873796312,20.56440628818655,35.781773326525396,22.659870120751712,32.90300328363554,51.256217149073315,36.10572941588812,28.803784782149826,46.586364064156925,39.75154460841361,23.704047510567847,39.26727437804906,45.56465064191343,27.22020060425192,35.89033945876997,55.65504086183373,41.847405242358604,31.380668385245574,39.85213302690468,19.75184599578244,-9.159263413104629,-2.0376509682554182,0.8152957908269933,-18.143255420075356,-9.333724224963017,10.171962533367354,-3.0590410934441543,-9.3818638987732,6.630546992470624,-5.051878241891999,-26.63535714010301,-14.451247773755847,-8.113928642788,-24.04332459404811,-13.885975935648698,4.079632368581528,-12.55238230398901,-22.084657756811318,-6.863179213740683,-15.6061353709235,-31.73311463361388,-15.10519303995127,-8.331353454836467,-27.170274691097973,-19.776512307997777,-1.336897801332488,-12.443383554514174,-11.297600767339702,17.080963358550456,20.756728723804077,15.216124708475864,40.19023330808146,51.64384739606323,32.99315275231021,37.85700904383674,54.10464632047602,42.75360609890457,44.66597869237478,71.25896114948775,66.93266861852089,47.72934556448948,57.97957581622769,58.55046003272255,34.64237128613932,36.68759455318523,47.823871253743754,27.96861754333824,20.48414856665099,40.10498067497358,32.47790801478451,12.174671578817573,22.324405608248025,24.001149432529324,3.33446064996114,11.3072767414519,28.87913826205051,12.963702861448292,6.9744869467842046,27.589360193129565,22.173008954571564,5.360731619155702,17.521271310888174,17.908108026128097,-5.482899366878353,1.1713910077601728,21.288085724654604,11.587208734907561,10.176052415888229,29.25985484194793,17.938353086715694,-5.098495117556584,3.6652580654082225,4.752334610837439,-16.879820800829663,-11.567869349472465,4.3822021497442165,-8.932049483274184,-10.204186009588282,14.311935068056375,12.190267039116813,-0.6370757463571124,18.44234991981717,30.188376998411346,20.223225465672936,39.268088152354196,70.11640426142942,71.29324966485662,85.4793685660268,127.88203951386345,145.06276656731268,151.1608665178688,185.20936679288695,203.16269815314212,188.00453109464752,189.6566680574072,191.69685244193772,156.09237345233095,129.88196096585068,132.3434881229961,112.51087974026584,83.44337246413906,82.53736981597504,66.73522071662603,21.9854297871848,2.724348026317366,-4.16138606597814,-39.25321759759004,-63.085207774830195,-63.28781678848264,-92.72378320702586,-134.36379394469967,-143.91899802551225,-160.12030193884974,-197.29333893083987,-203.00473598699062,-192.37072097336804,-208.19160291351258,-212.29296585278883,-192.41170407662992,-201.15246087209192,-220.176475830322,-204.50828425934046,-195.66594224501296,-212.75475914762234,-206.7358222614987,-192.19153127450068,-207.32738680068957,-208.86233910005924,-182.4901024861104,-182.53460414727073,-194.65391967674503,-176.30221219739008,-166.1177457985766,-177.0029649035827,-156.71399243919967,-123.14098584467568,-121.98133101230542,-115.90801273180708,-90.3996314306181,-93.77172732812555,-105.34341872475257,-81.30887310987725,-64.47941618703052,-73.38080511702779,-58.375315557075396,-34.70970123190886,-42.29644452686671,-40.20457258236292,-15.230568415555066,-19.438732085507592,-34.6436156056577,-16.73455818984598,-6.1059629610082045,-19.215288174435184,-6.729338687922861,14.156578268477093,2.8534831100171827,2.112485515320161,26.48684602878167,22.335279903537966,5.4744433536669135,19.33568215752171,24.743982103745825,8.057031251885357,20.562874455435786,43.495409028253455,33.07689155213296,30.457197600205426,51.38635367982227,45.387412961549245,30.087031471559293,47.664571495574684,57.11928254651037,45.191618147050264,65.48810401207638,100.85063621220023,106.37912729753396,119.58941871900458,152.4301884713128,153.06012260138755,139.8575409086793,155.7194766746498,159.37991104798311,136.55602756844246,140.71576589269833,156.88492761636178,142.86268368255668,137.5533116918848,153.6755578915167,139.70326527613992,113.95477449757162,120.17899918059885,118.34334939925715,93.3763332672726,95.93914904795261,108.6070672980895,88.62743871502364,76.55868519714738,87.65556563572608,71.55084725450442,45.67309879835459,51.740362770438544,48.408856812690914,21.603350143245677,23.64857362507133,37.47930940306182,20.999983566888943,15.594396812301296,35.61393923285388,29.768341638950425,14.795395649622225,30.194547026324667,33.11807429396323,10.367755664326522,16.188088614757632,35.80420340437585,27.788523519340906,31.325974967491266,58.32775791282413,56.55990044228987,43.69622515821837,61.62032426701941,68.34475852559811,48.882555764118536,55.28049446956266,72.09729562888849,59.22824691531234,57.25668226917614,77.39614623322102,66.10762783078553,41.48937223213068,47.922088820345905,46.621046785238775,23.074548780753744,25.842609853178576,35.711132572568005,12.049790288051422,-0.7727454481944775,14.667174800677907,7.324000984797147,-8.829710174326404,4.994088575348158,7.851569667566165,-13.264190890306203,-6.3214254880750635,11.827404166029444,-1.1626048360347436,-5.660730447291613,12.487801502812882,2.744263688181891,-18.530303485063495,-10.76203571591003,-14.639907113762366,-44.16061706818775,-47.44459796642005,-39.32635676622948,-59.81107532392866,-68.06024137088131,-50.14370906451711,-58.1010387469866,-76.46857478963769,-64.38127546890948,-62.377870389127246,-84.80863897958923,-80.88062266306892,-66.95241316584024,-83.2090242794784,-87.85172668216907,-66.79431435955334,-72.25171521898807,-88.56643395500718,-75.45306191285985,-73.93619139669882,-96.94313103619713,-91.90735837349304,-75.28750840181598,-88.59911942707248,-90.75717965403764,-67.08487879947361,-68.70796977673464,-78.93054460063262,-56.936124318801305,-44.99182585733193,-58.11066822522199,-43.85119240994315,-17.13404422656803,-19.15143723985465,-10.216578240376734,22.53854829635632,25.97212595472714,15.625425520266838,33.79967488655428,40.99294686982898,23.575551410620985,33.581418339787994,54.73655025395837,44.59809585324825,42.441879724427935,62.08904356164677,52.74526706164279,31.544097274511106,39.65406250470075,35.614477068753295,6.430256098837687,6.567029332814292,20.41837763785754,3.9107767765079062,-6.955817963562465,-1.714341817209073,-29.604498274543385,-66.20108097727892,-64.20620418053124,-65.43623327211027,-88.4960968775019,-84.22686351815449,-68.26725145596467,-80.5078041984602,-80.08322335633555,-54.046283866873225,-55.567316519911344,-67.77688399941175,-46.163232955975424,-30.66477393486702,-38.735546811156404,-21.905128348010937,1.5026261822078828,-11.534410835282886,-19.722628202562145,-5.834862495646355,-17.96648462740793,-37.61812875990715,-23.365455502250157,-17.170106342529774,-34.64419093959399,-25.67426017970784,-7.184629158881088,-19.81099627187242,-22.313217908835973,-0.06277246106617973,-3.816159326131241,-18.10368005509476,-4.1936413697049355,-4.5493064868844755,-31.68588480599928,-29.957488142145827,-13.664236134888062,-25.431904280204243,-27.192117062093565,-6.806553760098263,-14.932046333047841,-31.847210573327473,-14.067079284532857,-3.666868026436463,-17.540544976401392,-4.990320461194573,18.076907081381076,10.44166447417106,12.964912393578116,39.54670798869189,38.26449667969784,25.80538840387357,42.63163980045174,46.11498513752151,22.734763464388642,26.6627253833645,42.57414881546526,28.480735006872514,23.47872328372068,39.50451111816519,25.844624811368604,3.4675430228534063,17.115773822034324,26.13680418604215,14.277495288744577,29.16700065795373,50.83983883080098,37.57693603402571,32.3146625363655,52.12393848230678,47.61366274645769,34.29316009023675,50.19004741023383,52.482539247766866,26.935704819806357,25.273507817508143,31.524301319056892,5.538004137504908,-10.30855588938788,-0.016246262922884114,-13.187634180519204,-32.49785595538767,-18.218695005792995,-13.911791480482355,-34.55136712968862,-27.64700959401527,-9.101204130910485,-20.024106042924334,-19.508611457362527,5.502684023770394,2.8759667972529233,-9.398908171864933,10.459659586780017,19.438435974242278,1.5562705768836134,7.997418677365815,23.07914565024257,8.033571206450459,5.808260500641177,29.495645912216077,25.27582721492435,8.231306538844828,18.85321131341739,16.734144345292833,-10.067395981005962,-7.632603432137664,8.917819546138087,-0.8995275585098037,3.6769687676872884,34.328518241494436,35.93696575811779,22.85275343807566,35.808714850201476,34.83125781802155,7.747369488617993,6.497546394538356,13.308540315709807,-13.151614100790228,-29.862364064094,-19.320146095371072,-30.389475199757147,-46.60537780132228,-28.95589946471103,-20.469300626691087,-35.99836476630029,-24.177546980816203,-2.04256869739973,-11.048727415852824,-9.945943196723837,15.575811376976535,14.000813986308632,0.9032813212302635,15.66062771139826,16.927713586562813,-7.650159900614344,-4.294405300495631,11.838338829876518,-0.31816024093079776,-0.8538625481322684,22.545582530793045,17.291121246294324,0.15007668836826227,12.167807133148683,12.047179158951195,-12.764319285506446,-8.629357420456728,8.669235782311464,-1.731811448259709,0.5928491887697414,26.643585634061523,20.870375422883004,-1.817159626665143,1.482522996081027,-6.642626350775489,-35.86386425235526,-31.207164098590802,-10.617642079079165,-20.13942575484974,-21.738753708146962,-1.5891366422193247,-9.938320318792865,-28.02048769374367,-13.874292016418948,-9.91856374241458,-31.401699780091565,-26.361951057303045,-10.064444548641195,-22.082408419946276,-20.585363872042308,6.799404481194854,5.62172860813817,-7.858623368969135,8.91214157766919,15.235294093896174,-2.265182365685682,8.416692238741494,29.001184524682607,17.618044251623814,17.081341065112447,41.695500942784705,37.75880850634409,20.99862556444975,33.44339960648993,34.73591599837032,12.284039479436759,20.55533079050934,44.86488824036319,43.98979371670864,58.689728581714036,102.19277707125548,120.03413327928172,125.4952998687888,157.55302149182535,173.3195696842844,158.205680273789,165.06262345935218,178.5543141653956,157.9937931201562,144.65245192283714,153.70030970483555,135.43753676681138,107.11843376742094,108.96485154320301,97.99061310420328,58.634012419746966,43.32157367179393,37.45294798775275,0.5615165966713231,-26.613386313037786,-29.534193253269514,-57.685731388514874,-92.36791079583267,-92.64955841941982,-101.74687428573739,-135.0505845033116,-140.13644701892258,-131.84948898311106,-150.6880378753648,-156.8551403106728,-138.70342022270015,-149.03763556495784,-169.99599338686892,-158.68891383134599,-156.67647126828598,-179.78644209562867,-176.2780102891682,-161.00150601005515,-174.39266536471672,-175.20209332318166,-149.56718146128594,-151.1439242949703,-164.59940200857483,-146.2915057168192,-134.8944077230825,-145.40081003147947,-128.26056046603193,-101.75745912068413,-108.39113287058541,-106.5018399997943,-79.41530618985804,-77.55149571050318,-85.6856130649251,-63.488041261537745,-52.51378722868611,-68.32552507412973,-59.90937112042962,-43.3563159118631,-59.436543380465714,-65.56489358301151,-45.046355379588555,-48.64577388261414,-61.026634137855325,-41.77877272140417,-32.75551702182353,-48.71641089272637,-36.46538024812075,-10.873506891828361,-13.738782193476514,-5.5339178303627286,26.143033544635312,28.529601357414805,19.334709326423223,42.43362356138019,57.50990301060999,48.75935007089389,66.41280123631796,92.93375575873625,85.83532595609617,85.92920695208217,107.3283416879115,97.90091366704647,75.57211919895124,85.98851313401157,91.72640195799399,77.74935883025603,92.16962663646414,114.97998336819091,102.61467967822436,97.11192660128131,116.02308655879051,109.50320607698956,93.1039077929534,106.51354152185685,107.96099800992673,83.1768212161838,84.1605024866768,95.3714653294318,76.97428938657468,71.36798918314346,92.70659411779938,86.86460656224759,66.95417443184864,73.71158620491678,69.29622767393982,43.795425558781794,51.12745732153445,72.4491586694093,60.98933419789872,54.93552116688298,70.42337611136652,59.28005190769538,40.324634166906876,55.64793086315281,62.62188630055891,43.83185340655628,49.36282186696798,63.22484613697403,45.08529466949133,38.09127738808657,58.439506013958386,52.60058877290792,33.682585315811195,43.47070127364782,43.17642899823324,19.07137344699275,22.88659174412495,37.20281353082484,18.15233475302969,7.4362395106890995,23.822989163700615,18.02490969410291,5.5087142518797725,26.085428955367654,35.87742782905137,16.66353435589565,19.175711674160972,29.678645946115772,9.972450629187888,3.4522740359091393,24.927775346369252,19.9505128536077,1.7158724522919169,11.586648622863017,9.879411666287996,-17.055009859894163,-16.350899828233835,-3.665363726064604,-21.316375933708258,-28.76754071638063,-10.79637941401613,-18.838950367822907,-36.59204134416242,-21.555366000670794,-14.729840119837698,-32.04499220762891,-21.84278305101313,-0.1546575601350142,-10.505973442715565,-14.051494270600713,3.881110483928482,-7.244746142943663,-29.730111569636975,-20.403654512503774,-20.44347496072984,-45.957884176452595,-44.68539257049447,-30.804514459312294,-45.54456250258639,-48.7415011032965,-25.61986659059123,-27.746224662847986,-39.804810267005536,-21.18462629137463,-14.047115132243523,-34.10103057565279,-28.16455000409055,-9.375648727099858,-18.828396047639288,-17.377990626605964,8.76901203550351,7.83163940615725,-4.127363955026588,14.814368062424709,22.828806385948,3.1450698190691684,7.446178011130245,21.05089599014109,2.870566632294558,-5.353110268285494,12.380530280373524,4.47656741636399,-13.245473079299405,0.8375927750351959,5.096091510885169,-16.41607792010497,-12.106914236220316,2.9605425462026895,-12.565927446025103,-17.940023773100126,2.7508217369356878,-1.8602959218691417,-17.941115609364058,-5.1211874919743305,-3.0116068508427,-25.299021978159054,-19.458560487593417,-0.4799997586355502,-11.762610243515425,-16.016151627509842,1.3799985461732511,-9.248643593000835,-31.360634089413885,-22.98431020059106,-24.82572989965771,-52.51660626923814,-53.63506228243445,-41.825751613701286,-57.79938406948861,-61.24481442823413,-37.72908812866714,-39.89820288091986,-53.32724621445014,-36.555166980318674,-30.0418724983407,-48.78848145816635,-39.796027399073594,-17.52796482644991,-25.417567912118145,-25.669491089243696,-4.573977710682184,-13.210278126522024,-33.47211264103487,-20.790850261534537,-15.42816032886118,-35.02514439735453,-30.761562855791077,-18.839012723155975,-38.181672146543505,-43.36392646411425,-16.997866148494747,-12.800743998238078,-18.99718519212215,2.7287377816110254,10.558131011143928,-8.773012588758526,-1.510951711603302,16.51282697999968,1.6641296243366845,-6.495048742131333,8.174004979692445,-4.178792274584818,-26.069688089443357,-14.500107278923295,-11.094928854098079,-32.750860602121776,-28.10909382846822,-12.064104895891608,-25.338238864925,-26.336423419094086,-0.4553954867098895,-1.8192067072403626,-16.816175134812067,-3.097805639670474,0.7370437731724337,-19.013234032556532,-10.873019756923014,7.208347736110133,-9.936288093409107,-22.407752238217963,-11.460823134161032,-24.450119360482898,-44.32440225030379,-30.17046774545603,-24.431771096101162,-44.354608566564764,-38.998102592334504,-22.863692869393127,-36.715391718499326,-39.31130382304434,-14.533297459531477,-14.545265053083126,-26.309761944505983,-9.28475456982422,-3.1587073096823866,-21.80457395055534,-12.5750371694724,8.219941843272919,-3.6323815335509266,-8.581028514220307,9.642288496960154,-0.2920320931276015,-23.888716369959408,-18.54910426469783,-21.80212320878354,-46.09114225638295,-39.04080839762939,-19.390142400175886,-34.215078874373866,-43.79786375799011,-28.700890483730483,-36.28021243482968,-48.454728363269936,-23.553740354496725,-5.819275177742528,-13.801590189108172,3.6808979014719974,31.012206360229598,25.9221677971788,29.504087158691693,57.590928267362685,58.230685883419625,46.672763285426974,65.18448980515615,73.39539116685835,55.9354482900165,65.08633426655216,85.68823702623398,74.98636352032553,73.058835100376,95.63136567121366,91.19579110319206,75.02983732322107,88.35987027987485,88.84580335880312,59.82718733478905,53.996866466474685,58.26226140972703,32.37460751391015,17.20115795987712,27.550560578158148,10.242167046446347,-21.36914540971851,-25.252431691950026,-37.354933395490775,-64.96566779648509,-50.359900243334565,-11.182809704889024,1.0292555670838281,16.908414567726048,47.98540914817443,46.424916250819486,34.73145747111997,56.711596397333075,64.86747458498678,36.12042038589794,22.60312604845032,15.860165982052038,-18.14092215869006,-33.28169754229094,-13.307308839179735,-13.599115812061807,-22.544418391774588,1.0894068882670052,15.92217961060857,3.497383364655043,13.787692686810054,32.256996499077715,18.404527206011675,14.057437116539798,35.2959396234081,30.078571630498146,12.941928804416303,24.89234200600348,24.350456301153763,-4.219869295983605,-7.1114805087824795,3.451081824730409,-12.370898299456428,-14.042550983585176,11.44463705677006,8.940996563376839,-6.990921988427081,7.849908915327768,14.269738802105646,-3.722869181496227,4.839029119370506,23.56230230535494,9.36536014406964,3.0358165840810476,21.43300016716622,13.986748570463533,-3.9712895272487225,8.361943117176597,8.979429170162245,-18.26566425942781,-20.360752185571123,-9.27528701593367,-24.84059137870646,-27.958029476783764,-5.390920447467578,-9.324578507009676,-23.332982224823155,-3.234893244137618,11.35922954260088,2.7544644459615286,19.5714338509844,44.283918451718804,33.04084528896428,25.27859291850149,37.590827900279805,21.82470712715237,-2.146409722387472,11.58545190421718,24.059313250919985,18.448005427784828,44.53570067109113,85.67901666112223,97.91807255049864,118.55338963196712,159.13300014888858,165.24642300644575,152.07016103981942,163.18442186643335,160.9455388436336,133.02002221156582,132.14585864760204,141.1432793049914,114.57402635878465,90.41664969021198,84.93210249309625,49.83552575499672,3.3337962269422103,-11.809942942989228,-36.3324601751601,-84.48606039807783,-101.04870160750897,-98.46971251544164,-120.24030948963934,-130.9336509689726,-118.15925199176053,-132.38371188163512,-155.92051653440208,-145.43096848799308,-142.01328194661616,-163.5723025019627,-159.3197752122465,-142.44341078166,-153.65250965515884,-154.64840808157626,-132.49582253466198,-138.98437149908912,-157.34568351306814,-143.93866802441255,-138.96418342225257,-159.4230588423744,-154.32392267861428,-137.23461291382915,-147.99331042996943,-145.57574326340495,-115.54006014471355,-111.38806083238158,-119.11300149951032,-96.50639122881691,-83.22366362760307,-94.53019499220237,-78.65794596213284,-51.061982606283195,-55.65284851174029,-54.94891793638256,-34.8820417568088,-45.884483165608756,-68.633526151165,-56.20572176080381,-47.407781909963575,-59.92107995899251,-45.08297847524348,-20.3113746207379,-27.862719102872024,-24.72307126827426,7.030824569152831,14.009296489274389,7.927182628616134,28.741869193392226,34.89662427829795,11.680133141962415,14.413962287642068,31.010355438925764,19.59776091626543,18.632916956137986,40.94773843587498,32.87619979902543,10.07542549240094,17.629888078928566,18.473553086032375,-1.8770770865926831,6.86001572106879,27.471094310100362,17.990444898638515,21.160752106593897,53.344813428826754,60.23593505589891,53.66341849586681,73.90054583292839,81.06036863809354,62.90312554306227,74.58440049813123,100.00473759136925,93.76274362450565,95.47064434307069,121.67954301809141,121.88586728409257,113.6174905097038,140.74022120849867,161.66796234312525,157.40094650119119,175.81139491650453,197.94570720991476,179.72018170837433,164.39159653602064,173.22275189703092,156.92554920607432,129.08278416499988,129.872757924139,118.42917613376719,80.84186118065904,72.6360216526193,80.86689807137003,60.9148219956192,49.30787287336174,60.68503843259443,43.82672499982788,14.649925615927172,16.67829989474836,9.616137298849935,-22.66513273531246,-26.86911566505811,-16.68238929280016,-35.14181813186512,-43.27493190684035,-26.00169355693368,-35.14092979704146,-54.312863613282765,-38.5886062298697,-27.306920714220222,-37.94228406170622,-20.45533018775526,8.034366626350145,2.2567520860825434,1.7995035651052707,23.92557298614221,17.419831072798956,-2.7373670745134167,6.577524689952145,6.129620590954489,-18.717798946769353,-14.101941618662995,5.569317508710586,-5.623445073696084,-11.140148558768162,5.546354173486059,-5.097007601485589,-27.305828909750854,-18.9163490899645,-22.498687286991185,-56.77433062817286,-67.95221827314624,-65.36097047554983,-88.37670369195197,-96.93310862222572,-73.67280286618613,-65.50062825072743,-54.72089579995965,-3.7214451354634583,36.757257092684306,40.10565247029465,54.5011802815716,72.43476339073662,61.866527671870884,64.75273162865744,90.55378732740056,82.23033578281466,55.696812084323305,58.22491387108401,53.108871822847874,23.432216080021234,17.841771030666024,20.436877700998224,-8.932146805205043,-26.0167701955892,-12.149034131540887,-20.33816641094795,-38.71843502459636,-26.071787261587886,-22.74484145797485,-44.937458235720676,-39.79068228732638,-20.78568181689647,-31.269692618419427,-32.74290406463432,-9.49957779033836,-13.719229491188088,-31.094313910465203,-17.961504643096532,-13.041217172102181,-32.622121125533255,-25.859807434768555,-8.862979409024874,-25.564917049013673,-34.974087383052634,-18.588302059877186,-27.734643247766222,-48.02926466172181,-35.74735320043966,-30.428451642180654,-48.35499360645001,-36.63543383160079,-11.110522777423258,-18.33152502407402,-19.333467902164458,3.7716259722361,-0.30812323282072906,-16.578206271569357,-0.9637169409720467,6.481064626929342,-12.035869987403489,-4.9010843390611845,13.707004547862882,0.3161497648235283,-5.3475514622758125,14.318273450216028,8.344248637934857,-8.935123660157625,4.944034434265328,8.69193005958506,-16.198844856305747,-17.641682862480415,-7.729950536033849,-27.582273451405396,-36.24885518613247,-16.93073338679588,-23.366690585347992,-43.6280939734623,-35.17154368688665,-36.81613324078383,-63.22538964390921,-59.07258146646981,-36.27491680068418,-39.58845603713798,-33.368098761661834,-4.164017897064303,-4.796668348808566,-18.87519281672283,0.2010933719020489,13.51429140616832,2.5932867855662423,17.731873970783944,42.83752585770823,32.96862053172498,28.702515540292087,49.3719353164176,44.48341569960658,28.816743405538766,45.1746899546716,50.57349416845344,24.731159310818036,20.419445770259447,26.92831518353028,2.937956923273303,-11.670224996088981,-0.4932149239954029,-16.90230460563713,-47.41314427258876,-46.310617302435084,-50.739288239402576,-78.39062427298208,-79.70340713463187,-71.09532389239149,-97.60050434078792,-117.69019203474147,-108.85594319019165,-119.42934951222931,-135.8294400313339,-116.7405858689437,-104.66373526195406,-118.86548524995592,-106.4025822472971,-79.25930605562847,-81.48593136769765,-75.43590117014429,-45.14789103222313,-43.46354913745599,-56.09664954542496,-37.12296860854102,-23.917809112550486,-33.73156051818361,-16.757637574811366,10.66988610448719,4.129210661275379,3.6770089299501936,27.463548996908628,23.43971268209658,4.172059559442938,13.116778913677893,14.224704197382188,-3.836654104289277,13.92527143389216,50.40986030398973,54.78854471785003,59.396029755884605,79.4332838271985,67.72413758315818,44.974284006312004,58.66781873204918,67.73114868372832,49.133327412070585,51.15342114030716,61.795320902031186,41.162130864162876,30.06916843980283,44.71625235902094,31.275381293219937,3.487005124307787,8.824257798968478,11.516029833519786,-7.400109469545635,0.48975810087336313,20.751209503119963,10.754996734037876,11.032682937953638,39.05424421219928,40.13794610683854,25.61485539965137,40.99917862371694,49.490351017013744,33.24471829776576,42.95946750911869,64.8627463448566,54.971493192024155,52.24491335986491,74.96405870981529,71.38449460428849,53.97405125280241,66.20691896338914,68.70657779380758,43.039647322377746,41.55067694999462,52.543138059057554,33.40198428185674,23.782629592546392,41.33867473144858,33.09439592859081,10.98789228280582,18.098790031809337,15.250361433483821,-14.034871770056073,-14.715925477290053,2.209669777948897,-8.849310744803741,-12.66476491863166,5.940863035662947,-5.275419564013205,-30.942064652617493,-24.136659369997226,-22.20651946771157,-43.140042450887016,-36.59887592652657,-17.383395134376464,-29.698356623215844,-33.54562898236223,-9.889768045729511,-10.227481449976237,-21.747579037278825,-1.45036362365496,10.190584126117088,-5.711119439403331,3.0627339736868695,24.236425649704554,14.168485093728169,11.643312852928345,34.620112241623794,31.51702920241369,16.230723784532287,34.693532793062595,49.025461155420444,38.705637168640536,51.546163985435605,72.78606734192996,59.538762442422765,52.93710527736786,72.36894375247638,65.15191592876795,42.37641323770528,47.630343559259444,43.61195258913785,14.220999954673212,12.423833579482409,24.751653448879832,5.193345268382252,-9.071769119805609,-0.7327320181539108,-21.511893064803502,-55.51664181113271,-54.44977098274367,-56.22813295285551,-80.50439257622507,-76.67780398355413,-59.35432901499348,-73.74325921216563,-80.00066946321256,-58.95868112477474,-61.810339276656336,-71.88188508271355,-39.71024903279015,-3.9285003269298997,11.769843019107803,53.472476554227875,104.67724327532245,120.77201767558553,142.8157071254658,188.3383750526943,200.29143820431722,188.4277985756128,198.397851293284,194.59130795373122,162.01075125476626,154.08097932885494,156.97535691135886,125.71441662215415,100.3988416947058,100.21894753895167,71.93293832494639,27.90267640476857,14.235396530793125,-6.70511983143809,-52.50071270844186,-69.69602390850123,-71.64894229706547,-104.06917590496631,-126.87473431489069,-120.0850454935865,-135.59457036487527,-161.17340846501943,-154.4114319508092,-156.90078088838382,-188.05565120239808,-194.47783622544054,-186.78841728580238,-207.87132018447346,-218.59169762763904,-200.92792354130933,-207.6245205502419,-227.1470893834782,-214.8853392286271,-207.7653276365512,-223.4692596805119,-208.30122482570405,-171.34494471884153,-157.12851013644206,-130.94092366908447,-77.94549855908448,-54.98467432185191,-53.75678410738208,-27.445205720648595,-9.79973626687823,-19.05321763596362,-5.063297744946559,18.49602467642559,5.849453029127247,-4.572242327369,7.524339882835049,-8.256577241117242,-37.71385641422514,-33.16937391648413,-30.903272838533965,-50.64960751403484,-43.435022358077745,-24.10480362931128,-37.63600988682674,-43.535724441254715,-20.548700350840942,-19.997081290619402,-30.61890588047562,-9.551958139655369,2.432448293633465,-15.380371236990685,-10.393599347013197,8.204706789093185,-1.951586183277434,-3.1591139750167967,21.08120666919193,17.085511936942236,-2.6325806985956497,8.882470525788722,15.344831769554064,-2.4467168518610496,5.785509523972753,27.69430298902102,20.195762320348614,22.780529635423008,54.074882629090055,60.19027376045227,50.638251296853014,70.05179976388057,82.45874948736585,69.87685773251118,83.44086390540531,110.01436200399746,103.72829981352005,102.61624605685434,127.39022902421985,127.30638536295766,112.89720902636506,127.13851274989266,131.31467838095685,106.52134260660334,106.40389506742713,121.213751621808,106.39619687676432,99.36688530588752,118.52092256809468,110.73402631839951,87.87583176919517,96.60648261079243,99.43631732532504,75.92250433800999,77.14420780356144,90.31302899606041,69.28285393432866,53.49406636426398,65.17438817694655,53.06578912508765,28.222850672712866,35.26661590758157,35.176889335825784,7.864171142599765,6.401024359663056,21.049897238225164,7.8590537719759315,4.781498612781127,30.492657162319436,30.77542968320409,14.269905928871088,25.84548790208926,30.025975449287998,9.336752766196039,16.889551606938966,41.358015741891506,35.93421745513307,36.242394997714555,60.33412854882575,54.72293650359062,30.12236598854012,33.9423546016622,32.41118925607041,8.388612513815755,13.89716743412023,35.67521515589215,25.347491783604017,19.03912653581261,37.7486595044847,31.198905291145568,10.973680352524354,21.685873897808122,24.07593125734584,-3.6119636801487776,-10.213355542591785,-5.755282968052642,-33.42714109317643,-53.65698745390049,-43.29348762202281,-49.145065743271935,-57.81797831315146,-27.540094655854727,-3.500321429188081,-13.699037689017366,-8.651464772228444,6.58009845890872,-5.395371530089904,-5.308388790025688,21.65687646530818,18.025828284852658,-5.863446220468387,-0.624435920077814,0.7459328195255498,-21.64708891228212,-19.71774237988798,-6.729035511596723,-26.972858527632063,-40.9329269406465,-27.09061406690911,-37.04927568815049,-60.70834265724731,-52.62192046058003,-49.167470605266054,-70.06340174175396,-63.66668232142885,-40.87165375117368,-46.628173053439625,-43.25464611985833,-12.617040621265582,-10.25611601541651,-27.338214091040754,-17.74819741390116,-16.30509185371371,-39.721138092825306,-34.38946333757124,-12.250159456175865,-20.9289885747432,-24.50808743946117,-3.3365751876413716,-9.528163719625844,-31.98617270212071,-23.153095241140463,-17.85174565302609,-36.27238539580503,-28.88607329497458,-8.409928532129404,-20.912739409089827,-28.690069842873044,-9.965873450070301,-14.930525180825994,-32.83664015986848,-18.689386794162942,-9.799539219737632,-27.418570034371943,-21.503287727797776,-3.4150698191442768,-17.992282387043346,-26.557502090342947,-7.601638571016587,-13.145078775935918,-33.05876106933035,-21.422245171892836,-15.998779504780867,-38.54725781000549,-37.090760076844845,-20.932545096725086,-34.38330408821778,-39.262582291133725,-15.777489117773621,-17.780165070720706,-36.03996891856601,-24.494763711296386,-19.486660407774977,-41.85703241022587,-40.415820591490984,-24.71381150280974,-37.47861157008993,-38.45455790263487,-6.933195366491036,2.1620667017962543,-4.535597703720736,16.44891281682085,28.51611442453756,12.96885039106199,22.217707985288683,45.06613609723061,35.04028957710641,29.30219904310978,49.25103779491326,43.681559281246464,23.131961076577298,33.42456664003894,37.82998948401721,15.897074290655056,18.376124242918632,33.172999489228445,13.772472654140412,-1.686427056803912,9.927850853706293,-1.3136139047866466,-25.08909878663175,-17.173320943390237,-16.646668494335408,-45.08792669358909,-49.51022499231085,-38.61810457638966,-57.924319965508275,-70.28829627737399,-54.25540826404479,-61.74251548160983,-83.11120016275925,-71.97501138841974,-64.81672630613137,-83.91810621678474,-78.99411529590398,-59.69504677989883,-71.03911349978941,-75.58405296494607,-50.7235732776077,-47.19268450506338,-56.61237757086422,-34.70640765932583,-17.870972097902907,-26.285571465429815,-8.109129193114278,26.167973964509628,28.69758040252117,33.05407421267741,58.584887495378894,54.64241479531822,33.449760959617294,44.03155598419651,52.12589916202212,36.624537049974656,47.94019937596877,74.30968847647762,67.05115407040515,61.2993253517549,78.37149849700414,67.37680462330368,39.88103959448763,43.666815532607494,42.60391291192598,16.167895817631692,16.8702665147003,34.42593772114994,21.736480400219513,15.056305477796261,35.703209729157315,31.927286873252477,12.941492821752625,23.90162339600802,27.320711441767404,1.359750715791824,-2.332247874702997,7.561982876742119,-13.339685365042754,-27.068581622845645,-10.228068196556354,-11.315069574009408,-20.086953014033096,5.856266143573864,25.804091757742395,15.971467587604067,26.845534872011275,50.11824811143818,42.253162392092264,39.421857962891906,60.66622710529888,53.925315390823016,30.346390795732738,38.19487585244683,41.977638279915624,18.808069552377898,18.682223058851697,32.27888606133026,14.32801564498725,1.935168305954289,16.9831535309559,7.409886152382516,-17.78461996014471,-11.082969276115392,-7.204073691066809,-28.48696321631756,-25.13859903349654,-7.038147152218247,-20.433342794962893,-28.78660451198145,-9.888625980142958,-15.760046638183903,-37.806048663454966,-29.499462333068955,-26.569848458148904,-49.53902201018565,-45.18091636627808,-22.782550794191224,-30.71602524872098,-35.074507799346144,-15.51505065945677,-23.405815662272886,-47.037227436645516,-36.54260231459226,-26.673816922194117,-40.27213613257919,-26.552151376404037,5.171848419971164,7.138161692139274,13.631972671517245,45.49302785705728,50.352403166447544,36.779190532886524,51.6998504892997,59.98086368275633,40.48214047762809,45.600430804869475,66.92155647244606,57.49963329609105,52.72329466542342,75.22448673536286,74.25196211866249,58.28817841217334,71.99212364930798,76.35855942681182,47.790620470004946,39.576709723692275,45.133163444938155,18.779306018120113,-3.3497736898555504,0.9917789063763935,-19.149520071884535,-53.782272000164696,-55.22184406188329,-58.90622707911689,-87.44333860538403,-89.91871800677993,-75.15611442060518,-90.3529239737578,-100.82326559312393,-84.02287772974412,-89.59391723207129,-107.53766415661089,-91.36297257767042,-78.08410458176343,-91.8063654869876,-82.08821129061161,-56.27692207612551,-58.85826383513454,-53.871512676229656,-19.817459609336744,-7.925849438994582,-8.76272235971299,25.43073012674708,59.950822240655896,72.3228083775868,112.21651869438038,167.9955535542573,189.137614360942,206.66308049008418,240.1033696694218,239.33101998919295,215.8154872551844,218.83567041215576,214.025240367846,178.44952390957636,163.63197161020418,162.02034348952253,126.59428635003431,92.82358334966366,84.45897724733847,51.33755783503672,3.0457308234953153,-12.257612069943136,-29.629585638158296,-71.2017744173237,-83.22669527051393,-72.33228541467597,-88.21520476402202,-100.60808403718072,-89.69224064472024,-105.54695989194465,-135.678981353503,-129.86566019221453,-124.36740052302507,-146.11333340217385,-147.29231993571534,-135.79952891940965,-155.5722191627385,-168.75119639628036,-151.8379134039649,-156.7420019574503,-175.74910735198864,-161.61684222228567,-149.2959171423799,-161.36486158033497,-147.0208717677723,-116.33654192641956,-118.20843334448641,-117.4300526754595,-89.99447764623883,-86.14825023607624,-97.41872265467757,-78.42791093555613,-67.40416491108684,-87.43351040090009,-83.9215223295497,-61.98231631377317,-68.39779210093347,-69.96667085945168,-45.965741716785985,-48.27085752941683,-67.6816850359583,-54.84359941303596,-43.501370094719306,-57.91898810457665,-49.39193645024055,-26.914223515325858,-37.27536490202866,-45.03228639314171,-25.721151945275103,-28.19467759820901,-43.701023349348915,-25.849353948537967,-10.442102297037817,-21.441255465384657,-8.491592486982002,20.774264381964738,20.022923124767434,23.965837969502743,53.689526038065345,56.346505829610614,41.939212771693136,62.37812095343902,84.64071798822533,83.47812025461899,106.14439048834484,140.77417427252166,139.3825307514254,140.81225519199455,171.3724199294475,178.33871589927372,166.4938819748848,181.4419994805719,187.75699662454133,163.1758938696642,160.38669026369874,171.46230843090478,147.77113436831098,123.92435885746796,125.43724049588172,104.83753622234156,71.48334654348413,70.72291242798396,63.97348342241855,25.560186198496027,8.195926541905388,8.676658935325815,-16.884907692645402,-33.33546626995294,-18.792974557019328,-25.533603487711908,-45.906370523781064,-32.68217984671351,-22.34541170055884,-39.88609029685677,-33.622918166986,-9.900141124514647,-15.802464997267082,-16.98131508401821,9.563678768547412,12.867232209492242,1.0679790459356484,21.425282074165274,37.734035940088354,25.116399617433117,35.175120582143144,61.48176912630863,55.84191793894051,50.638550866393864,67.58131390467182,56.12337578544375,27.803115976610158,35.23972721880408,45.21649953042393,31.21522723227042,39.818521713194286,59.79885281138558,42.91915928734788,26.635043342833093,38.19059645903973,28.27559210630922,4.358836657345355,13.732310841060647,21.6157074538595,3.7568346515530138,10.084034865017633,31.682261163825125,19.937474639094454,10.34112267481644,29.145458168406094,26.83465349597452,10.167518119055003,24.77573618240728,34.104293837277275,14.579763477414147,19.167582718728465,40.87314247303706,30.449144601722757,20.868154127435975,36.16250936585252,27.943069829667994,6.562403254597363,20.13331945170295,30.947610687991386,10.671661337087333,8.839366914201126,20.38368865833412,0.5402205788985928,-14.61333658774213,-0.7739481297027844,-8.985582674469137,-32.03262753989501,-22.334776136452547,-15.341788985394428,-36.45197815166324,-34.91656962472508,-16.686982434391567,-27.82149564999756,-33.79483305782861,-12.962779352984343,-18.028963172259765,-40.12714034644332,-28.676842534631874,-17.21915704810155,-31.00690979388648,-21.962909739602086,-0.3237841944324584,-14.269954693635647,-27.230938537545658,-12.736059994822671,-20.063153679197438,-40.986637285051124,-27.207431700194203,-14.49861064777102,-30.764005727118526,-28.105926091935963,-13.60618882965797,-32.93541383069982,-48.86602957641519,-35.584907478164155,-45.06227977960605,-71.98595083927586,-67.60211170224765,-62.67223200412655,-78.85882808714406,-66.34144480703418,-35.08120904767041,-33.683966111227285,-25.82063835666749,13.993274881641396,32.99306379259821,33.21073737721974,56.47258841980354,66.85206745035178,45.29076335035804,48.6661105869132,70.52408653846051,60.48483148454248,51.62460582123735,67.79370379811499,58.47740397434985,32.72174139062808,39.236326059371216,41.49026725930763,13.220626147767367,5.291530286211927,10.188505592723065,-20.138641054338894,-48.40909376898307,-46.653348990700025,-64.94863738354029,-97.1153050486384,-96.27288057609249,-98.16470196374517,-127.1531700277732,-130.82801935455058,-116.31550640211321,-133.23767857490606,-147.4605027914417,-132.91049492547452,-138.8888671480048,-158.4209553791234,-145.67058883631444,-137.4086495872533,-155.36276289765956,-138.87006100168404,-87.70778096206709,-54.73043464947891,-18.84056980503873,31.788385583299256,41.67224355848799,25.23875363830514,42.752975189177626,63.5237093792944,56.23862945605681,64.6806373904777,80.28651817998598,56.82710526282948,32.33602648694694,35.03088043610893,14.398277831233747,-22.814557965408945,-25.691544182933455,-27.3452281948775,-56.055174248410985,-64.46886700486291,-58.52078108880447,-81.79965305700756,-94.16804301639824,-66.6317488610607,-52.19548315111351,-52.27921076482081,-25.15254124898502,-6.332016278316036,-19.644937666346564,-12.284248255704608,11.350474683822242,4.701432665253081,2.854053820449665,30.448244659065146,35.28861107131746,22.5258036797344,39.54467668853346,52.734177658536254,38.79507255208378,49.187751315216644,76.18229302350215,70.38779966715163,65.26348973651271,85.1100215907959,79.25247410860766,55.19878274387317,61.70415238597782,64.66214324175127,39.476493495141334,37.652518225684744,53.20823589451929,38.59834191374421,27.891433103906024,44.32861248456991,35.229660698242384,6.940685519994081,8.840405339583512,8.233205643022492,-18.788289783785274,-20.780101617629093,-4.545750346108944,-19.340449111945986,-31.346381666828787,-15.27135895609472,-22.51441862603544,-47.44897793432436,-41.60408819213927,-37.14680273848731,-55.639362350244824,-43.37931444758615,-7.74701751398516,-1.859538790751602,3.026751611010104,29.844591575060253,29.967645059913426,13.684615266094532,30.60971666883571,44.20827686301621,25.952893679810742,26.406953736186797,42.39321508278632,29.182323395673436,22.553296444265186,46.24697635289396,45.296679222051516,23.051898416972378,28.74305122493497,31.191532270634063,6.374013140216118,4.375878327868897,18.290699701448695,-0.45164449138313856,-16.64579914963857,-1.3632858992470034,-3.9480637338702667,-21.39907120701917,-8.080495764003127,2.53680113201456,-13.457891134249994,-4.4691325468460255,22.748159858673834,17.671199194570832,12.339502892712627,32.519067347099146,29.29865459781795,9.994579066497604,23.236909361220693,34.74515870150073,18.30172768380418,24.008883540528302,44.038863606379635,27.718052317876758,10.289868897929935,21.305129262868924,11.830957237686693,-12.171752079502344,-2.691319703746432,4.877513322490386,-15.289461481914575,-10.190748897184646,14.74762344802435,8.211335869179974,1.663860016372994,21.10787979143998,17.011757775841115,-4.244674867789406,5.561156253923971,11.660731118106844,-11.95597005459684,-13.12598260929855,3.614125147033022,-10.304248596552354,-21.167403004054336,-2.57207824600051,-4.1717422912855,-18.95798450801867,2.831432776979952,28.652356663888874,32.31686453409168,61.912266614762686,108.97872626004191,122.54809816821921,134.39484924948914,170.3079638763741,178.87555314406723,163.08045970873735,171.08293906840635,172.2660699097973,143.94472589888824,138.84587665120625,151.88882938090018,133.48105189885044,116.15531784058776,124.75563297687594,107.11547065267517,68.06872868013802,57.01206413733221,43.05003206812162,2.7861554765871865,-14.040584936769246,-14.9308947745251,-47.65563515232157,-76.51917883425087,-73.66994520690787,-89.91615316386398,-123.66438374119082,-129.70464890283256,-139.9960588418892,-176.4081919143458,-185.9533153553134,-175.1037435669934,-195.61783187353961,-215.60885735628995,-206.7778482699969,-216.40815119891974,-237.95657144947634,-223.37598303108706,-207.31024593781893,-217.55360321146873,-204.90022750650934,-175.10470272619284,-176.71959950060176,-176.26654314937934,-147.02880439438104,-139.03852695749316,-148.63807045835597,-129.41127449304648,-113.82966310349808,-126.31092973394937,-116.94281629367379,-91.4090079813563,-97.12726705075988,-99.72185440443567,-71.58041516819499,-61.99136167607361,-67.72010712015259,-43.88033057085143,-24.991192596231176,-35.83886801070973,-24.339520599391825,5.048020174709174,3.4062558516204793,2.868205482659702,29.14079093141467,32.68993870581636,19.578199299305687,37.90375341968371,53.06692648317667,37.58938658115718,41.13590756122955,58.273973364065526,41.337540125520306,26.034153789295637,41.760627893821116,40.72129862597783,27.282526958932145,45.409328812216096,58.481637229014034,40.483486726107756,44.261241532534356,68.14997080605374,64.54398369604242,63.38047714154642,87.63061551753398,86.09774079174454,64.54785499426036,72.89850076601402,79.10909451656389,57.97747528183504,61.03431766012565,83.32858528951877,75.53291408741723,69.9147596058515,92.06659802321641,91.25585164907815,72.23601937571897,83.9815758571231,94.60605528238156,78.06755542829518,83.30400728408239,103.2795373566235,88.01426737819754,71.62759776247613,84.46266836717457,79.71094436999401,61.689175450380475,75.01779968205747,82.98673963679242,58.073968327698196,52.12285820571217,63.65226571019736,47.08355984036866,35.919181914471515,55.00895873982708,51.63536733308916,29.125921247919592,37.14201629711616,45.0102141713647,27.14025918679844,32.22659705837724,52.43803096230695,37.75020965685982,23.133430682913314,38.40628124897584,35.079509362067085,17.93641160704999,35.20067339760345,53.93679478725603,47.10783150098182,62.62538211554688,92.10678136250476,84.43432092888618,73.23457433818628,88.29567870766257,81.9403776702836,58.96066592190124,66.85530403374324,72.27859711375382,49.93942239744409,52.105650731375796,74.10736504272576,65.33053518491167,56.33816510965626,71.66832259915117,60.26025057522737,27.055610521188793,21.785157498267715,14.565980126791338,-18.240300291675474,-26.521451015093938,-17.297692013813116,-41.63494222340804,-66.90821075145402,-62.51031702958993,-73.59235393899289,-95.6086280119517,-85.51655274716097,-81.0915650492563,-108.71405061127385,-113.22718640506574,-93.71428869774806,-97.51790598686084,-95.18632818610078,-64.43652678056749,-57.29025417050429,-68.22608989535136,-48.30634446135112,-31.905333978565658,-46.73957386606615,-41.94922033476408,-20.74236680591771,-30.88424276238824,-39.596193821014964,-20.594031440114335,-23.511825352138008,-42.501546043523085,-29.255347910630377,-18.60932310105749,-38.902576093007745,-40.12838517346464,-25.299380672422807,-41.055099149431896,-53.66190271186882,-34.7634012694623,-31.09868433242045,-36.651705314510025,-6.103990180713929,21.060621483081878,11.537726206331467,14.00263129136942,29.409150577905795,16.297782070709943,9.653462532593093,32.58021582912695,30.240439576064148,5.366941034347967,7.393088022328138,6.005584372811386,-22.75026604146596,-28.06783323613473,-15.227321710764976,-32.56276009601676,-46.41802077644254,-29.6218878521384,-31.30136309027752,-46.00456955292269,-26.946052166956974,-10.426599356274142,-25.24804468128385,-21.78406049638634,-3.6419616715571568,-16.878571953850564,-27.082312426852166,-8.060646006118557,-10.048113279144175,-27.54699390476254,-12.113893895061121,2.253172672999529,-11.869913131295434,-5.381546654382302,15.58610512196858,2.7862395733177543,-9.500553824262317,5.552932127955961,-1.7194135894088296,-25.12560206014451,-15.30592095377343,-5.615489482007178,-24.128450787671515,-22.557383685865393,-6.17501044600333,-21.676938697050453,-33.62776250808469,-14.613176753117887,-15.844865483656353,-34.84339827180693,-24.719801110541706,-17.398353791225347,-36.88546721683988,-31.934136095229473,-8.562969685330572,-16.959693629665598,-24.780733322184386,-5.112678265474962,-6.72767877903452,-24.0598217326872,-10.331124255415729,-0.4638459093830647,-20.136213785813148,-16.574807805142942,7.209910454766341,2.7311932555908056,1.5245460370666044,27.682486051798342,29.276491159443083,11.738597936613107,25.016571012460428,36.85363558618292,21.884259220925664,30.724246224208052,56.346728791127205,47.54328462880771,36.92869829446492,52.357569640170894,45.13502792728822,21.31102303043699,29.486885163711325,35.21322325472403,10.768866842708961,6.070414883860271,16.0137957370781,-7.89274105885872,-31.483397770836113,-26.35268721873655,-40.862591416420166,-68.86497080162931,-61.2794789831227,-51.60066304607712,-68.44896111421531,-64.76967830419866,-47.11187897902901,-63.205202777253334,-77.81154873701641,-61.85363603896219,-64.02452295699155,-80.51824080518139,-65.08094220105713,-51.55387812550753,-66.26591641549959,-59.20841590904902,-34.618269099261816,-39.7520305921636,-41.82523623736898,-15.401392597076008,-10.706404376877318,-22.845422610155577,-4.0652350888627256,11.819719213612059,-2.5305728563837544,1.8616495305380525,19.953511313461252,5.158253267566437,-7.7390756329356964,7.585164537325681,1.485188341871937,-18.158349362809467,0.08645040181096775,23.21295044912985,21.274846922283842,38.45820569657354,64.92176681688285,52.61395031200913,39.52272162693807,56.396950355423634,54.459632564761534,37.960187698806024,52.955247014804605,63.32307445036576,41.265681162265174,38.0302529233999,51.22900865122917,34.97171652570196,22.74617340098697,38.404814285815114,29.59870683264883,2.794904852413085,9.781791866659818,19.339389579914908,4.578699425640809,12.63176467232383,34.84768268492847,22.415939902719053,10.652741535017139,27.333091811675864,23.219046014462975,3.8019736639850397,16.039854247311563,25.438554178650644,6.606434662489388,10.914715729169696,33.304896951840746,25.491089766238012,20.33944397800877,42.64203951202751,41.601504980124176,22.502384732988077,32.465907601044265,37.5753820587242,13.299693696981256,11.32684271071152,26.69386297652028,11.10993039429513,-3.0077370110582455,9.32320354834998,-0.9425631416482272,-25.545203885079047,-14.563052087966893,-2.207972350177394,-17.114425773912465,-12.417679929870204,4.716413058965114,-11.331594167344102,-21.862544832989816,2.3355731832640494,10.459947441061804,4.942227786329854,30.25263989590701,49.90119837247951,36.691096664163084,41.4438571704233,60.38919388085422,47.616995659553325,38.19100482235046,57.3692910193775,52.54480144789716,27.578748419585416,31.34968496635576,32.97018940225616,8.805918709156884,9.245056069519457,27.727376367682886,15.223044442103962,3.8174008014957836,17.553172209603822,5.868504433611015,-24.072327902164925,-21.491867534138855,-17.413763108953347,-37.424750127506535,-33.817013003964455,-14.842555246422902,-28.337218775618002,-37.57751784694981,-14.663020266271564,-11.227776723429445,-23.564725013366377,-3.3589239950434386,17.25867346780777,14.355435818716735,39.89035933174905,86.93549131184302,102.93991497020161,118.58769017262213,158.40520640713734,169.2540812191076,154.80515744356393,164.21761575206165,165.18693539498742,133.31008683699255,121.61129868521842,126.36399442892576,100.41163881667109,78.91747116480799,87.4789230460887,72.85476355012875,38.01120828901198,29.805240868447488,14.864108544588936,-29.62806407894388,-50.26389918380669,-53.165135753584565,-88.0548314037681,-120.83264803688013,-124.05242653232116,-146.2853320795453,-180.85840683757095,-180.59488682815805,-180.31608109790852,-203.77055948771846,-197.69920284281494,-168.7403048893463,-168.80253605615806,-167.9991368578066,-142.79151956060275,-142.1544999418482,-157.6046956090392,-141.78178695742767,-130.8223336344234,-149.51457215508597,-144.5511064252451,-120.56283916824279,-126.64746535599261,-131.4338312225829,-111.40839768464613,-115.71727592321493,-134.51927222121145,-117.76807974485504,-101.16889965061407,-113.40767981739594,-105.61378241319865,-82.82229784215045,-90.79999448012481,-94.33392543732083,-68.01155634804586,-63.16012211516322,-75.66054310963389,-58.45727887907781,-44.30553862913975,-57.86516562378519,-48.86511879278559,-23.401047014836276,-30.039721891126074,-35.872634084880374,-15.185023662072611,-16.62212717804555,-32.921814522700245,-16.552432131608185,-3.270280962552733,-20.101276440383682,-15.887714765569417,5.316936367768866,-2.745251536231878,-5.2448790512062695,21.654659722016603,24.82854269298199,9.82262212480421,25.49889164609339,38.87292761655316,25.89022312184725,37.136096260070154,64.79265290406425,59.315169640577125,53.44207433045298,71.73259944992824,65.48313806230658,44.26598312072535,57.74250368767934,71.65283069048895,60.23455498896931,73.13424023407327,102.38256976958638,98.99533623515617,97.10624336763328,121.25905823807749,120.79037565116656,104.16661018105576,120.43837393776548,133.8381832875905,117.46063692920089,120.12100976032042,133.7637814106366,112.03847506628213,92.96531678039392,103.74063860287728,93.90919713583096,69.34467352120926,76.811382183167,80.80071992005603,56.03061644051011,53.279704968205735,65.0702590343779,43.961543883604975,27.33232590668596,41.592223743751354,34.467630488855164,10.4551152816368,16.73935676576661,21.598946391077742,4.745842197153312,18.17162977892692,51.57436768392882,51.95688952348594,50.51682587742353,72.15916368637487,68.59596631797612,48.94240937431135,61.730831431038816,72.12829668514405,54.72449883399899,58.496428382498536,74.27731460570392,54.486243650317135,37.091299812529115,50.371580695378235,44.92251844686185,26.633009052669145,40.79744332137799,50.72403770225952,31.5405463513021,34.4857086016534,52.34329711512872,37.6141763452728,25.997449494097893,42.9774091834877,38.17750669378634,17.65383408997538,27.101866209194764,30.83967486734087,4.791140207064535,0.5873936732909071,12.158764222989184,-6.649887206398917,-20.147388581338838,-4.153070318210191,-9.907586964641819,-30.604549044355373,-18.9696619711951,-9.500326704502141,-26.447168115745697,-19.64069669090386,3.1987035947623212,-5.409966878792376,-10.109275410552815,13.62193226968471,13.86755414691141,-3.6955368109361633,7.881147654687425,14.650050963891205,-5.860154933112259,-2.1247424456225286,17.35019403207607,3.6382813176651734,-8.781644428673234,5.240907179425707,-3.2816475313767786,-25.948655925676444,-16.01959031646591,-9.632123051033185,-31.281466277584517,-30.18781485162382,-13.566982176519115,-27.823954544211762,-37.80122907351185,-20.52979857968383,-27.634052898474486,-52.318246014046665,-47.694639454707854,-47.092085497914745,-71.38092426909752,-68.50605563517757,-47.64652271194562,-58.76398689874286,-69.05257159331454,-54.7240791248438,-63.537668952524065,-84.14866191238517,-68.12385423761394,-52.53247751365973,-64.77578577737805,-56.117440785797896,-33.1767138890843,-40.41838870721175,-41.199154525273364,-13.201366284952803,-10.563392226048249,-27.834982845347323,-17.24829727907946,-11.242597017712884,-31.036122485788432,-24.902314611593404,-1.6920783105007624,-10.898391257710294,-19.072236526198665,-2.2373257572726395,-9.271763880804196,-30.352455541871105,-17.441713524843827,-6.4666563854298476,-23.127574842023,-18.03686835432533,1.5319867855918083,-9.61113734978861,-15.20088531083855,7.422626570606141,5.47269387061845,-15.40445841146503,-9.474362580996491,-10.42420902893183,-38.062558411473816,-39.04114627120574,-21.50910705560986,-33.66159191981232,-41.54858664654513,-23.07879669019048,-29.045318448267746,-50.44598775856036,-39.99324842907611,-32.52917494054415,-50.530438794326784,-43.44769278233229,-20.22709059649981,-27.599524151576734,-30.12986019707142,-5.676268578229888,-6.159448742294291,-23.293128543073767,-9.666956108678697,-0.7765451182931604,-20.033623639044798,-16.846045062352676,0.0756545571159295,-14.702630134765457,-23.010585139099717,-1.8513625451273175,-4.646065283682711,-23.634867838062924,-10.059062851486422,2.601836471685357,-7.755766879458816,8.170466468218665,37.27089607327106,29.1983404371708,20.37094447819939,36.173340142294784,27.49324262952262,4.988743377016922,16.46143499878246,25.107920704711127,7.363862454756122,14.351927838087928,36.123810242531334,24.162187772388123,14.309738608776684,30.13378018961376,20.724008106957726,-4.333344213492166,2.621838752433531,5.039273423435428,-20.316105854370896,-21.539355807514745,-6.950206774764194,-23.065435518074338,-33.30612358968175,-15.25196759681661,-21.455806919420418,-43.29817661802113,-33.10527698727802,-26.97684616591555,-47.7402221181995,-43.43370237556928,-23.696675051307587,-36.34019832929617,-43.940059840370466,-22.828546516949487,-25.135207020023923,-42.28826313928177,-27.56494354285556,-17.7562304634765,-35.581330297248066,-28.44466420977809,-3.954645603949448,-8.741520815804318,-7.161044333214406,22.332722881213357,26.279248812491588,12.269278558705174,28.00821848178368,38.807095928022676,22.169043584056023,28.250888123195384,46.13685578891452,27.933159278910033,11.034820160044642,21.19440148141017,9.91402781414206,-13.507278316062987,-4.078780837022075,0.342741751445942,-22.971284870706135,-21.454960204002376,-3.2154130341227525,-15.31592198845755,-22.77971188256322,-3.8104298684662616,-7.809931693273933,-21.598501915317197,3.577465169294676,28.98389627058944,26.918964873752913,43.03160896205575,64.86361555513291,48.16418150600894,34.810149091056275,50.930017052507075,46.68525724230581,30.7568339400021,46.76305626473816,55.24977928810402,32.51841623294868,30.092173541445188,40.76056413857051,21.625114073852412,11.441488431493337,31.745043075898515,28.850338107800237,10.19008608682004,21.984214418986944,29.21386114489361,11.11891040061661,18.527487117999463,39.92684824706732,27.604796249245542,18.443243944866992,35.33240528854146,27.62103435886805,5.6058701155384245,15.686275856117838,20.637936862739153,-1.0302009660608302,2.873702101961655,21.594465735399456,7.978477387938457,-0.15611823388963375,19.41879064461183,14.924077632386268,-3.192524317284624,11.175314172983693,19.83359654148854,0.4698445934157185,4.403921122477809,21.34584714563055,5.413813150697669,-5.5759076946250605,10.932311060641169,4.141829878456903,-15.401595289346771,-1.4407117167692416,7.8618827199947985,-10.340891529404978,-4.847140776373315,13.924923525124097,0.564731883090305,-5.705153382809112,16.82945710339577,14.722722795480674,-1.9960201115823901,13.697413883678948,24.02914441878808,7.251512615608947,15.373666919016204,36.505337031874966,22.661686880880502,11.947229838721677,26.996386571795973,16.326522759811652,-8.394891201189552,0.49185470355271477,5.557586089334949,-14.615059925709343,-7.770028053257276,15.185704105728242,7.2159659758446795,5.435675814057044,30.53716424309322,29.655873961771974,12.891457323868286,26.71524638891688,34.39887203967814,16.09580939953876,25.29732770590016,52.03112952478783,48.93154423564339,52.39145214747755,84.83414873379112,95.84348014348123,95.3987516611334,127.52672099210837,150.29554728545597,136.85500529375255,137.48789387287775,144.93024904818142,117.47524555721637,96.93835082482929,107.09666784401746,94.15647325372889,63.98082450012164,59.66488753389001,44.897052881638146,3.388143064015839,-8.778120038439479,-2.79304152071221,-28.629388573087137,-51.860353858340666,-50.74024891080768,-72.83359301194825,-104.58957486771642,-102.16738288936847,-107.46501879705022,-143.03007313882372,-154.55884930080418,-149.3576169242781,-171.72871552320714,-184.88303496327887,-170.16429324341266,-180.35399741633947,-203.75499559934855,-193.88469378598106,-188.0963696872357,-205.72089427411998,-193.00082025067104,-161.4298153909271,-160.38174572409807,-155.91895236006093,-129.55143005265137,-132.4351882976328,-149.60277367977994,-131.6570883532211,-116.27508234181585,-125.98002364675615,-110.77375726916529,-83.807645893426,-92.09671968843762,-96.67427751244956,