64.04421016499204,78.50336575828243,74.53379884269935,69.16574195872805,68.96950525960814,47.91444441732994,21.47616736538096,20.689576902736984,24.679620562437137,19.181832717660267,25.99806908276914,33.041267319092945,18.87000595023601,12.286721975024374,25.907871247346424,28.58464157137861,23.22350917703266,27.68609643235547,17.004298844459303,-12.281042888073113,-22.175236801373547,-17.755473775491154,-24.53985635053643,-22.61578456853062,-8.191215361546899,-14.869883471789581,-32.462472744303504,-32.505100967897,-35.06778524757249,-47.82058134450004,-42.00810224962932,-29.437928688030432,-36.9043903790654,-40.02930342851013,-26.05069820805113,-23.451303270728644,-25.20750155195318,-8.12892598432323,3.0056474260633803,-4.190241436100424,-0.6324500334533143,7.9559986846385,-0.8303645503393948,-3.9963356596800086,6.36226364489857,-0.747945937112684,-14.645982105556278,-5.40173851917406,7.146005597490585,10.745550161513634,28.365799154498927,46.64321773360584,41.912903332485044,41.55382132022834,55.4429161879294,48.10183462579745,24.97876156180661,17.556218888677297,13.239116422582839,8.394429091222205,30.07231480334998,57.39971133094872,54.87417515110761,48.9154082469881,58.16578938924626,54.16109167745953,42.379982824359004,47.19156223481998,47.2242177191315,36.46935882243109,45.648834066143536,58.06980596484159,40.69565779565052,21.662294746885937,22.437471224193345,17.715811078360677,11.492356208354408,20.509032456746645,17.72780936797971,0.16023996091365156,6.614459134721102,27.2789775173523,28.60837832657701,27.05896807028151,31.890626243088608,19.391758589090784,4.685281057260882,12.710711181658368,16.31428956517037,4.774026675693165,9.789671476776673,22.982117039615122,18.271474914712698,18.299988976115063,31.373001864763236,25.78563628718424,9.706177697511277,7.996440651629576,-2.038392236597675,-26.404426503043403,-30.77420139452826,-23.689894289858287,-33.44844527441077,-38.69412901925405,-29.698148214093585,-37.70427487226445,-56.34744776633805,-59.87154647901605,-67.52091394729848,-85.09656999323714,-81.80341863510596,-69.82076560203497,-78.86440328298711,-85.43070719955602,-75.07075388468016,-74.97222382528224,-78.95096666760824,-68.01710745410557,-69.32979150339612,-89.68144057416552,-94.26666045254763,-90.98789280720212,-105.9417896123496,-114.46629628952002,-104.16902186353386,-104.85359544201927,-110.25117063230222,-98.22189434130784,-94.51119416235782,-108.14256107064,-104.12121091675546,-88.17757469566902,-89.22986051029207,-88.08268643435922,-74.18225818904435,-76.18396253676941,-86.16719191044268,-79.897063868228,-81.896584852248,-102.22161389607804,-106.63737326296203,-98.28411100269689,-102.06543241597288,-97.85879572059588,-78.09570745170257,-75.49023400492084,-83.9330698722008,-77.44742196664218,-76.84371216299579,-89.24363987644155,-81.64414746271466,-63.27140818830523,-64.65006057059547,-66.20396327376166,-55.988134600710936,-59.42394108487662,-65.43177309583692,-49.68316337664062,-38.119132892902776,-42.61552402883669,-33.01940720140662,-17.161082311534717,-21.030196636140502,-21.290691025202012,-5.7142384103968356,-3.9735551409682026,-10.45222522933154,-2.4310783684628063,-2.9326879271801136,-17.90247359224545,-11.17772961553301,9.593261520333709,12.345012495016633,14.40710491969005,26.19412540036464,21.177655174159284,10.966547179718019,22.324247466659735,30.091557402170753,20.769229475352972,24.835830669135344,36.240423337404955,28.802294479390376,25.208892973968442,37.52075923625438,35.05517903850283,24.845724052912807,33.89043933277187,38.63961806402612,27.394927585846773,31.723585255394454,43.08693448609859,33.8087956918875,27.954887207211947,38.50844471889995,37.64528094126234,34.863677714612706,53.315212763628644,63.74821730869006,51.50298570391024,49.138827792301825,54.79542861255757,47.29471950430826,49.73066974092894,66.79807740516408,61.41041565638294,42.454350239624915,42.21053179377695,41.33177423687996,28.89238778834081,32.34370077172064,39.438509143888105,23.402285845071766,11.256725792582797,17.07553237878712,10.279915289448349,-3.566529771694975,-0.6701239550009177,-4.162683068718026,-23.049893576587987,-24.79921407560913,-16.133395677849776,-24.552030633386536,-29.860310519584793,-20.806859764653044,-24.009804456521763,-30.147152699779046,-15.876278221847176,-8.663920212825955,-23.165818004053865,-28.666464751412924,-27.023947253630865,-36.756441233415245,-32.658637775038,-9.771808808497061,-6.446720649309995,-18.614949585894195,-19.07475193115695,-25.074163116821566,-40.714700042234114,-34.04302564258313,-17.01213151126747,-21.255552350110793,-26.458206126996334,-19.491248477528174,-26.399920114240064,-37.68375722801939,-28.400793230587134,-23.042294695247413,-33.534984795878394,-29.161598920407513,-16.456009195508933,-22.129884451851204,-24.72510208032777,-13.004328866622487,-15.703255100649102,-23.800191526425905,-13.104565712500365,-10.397430083934436,-25.980911078898554,-24.571378470139635,-10.596507591578197,-10.443096963251165,-3.678110703566065,17.505259539430586,20.243377635486027,11.218916193953518,16.900657644156126,14.895097361746258,-3.7311101708740813,-2.231999169539241,17.10020518473791,24.202889373511624,32.73553437375976,49.02828288329955,43.68190611449374,28.106024103566604,33.36247076970362,37.758322721563104,26.535749834310145,28.137500362964605,36.98033924433047,28.164719860187255,23.49444398902931,33.38075999068545,28.674860618056584,18.67017618339692,29.900793900532314,37.83933197156972,28.535516682108785,30.75169694624375,38.35522740310653,28.689684872274643,27.815395374850105,47.34449467873808,52.95720906250592,46.470785420312644,52.224815191126,49.73687220906794,32.21782660438478,35.05719041853378,51.511352339084596,50.20963880020696,49.33488715753667,60.018433638645625,54.382735302471154,42.26549676021017,50.57791289021101,55.33180959909815,43.30736673819774,43.80788275601487,50.75950922053905,39.773171739340754,32.94923444028159,39.698535039503206,29.781386908149507,12.48301185973044,15.68256364595798,16.726221795574443,2.8711311387579688,3.076142763540064,10.515568057472029,1.2336909909594027,-0.9715017539435203,12.920078944100098,9.981362554356656,-2.4677351844070183,3.2998735844905522,5.6433020607542534,-7.981086186209868,-9.259965427011238,-4.043295204225844,-15.314514566048748,-19.969234318477124,-8.989492000138394,-15.369967604453215,-32.339201189976606,-29.670592735528768,-25.201563079749615,-31.191090045024808,-22.656181965585198,-10.979584982268277,-23.57734645056761,-34.735326900010065,-26.625536137245078,-26.48071796910753,-31.05214593957647,-19.960788484919867,-18.16113647685345,-35.563339782598156,-37.70773998543515,-27.475995011934778,-32.1657559414363,-35.144411655529886,-27.339709529934854,-35.13002611333211,-47.75579356660825,-38.34828821098515,-30.97427160487357,-40.55741746103439,-38.065552458178026,-28.8091816103887,-39.20880789186786,-46.89564690279586,-37.789796805383695,-40.722509094573084,-48.62174085390546,-34.78367572299532,-24.29300875260612,-32.63281940868566,-28.610070579479327,-16.521127731615014,-23.6694993850407,-28.74332995630617,-18.74559718785209,-22.15881407963243,-30.702221529459276,-18.026382669632937,-8.754570549092076,-16.42449775692178,-10.695119761614315,2.3444691841026346,-3.4821231643971355,-6.670554414537261,3.4312926694689425,-1.627149602180383,-10.644502174974344,3.470859700208961,13.6368090718432,4.523200134954453,6.3889075703557285,14.272706420145594,5.451990574280958,4.75552551685176,21.864301687713404,23.70420041130833,15.989786774665106,24.36988172795005,27.00841055660926,13.157940937021245,13.107519427244503,20.89026023230993,11.44440321505303,7.860853316754485,21.40118932011669,19.797259476171632,8.283474853644794,13.407672556688158,14.550856140487006,2.817578095213421,8.87402071617217,22.673446189434394,15.248449234553863,10.12303541984362,22.175897650476404,22.277328173799695,14.892827835054888,23.487036439924548,24.522574213859706,7.680925625172593,6.67656991120591,16.776162698593236,9.920655908973258,5.875379087708239,16.484566759942496,13.391809292629894,3.939133733067292,13.757905295067685,19.69998891628142,9.16546418325455,12.268768791904321,23.230132235873615,15.969544516807126,12.45887888592235,24.46511836519572,21.043980693186125,7.668216955139326,11.208263473207126,10.981379726684688,-3.5997431840249234,-0.7397777961460887,12.930512026186324,7.492794161363419,2.538964117620715,10.001109562267185,-0.4228938638838464,-21.16317181138026,-22.051773355975715,-21.784750065186763,-30.742186074703845,-19.557005972314865,0.8199284866412091,-1.5806456340689548,-6.317639557534622,1.3189597323028561,-5.18025629009602,-17.363414456467687,-8.327765682210176,-2.6233719743473545,-16.34357256682971,-19.485634308418717,-15.473923967871038,-28.948969615748805,-35.70984947997366,-22.0511658491812,-20.84079896575044,-29.971359525972304,-23.706207770511707,-22.005644964894653,-34.59243311605374,-30.380829493215607,-16.50025337175849,-20.54405372286364,-20.41223351655968,-2.892047463276578,1.6153097545512483,-4.017508242198368,3.76887790022428,4.581750087145259,-9.68337869364629,-7.029127002355591,4.693851893676387,-4.0681452955230775,-12.568547260735993,-6.403668532559678,-12.347645297103481,-23.857527947951684,-16.329982448520365,-12.693469741317642,-24.674401526949104,-20.352340206925867,-4.885042352802371,-6.914700335674503,-6.585832143634232,8.306678062464492,7.235265586932001,-3.8656437663712753,3.3096966590334755,7.634999272834059,-4.263220188934993,-1.8446248663070581,10.91851920320023,7.51039677893074,7.23704491302228,21.143129978803543,20.174375315772302,12.061139723070895,27.316931456854427,46.653513189002496,52.003732703174215,64.93506315317416,77.0650081160131,64.45655145237754,52.62988182925735,56.73077884814462,47.22442842737304,29.028983163253177,28.77913310923733,26.256742770170522,10.25197049585813,10.574666137309938,20.171958717284916,11.730067691248642,6.387172129600444,15.302750296068925,8.159081933544549,-6.541320767766381,1.0998767074062794,7.710752785917319,-3.960421608373327,-3.6771778073829897,6.903187889199491,2.523021829436367,3.311659516653581,17.75395076894127,10.673440935678824,-9.971748424884893,-8.499040312687814,-2.8315077471028602,-8.71432738339395,-0.12396964479083472,14.016297948381983,6.091631913730584,-1.800700160891538,2.282228338707484,-10.572652760766292,-30.463691631149334,-26.829262605700567,-20.172986517561625,-26.20152944239718,-19.617147451962296,-6.676205518877223,-12.435103658873585,-15.59941199130792,-1.3966919275475558,5.811809364001581,13.532220762499076,45.01595633986508,72.91487202737358,78.63109930351769,91.73766337316937,113.85954927228109,123.09638817375578,133.75776291012113,145.91645006930048,123.38313678003601,77.11496865336692,51.69460066844048,42.28780034950246,32.71356257954435,33.866387980641555,27.023221408771175,-9.913775631585612,-39.270065516562426,-36.18731899687374,-36.37700781725058,-54.61982931568774,-73.27674268277902,-98.28834203368561,-122.18818167260035,-112.13752880796292,-89.16088057427396,-99.11656620912521,-123.94068675244971,-134.74476710729172,-145.0991503426021,-149.64900847520414,-132.4648740685053,-123.92346208859117,-138.82579074195542,-141.79929374835842,-131.708181192317,-135.126471264025,-133.8259763682234,-116.40092815337499,-113.51652061824868,-120.81240219077247,-111.7020761329494,-105.65382654639235,-112.51994075288846,-101.34855594944301,-79.14513774801975,-76.79897501780223,-76.76454574154195,-64.0358924171979,-63.11036216807948,-66.50959485675618,-48.55148283057272,-34.63095811873368,-41.76667603085486,-36.764383817326554,-17.912223126641564,-11.82100241314069,-2.198246643582539,20.331479196495792,23.931255713306896,14.064394045939084,21.093208012757923,25.51905149103664,11.730386341430581,9.92786055202473,20.176766576949976,17.66326452666184,21.471400499172702,41.94424839972844,44.09914452367833,28.79275446782823,27.46468720930529,30.048284434518198,29.70060760199553,52.54344989928343,83.81844815442264,86.30869571254931,77.66376109378042,79.03870764017935,71.5978483849682,63.20361465214419,75.88861142681101,82.83293780696644,69.16886394872796,68.13443851969414,78.92084026416865,74.49614831849186,73.3103907981264,86.54548871941027,81.57238757186738,62.22798759635256,60.41115803705902,60.324151074219245,48.15832503109116,51.21555206441962,62.136895086277114,50.87991143590363,39.85005873439128,48.06409318131669,46.373451881390395,35.0403548345478,40.17067686103404,43.45163460531147,32.30037824204471,36.483052716465465,50.93119043836522,45.63268310445247,39.48863546566285,48.95148825295103,46.62792991534299,35.03331178427845,40.75722377578366,45.20865501210186,34.355599927189544,36.44769782527634,46.43551911703933,35.06918780598656,21.979375703822033,24.902373327252544,19.168036303160214,9.962551407659058,21.925772583034796,30.13054501540516,17.171150160669804,13.653319080844433,19.848516720556685,12.359081300828247,11.311500298227287,26.105791535335307,22.516841240125572,4.0474548252361195,3.031054616967225,5.9768126038855005,0.2718792209834975,10.180492897538851,25.07824562674755,14.999452999197432,3.4016311408144633,10.863634333672952,10.799176354758188,2.5305275573334503,8.072111917485241,7.948809602094988,-8.55393620498408,-8.864231589339514,4.98999115016685,2.8613561115690542,-0.35732948439275214,8.543826989521788,3.179472669440311,-10.437293266645488,-4.523127476100423,1.4905912871131701,-6.530596414268311,-1.664696204881602,9.18161235603744,-2.4560222139271177,-14.76971630615578,-8.058008147535315,-6.239855960371747,-6.683127557515015,10.277309098815952,16.955024392879032,-1.8830204648794115,-10.350276556382244,-4.6788622092497425,-9.986228774604985,-9.818068617102094,4.650476078489047,2.2623531767086846,-10.600750362948334,-4.101455442869787,1.7511502493949909,-9.326657291387502,-11.122264314282539,-8.349607389728467,-24.491900753351917,-34.00319878882274,-20.81007749531406,-16.811232023214608,-22.224995685774495,-12.38051038179728,-6.84708981548489,-17.627667308165012,-14.385854022113339,-1.7493047893768878,-8.634242136474777,-14.685631698027118,-2.9212249413967277,-2.6114675902284494,-12.914926133535188,-6.9620281671219715,-3.724284861921122,-17.022377757064586,-15.852855072677505,-3.6502626774801503,-10.000353864543087,-15.209280266096872,-4.489517820402877,-9.574523547748875,-28.96852867094394,-33.531943532861135,-37.749903334159384,-49.236735668237486,-37.06235676486344,-12.36544872014883,-11.935213309696568,-18.82529484162926,-15.016182329674358,-23.499186490868833,-36.34285815817217,-25.430602047673045,-12.82773189446919,-16.75114239292251,-10.225027950984407,2.3047817498346923,-7.267595447563558,-17.167580568205462,-9.770393101011424,-15.504283544800433,-34.74034988665187,-38.54768707285472,-39.79308471227175,-49.32758413061186,-40.84082748462612,-23.201369925408493,-28.15295313658704,-36.51968485963077,-28.96236274007614,-29.10251932320068,-33.464203567644645,-18.50876237989955,-7.4785361653955285,-16.991168157828874,-16.341305329368453,-4.029036997802056,-5.248830407208315,-3.3202298635802108,11.286201167420021,5.54746187109875,-15.900760786608403,-17.701860201794894,-13.157076253371276,-19.87361341287149,-14.937161664979504,-3.0120575767459714,-10.085215176720475,-15.49402154168649,-3.7963014352533744,-4.343283382204414,-15.013537384098464,-7.621260517862565,0.17704810618860178,-7.827685351924071,-5.846779706167732,2.796106177129344,-7.491111299381998,-15.056825185703545,-3.16841309765954,-1.5744124867850091,-9.631241970894374,-0.9658798298560702,4.570139431504504,-8.013289154377702,-7.730499045738048,4.722927800024247,1.1212366190571679,-1.50384990617189,10.457537187234216,8.137388737284988,-4.304524499618335,1.6961420652346613,6.609078032494155,-4.982781810398709,-3.214887326471429,10.042834756713262,6.125008304687249,3.215483170716274,16.864811644875665,18.022518279540456,9.075727856935387,16.54089921990572,17.557465879341752,-4.7300724190890815,-15.288091915812986,-7.28416757779118,-5.8597492580792245,2.090642792207356,23.85154774409275,24.335146365587295,5.67770617657119,3.236718197929151,5.081569438592213,-4.525463068430796,-0.25807035343427653,12.594984270442358,5.2265351253427,-0.7860517290110625,13.762019880464326,19.056737475069205,12.93978985894358,20.674659245613878,23.46260924697509,7.6025099667631455,4.081148193591381,10.342562706415507,-1.3458690241009714,-9.223937419050431,4.17126525904737,8.959119116373884,3.4861242936822814,10.06383993264812,9.345981406629821,-8.310052574197734,-9.98240971637232,2.069204001392623,-0.3364242723644635,0.15729725668498684,16.46486395582868,17.56685108185901,4.009741574529587,3.9662235729780244,2.57057553261024,-10.686249506318466,-6.223827802420047,9.56592761666117,5.894940473968671,2.310641573938826,15.164593959325702,14.405281826371741,0.6196701201166954,1.2308559914595723,-1.2292267647698698,-19.157143863729576,-19.90093172161115,-5.595075112642863,-8.166402737605765,-9.354740158240851,8.979041137997704,14.544115494640277,3.6751414153775706,4.385400712988211,0.7141312265533792,-19.474393588390154,-19.994277153046085,0.9872822031049768,8.36695048529937,10.238363623467556,19.127261307571935,11.58101839300651,-1.906614732300108,12.407005130987823,34.82826339576618,40.61845057593669,51.17624475414915,68.4962449276915,72.85646586901922,84.62047624776527,114.8993873987696,128.95434293229704,125.95725960602758,134.26871134842636,135.64321115155434,113.27442459196611,96.99188448052885,89.54912890209687,68.16452439071399,54.629629797019035,62.038593724636904,53.984157540102785,29.140345717100654,17.96466022354175,4.548327882721237,-25.38712219470851,-42.046085965067725,-47.12240610508336,-67.7814272802289,-83.57821888065084,-77.7278488860143,-79.7773550376026,-91.30684111241497,-89.95383436714471,-95.29377166969792,-117.07559739448331,-120.59340390465324,-107.00678974572962,-107.20910905204077,-106.8784146306148,-92.6647801361811,-92.2763512732752,-102.22110351365001,-94.70614916758667,-88.87493311393342,-100.57491242717518,-99.1756817101963,-83.97052400664259,-84.5609982821346,-86.68563722323664,-74.78102746580224,-74.87878078009874,-83.4846081916073,-72.1262860213582,-59.658655097309115,-63.19791364997567,-54.48899469519043,-34.798321028831616,-32.83585712035834,-32.43089284270303,-19.019262069645247,-20.652970894696082,-32.63407802496443,-23.537331916340552,-12.821430407887746,-19.82127763001897,-14.261477111301094,4.905432821002585,7.571801728084019,9.173599536354283,23.8352987779351,20.655367701914408,3.057607357589105,4.683886115701442,10.093631592411835,3.5655162893021806,13.56083821510441,35.33804069369879,35.49362074843618,28.516463009462363,31.510674013722145,22.45144146550924,10.33466414340159,24.336643717567153,39.83601828997526,33.1792706093374,30.883430883312794,35.719464052481285,25.705112104458728,22.015361757254766,39.73667297682757,45.129006025184815,34.647959008520495,38.87488809521118,44.80250310187962,35.28526206648494,37.20195934480355,50.44783857302448,45.67831111956313,39.97197116777579,53.07554659635426,56.34084447776313,45.445802940979995,47.917867168306294,50.39706086636238,37.60953897593465,36.87771299310096,46.8241753575224,37.81659361640597,27.69132760775102,37.08386649991857,40.11411909932111,33.93818257869787,41.03856205285968,42.91371763312628,26.89860658338994,25.89496499865986,40.585054759269745,39.2986974536759,34.79409959975424,42.29410800965964,35.571195720398585,20.14893614399469,26.61872893106077,33.569018043366306,22.138227270969452,22.898825464233212,34.36244893784009,27.375579993346786,22.85408379791579,37.509969476031905,37.5331486012419,21.26199609190906,18.955559058118702,15.58845811486003,-0.7960058401497871,2.9576669167133907,23.205107059078273,23.865540880271304,19.13720037458903,26.697173856135773,19.150029002412737,-0.5372315441744258,-0.037156557117539624,5.014381972239097,-2.609976311767322,5.824160988083518,27.36306205444609,26.262534198901026,15.71897993178616,16.246364733026194,5.6645335208960965,-10.761131166917306,-1.8900371416200388,12.161777569024522,6.244097831576598,5.022506702812864,13.454405090480634,8.896155183137234,8.461922923354267,25.110073830669236,25.611854853083777,7.628986722895574,2.681598391805988,0.3797023491780324,-12.685214226882847,-10.081659172505088,4.570056671378139,0.3246851823853776,-7.547577123146807,-1.9437766962383627,-8.765537368711838,-25.12650253538944,-21.332535573345915,-14.042249270244081,-20.20770927934535,-12.975849806371201,5.356314823744932,4.522847346167222,-0.5334017952632546,6.993420786411724,0.9038069519166436,-17.278460549864914,-18.562563607390086,-19.136366001070627,-34.30183207605159,-33.722383794478844,-18.560212404286126,-21.4081754777529,-27.885770253188262,-20.300655082349365,-24.649502910093425,-37.81101965658592,-29.826736548799154,-19.480816297980436,-25.50009585759943,-19.165026765057107,-2.150637445031858,-7.006022649896398,-16.72870797532844,-9.292105228282555,-10.233621143890835,-20.471438806015158,-13.553573797178732,-9.304934967635996,-25.18484405306407,-28.753376897529414,-17.487866301408033,-21.841729304551937,-26.7620680099626,-15.248706935844146,-15.996184380596754,-29.11402020877982,-25.018196860700705,-19.16807427691784,-27.00874574315502,-20.205434321969506,-3.1321900611582465,-9.429048363110837,-21.199864589477404,-15.615507047969942,-17.46854656169529,-27.483243604379652,-19.985431145217028,-14.338119333177282,-26.93728728464765,-25.712746241368645,-9.460086386233328,-10.983712881548554,-17.413056996308033,-10.532976368250608,-14.860728850930764,-27.635301348789493,-19.69354627272546,-9.677515343916578,-17.503023875142183,-15.09039820842227,-0.42890413927314164,-2.923169209919477,-9.504048835928709,-4.235390026909808,-12.019193455659597,-27.13453782701437,-15.971715323760682,3.2500066985384235,3.612637263578049,5.514564720356226,11.628325663415655,0.707233386695461,-6.1412971467661865,7.864165119418551,8.8965509817707,-8.25488776138419,-11.155286159035445,-8.638091120310367,-16.13193879111419,-8.893561565629113,8.296657943589246,2.838303585907828,-6.6803510423554915,2.9515439149057174,4.845976403194384,-4.770025406767101,0.20985400889149464,2.726216703109435,-13.126702940043568,-14.795278363464444,1.6213213526324726,4.022583330513434,1.8357589433545425,11.063022704632623,6.792329358430849,-8.609931103693476,-3.89191091332154,3.8363800677687596,-8.203297660596022,-14.237551739576848,-8.816477600358468,-14.902908007608602,-16.01731604050233,1.4530864171194668,5.488702283094025,-5.9577878073812425,-2.3749528736148817,2.572192383211731,-8.532187795140462,-8.945397640814845,2.6647507592630237,-0.6564514577827616,-2.8341065604059916,10.880503287768434,9.140193033090057,-8.057973122398971,-7.944262520865051,-4.610631946651299,-16.332475451435236,-16.246345767734276,-3.9376327927760055,-7.397773358990064,-10.07321703089983,4.042779058697225,3.980524789071096,-11.327880461581332,-8.700226723881183,-0.5530343332984362,-6.410273072040962,-1.7735396354134298,12.2595173446706,5.644995407179752,-3.825742512743973,6.121953679177274,8.977125590951488,1.0498943637940683,7.892670396190364,11.389748260873667,-5.289051898874416,-8.45864163607879,7.719403481307977,11.73943377040602,11.956439334736318,21.388765356458084,13.685956510591591,-6.198629745678704,-3.574323788726286,5.913543082485597,-1.3710374557855722,-1.2380959330323245,9.485322453256185,4.2011787516060615,-1.6271588284717482,9.62775631366818,10.401690240959866,-0.9061395073946645,4.156050719049286,9.890368233190244,-2.16212758427819,-3.8949488501934644,7.806167644865092,4.586107999041556,0.8762465202916785,14.28326104506293,16.419295386869397,4.00984918503354,5.17851385045749,5.881639948315129,-9.41381325463913,-9.633422640010057,8.163682670210473,10.865776196703603,8.694767660745939,20.51094375724077,22.234573473216848,13.539772286752719,21.705761122775026,28.219881937124484,13.979800945648702,10.56198949483995,24.012645593286493,24.110014664494116,20.215476200726915,27.400709871514007,20.65765037072319,3.607723948929066,8.954155790518314,19.093683600767374,10.120727163969931,9.69760680340377,23.354110800179825,22.2736575823632,19.01649542530894,29.166584082980037,24.18008403174133,5.5844525865004595,6.719547119112598,12.566517787646902,2.3646655652663964,3.327435504578366,17.767183870643063,15.216218361316725,8.900038983674996,16.278759115423227,10.242074650294612,-8.777189321657122,-9.490814465896001,-5.699672616242867,-15.952167144027285,-15.642376044895126,-5.50882694172248,-13.254806448019899,-20.90652961243787,-7.913126744982484,-2.0261558532253447,-9.386545346092515,-4.880563651243278,-1.2716313960439705,-11.654750236897005,-7.180007319180785,10.38752920825814,7.776855520355776,-0.16382171646865906,8.196994079791581,6.888514922852847,-6.754409925213055,-3.559561472762593,3.3290108712282596,-3.09536625195111,2.6384427411227986,17.053681181284148,7.725519726584243,-7.029404699215856,-1.3952563191683458,0.9770280916328928,-5.510223759155185,2.456673253250454,10.056488362787677,3.0016306846633336,11.169044837446275,35.51624798112557,41.79924946524086,40.801899980726205,57.091968078945634,74.00099241273675,90.65289572346666,126.196601364245,152.91292809519703,144.29081613200128,130.83629193807215,125.44011161277362,107.57784171053702,93.47179094729589,96.61645074574616,83.9544222644931,53.39820550683792,38.00823619695683,26.57473108052637,1.585908970491979,-11.014448793993141,-11.880924162884966,-33.375373637390275,-59.65699853979093,-65.22736173598814,-74.08259157477414,-91.08823711480788,-89.61482983287192,-86.77805349707694,-103.8550697880311,-112.28195467080774,-107.06345005732138,-116.93694979223834,-126.34986038581279,-114.64719581180034,-110.22358082741889,-118.79560238653292,-113.90726542655489,-111.24708163626718,-127.75421687529463,-131.99443074602988,-119.29122752300052,-119.56123956402689,-119.056514536735,-98.5688825559344,-86.46252668870613,-88.18039339792631,-76.6052086336905,-66.9226429936826,-77.3592869021366,-77.87474638991347,-63.04691320251882,-61.06701026986002,-58.98515146811879,-41.0494676728614,-36.28069730087954,-46.405669890551614,-40.28677835419133,-29.904855041949403,-32.41550176817912,-22.45775911629878,-2.520684674332685,-4.9323840622038375,-14.712781126436939,-10.463569475683242,-15.216083947701582,-26.696013753208593,-14.32626175660912,3.7846059726523418,4.672536008047078,13.769241376989562,31.419888665962592,28.08149903997677,21.10372897393828,30.8830186137491,31.06733641389622,21.668577800759405,31.74756852343737,43.6441510891781,36.30259795402581,36.388590162860176,47.36718446641335,41.9483369539404,34.780502715335516,44.32524662369234,44.001021311426555,31.47323986232773,34.7374088294813,37.35777730841911,19.757161699755954,12.205349267157771,23.476581835241003,29.21875857609981,40.77773219461936,67.18863609489176,73.17408618579542,55.71704093934241,50.704721570467996,51.16472271632402,40.29350642364814,42.73882248152505,56.913144119272744,51.36472684188334,41.34372171632803,47.151532169037594,42.55463376505859,25.793238989471632,26.54910319350056,32.029420828522696,24.767604391827295,30.54346383663495,49.005824599278334,49.030463487656654,44.05241392718044,52.6886792197614,49.56692874477929,35.882435252780304,41.28064985032823,47.73957202024829,34.96335560283431,31.956689314701016,42.768272723892785,38.97380594473101,33.7489216508451,41.9950805865232,33.8274189028511,9.634546626056228,6.0551995924509825,14.5816302725815,14.410734225723964,25.20966490346103,44.28332492849722,40.83415270913115,29.404982466789527,32.493893788249146,26.705183307057528,8.576873883599708,6.112382323476419,7.696887987482256,-3.420481251124797,-1.9817901359615169,11.355582598911552,6.2187251296473764,-2.7593760090935255,5.483592694481917,8.679919081023844,5.332823549405991,18.490847480980367,28.527215581811674,16.310680098269813,10.733722922235117,17.119896782934127,9.205891559105922,1.1714614084950923,9.634672497089092,7.02856664938768,-7.510729679752492,-4.204413363291135,1.8508042771332598,-7.746981023046357,-6.276987356974644,5.279716030470375,-4.7798710953807735,-20.759180933566288,-19.058821079555596,-21.884717489433907,-30.561594992458197,-18.67170414620325,-5.549962182801931,-12.840070708281944,-9.534837512473509,10.877139301380671,15.642848321724255,12.067745739369819,15.075554555101771,0.2157310169385438,-25.707364331671663,-26.011309221921742,-15.777579404693736,-19.06036910951122,-13.880056804918796,-0.18600952984428787,-5.808124815042157,-15.796256170255932,-11.766469170754148,-17.21343570250347,-29.89536933020543,-20.8871744746327,-8.955909672810993,-18.572435710159624,-24.675985108651616,-19.397083474700807,-24.84607868166914,-26.560669603136713,-11.814939090288016,-14.025102586430867,-35.787595656215395,-40.2191398138976,-34.264700567090514,-36.744885538184434,-26.63236061357952,-9.187394610176767,-16.099375382732983,-28.20309668522605,-20.750947991397396,-18.516079923325858,-25.523654879409705,-15.898236444137833,-4.938097186388303,-11.68917273963449,-11.988931092108558,-4.8766950558117195,-16.255748134780468,-27.034832135159785,-15.488851285687268,-9.8575032116673,-16.94252500937417,-10.401491623313467,-3.475522285428817,-12.912195006300042,-11.000288513562538,4.147193552766617,1.3100686976414169,-7.393196305972574,-2.790976986050773,-10.714995522570348,-31.59688189013948,-30.017776246212364,-14.89716921737477,-9.894849315921181,1.2268721812981274,14.858888356279351,2.5423388103629225,-15.614946889020136,-12.466221265658826,-11.251304503077245,-17.628805642938516,-7.205098617423905,3.933117965287239,-3.176622301264196,-2.2360921408946597,8.811055090995907,0.889961723081667,-11.099518620629045,-4.672619448051956,-3.7465965507003607,-13.518592452331387,-9.025920744311112,-5.612789548850705,-20.904401313486233,-23.83799093829963,-8.226829658432973,-5.371605810632032,-6.0886668450169426,7.364296521915344,11.033844824154645,4.524190147134128,15.206362940959902,24.64738494000278,10.965333617682534,3.4406322279536705,10.701596733269312,6.157507300979756,0.7299990514526473,9.36128168126741,4.687491263467597,-12.853022284239112,-10.701713608869511,-2.6440817013223064,-10.494454752899458,-9.099478449192599,5.320568017089023,3.9591738779262573,-0.9646939872619591,7.563075624635386,2.188746489361824,-16.786665926511397,-15.362685040344807,-6.5921150025186375,-12.905633552322417,-10.186304253408633,4.203917972955134,1.8374915881490228,-2.806451435111759,9.4994527014024,10.709262592449768,-3.8094769934141253,-4.081713914878534,-1.3674529436593146,-13.867846797134014,-15.185866442724949,-3.2031337664418214,-8.649724608846048,-18.02517713920363,-10.33277956703695,-10.42496350935691,-20.389355461541623,-11.625658710376769,-0.627017676138578,-9.567831616139902,-11.571523149308955,-0.9293898841630792,-4.845747434376077,-9.212853311385434,4.677468043145511,9.094129619183411,0.2792203569777909,7.848815703982407,18.61074253535143,11.90153457297371,12.264317299424372,23.19044121650513,17.90972628602695,11.721076387991602,24.180728073847384,26.922247997667967,13.60495462493072,11.574577700789359,8.862195444313226,-8.640846097022179,-9.709442907439024,7.924200274741812,9.85088299408174,5.020663316561155,11.806573678440534,6.655663140948528,-8.351025382576879,-1.7317952032740855,9.88609656354746,3.6965624490782956,5.245598097906221,17.448487001717936,11.844456691281618,3.861368316969352,13.04313460725631,10.780921421845463,-6.418424283897851,-7.016656780389896,-1.6475115768309325,-6.516427836509969,4.9721117785504525,29.047727616944478,27.54469977662006,12.257306844473469,9.56911013039958,1.4882513897266625,-11.132592373093072,-1.5355532809344803,9.2412310441265,-3.005831120400427,-9.200782676021046,-1.2938673775959257,-6.224464253865069,-11.4845754681169,-0.04142177550607862,0.4183315683711557,-14.28569224364415,-15.906907526053637,-15.270997207687838,-26.502995567694363,-21.26012587915715,0.8061882450430806,6.201293287472694,4.300582041731164,13.069969011011572,9.18710193985402,-7.019122042332989,-5.572893191950781,0.4697911596359372,-7.2357059567044395,-2.8726431937734627,13.22869086573639,8.679653575986535,-1.9451573504671056,4.610964922313183,3.8283409145004037,-8.446288945334308,-5.089630986373042,-0.7709813957972056,-13.458134345186938,-15.181418303277763,-3.4598785358845965,-7.043876133301781,-11.09203946110235,2.628324282370489,4.8434290400148,-10.084515629200911,-12.440122870509377,-10.999440678300923,-20.28839523562386,-13.817470583055304,5.79147836861677,4.198460553406846,-3.160691448603264,8.047815854357108,13.316969948791277,7.550938014181321,14.965245147791679,18.543701318122395,0.43917261688267484,-9.483954871876673,-5.705622852494219,-15.420459392163373,-24.142504560652768,-13.175711311342921,-9.590765821914665,-17.418638209829613,-10.31047099501648,-3.0152676528423763,-11.792489685711502,-7.7779085984024725,11.001356498539575,13.387271130664118,11.362335525164596,23.77920008795792,25.076426727740444,13.26367612722526,17.230193544856064,21.678462399562505,6.65182213231823,0.7561022850894646,10.515423065195987,9.294214023842729,10.396072651559107,29.63988307162341,35.38346526190097,21.11775788467678,18.402418685514213,20.13869752584312,10.84654858462479,16.93867705850923,37.97684446427419,38.18079767136288,29.00717896046975,35.69365512967913,37.6838465124105,34.34584903869342,57.20733070490048,91.02291159070143,107.33063490573598,126.15882291217657,150.72886428422933,149.8814889295406,135.10029507175437,129.70386084216977,112.5460418194906,83.90121058280732,74.67011927465255,69.18369611634694,43.67763441881165,23.164953613460817,14.12875002199316,-6.779412006047527,-23.88435672837858,-22.585948493253976,-33.83739639952714,-58.79981650777848,-65.1504103752569,-67.4095916956795,-87.3856686876768,-99.2202920305518,-98.05235532455622,-108.95862978394403,-114.8001026970954,-98.77369854738481,-95.2553893120648,-111.83146360435944,-116.90506577408117,-118.68733875968226,-131.21108952198568,-125.83603169146053,-102.1757602563745,-93.67477916886116,-90.95454564552462,-78.50988795290047,-82.0663949564042,-98.04574998507053,-91.71432124519139,-77.23508533496903,-77.725336589428,-71.070777411867,-56.6833988160263,-59.60334818210141,-59.5281557197749,-37.51193672296421,-26.5965225217508,-34.491655895695786,-32.509790412495164,-31.777138173312668,-46.38866402642938,-45.48811066323911,-26.71860117021184,-22.131137747773906,-19.598709304106247,-1.9080244706786456,2.31306566158789,-8.44767304354224,-2.153631804493211,8.514877472334046,4.476602425559741,10.436098422340436,24.796766687124773,17.28435050147104,6.1485681097805225,14.70060312207761,17.151177526201735,9.93997813386464,19.861502333487675,30.050984591991437,21.94416524914517,25.102190486782266,41.74739055089818,39.85246858396875,31.475429284538777,34.98663954520397,26.026151895242208,8.212520227298473,15.993985173058089,33.45509069790552,33.518498006512665,36.5067834517849,45.25194532463022,36.465445461879696,29.00640120939076,40.32173579461976,39.84383934992502,25.495490063666118,31.267674216782094,46.410418078904414,48.11887284298609,54.56711555597791,63.3061962661319,49.14929667181144,35.7847691839026,47.3689086711289,52.45423978881133,40.57382110871952,38.2853876746973,35.77835362385056,21.289624419896885,24.981820750862497,45.40298087145398,46.610771372891975,39.32446006213719,44.54149138914184,40.20788546194404,25.961440724709334,28.848305746581183,31.686230887125,15.64287781219635,12.302477242937332,28.67114687577711,33.823904489642835,35.331598742509506,46.780312188686544,40.82700806052176,19.58897622395134,18.09305421718922,23.240189058177172,12.43650158693854,10.291968190047566,20.441362697983408,15.2453070514364,9.167962439377295,20.76737281913264,22.03121410000933,9.157358643138057,11.695812174498386,17.139584087686995,7.481548207513598,10.360848980657142,28.51578251899819,28.787201148846044,19.79482230312843,21.453727878942694,12.830782027746265,-5.105745132964398,-3.103164800435082,4.131770592143084,-4.0625185235311925,-2.9674903813403133,11.412725504688641,11.216917859735162,6.558646187012728,13.909956182714149,8.894501431087305,-8.660478125245866,-7.212577947328782,1.9273037913792805,-1.093253541221793,5.88549430946777,21.02132046840214,13.162147354464203,-3.0399041344100155,-5.348590218938095,-15.944352342540572,-33.915126710746584,-29.167860670547753,-16.80637953607539,-18.017608074554307,-10.244938674304846,4.180108711999455,-4.313127084577501,-17.32668484876558,-11.757981092099406,-11.76762710961775,-18.675724929891906,-7.066068709166019,1.7875793825013555,-13.447472081676032,-22.74133117985191,-19.1791190908669,-26.373229798719375,-27.470891625229072,-7.7567404002081,-0.2410117279734387,-11.346693430911856,-13.154781904329258,-16.575121759920425,-33.882487656915735,-33.81709529307192,-15.612388656260846,-13.575802339535654,-17.66795722375605,-10.36736807599723,-16.096231722189543,-31.977048726422925,-26.198341783362228,-15.5709797762538,-22.427802898147434,-21.287817754663898,-10.280791489002915,-18.27726893468465,-28.561419959857425,-17.841128772950768,-11.68496434342479,-16.71146253219571,-8.262720633065202,-2.5890266198065475,-18.643810425402368,-26.87403912301927,-21.765066206728783,-30.731573700646805,-37.750987513100675,-22.65174760371321,-13.056393156609195,-15.341445077763627,-7.108170391582087,-5.514665402978532,-24.69354959152158,-31.28573868175465,-20.096950166594432,-20.99534554192208,-22.265200075818704,-7.653037813123498,-5.52838450668841,-17.879942342455045,-14.348797874029497,-8.480693625742298,-18.45690858963397,-17.123507690196917,-3.36551704807429,-8.104378971330448,-17.12596947605503,-8.518432895985516,-6.0374823544324085,-13.7044323429465,-7.233738201900767,-3.2587682199381645,-19.345176077497605,-25.453115003232504,-15.496661359628312,-17.78774706900806,-22.111107543897084,-12.51467188851888,-12.895760728294121,-21.336204451451504,-9.184459937403314,4.149228423350504,-4.852395361340336,-8.604480594407203,0.6319986634500765,-1.7721251953120478,-2.436605195477751,11.802829740519414,8.995814992687986,-12.009568178441864,-15.429467056337806,-9.538995113118187,-12.359392427296656,-1.1225943494463424,20.773547224848862,19.901798327807747,8.60087019884476,8.057685106308053,-0.6623886687208089,-13.066553903320031,-1.092402492721198,15.025270297666093,9.952054265333171,6.617316443517499,10.21405129579028,-0.6135718689997596,-7.457053075268884,5.7709276242681495,8.279894502051178,-2.3546116870365257,4.704321916054463,15.00198988337522,7.766063930466478,7.2278904062378375,13.785623852167351,1.5593545152035109,-7.985518861311872,6.169245613427907,12.273302695808697,3.163381440688924,6.778227345198323,10.220836452777686,-2.0917758889659277,-1.5847715695349978,10.915337797524163,2.8790222210327445,-9.725974586136365,-3.8133787027477855,-3.840194194679727,-11.958633513209836,-0.9927784286417536,11.607583673718041,6.096321657839575,10.636945642814466,27.00713759595965,24.2997371128458,16.73278371092984,24.08491363574021,20.81251180107542,6.427607497937657,9.977491850083155,14.96150940137715,2.0887377382303027,0.1979421811827613,12.311506448577664,8.275544095224765,1.7683127515609356,11.389978658833048,10.691645634475863,-0.738872348242011,7.19886248912036,18.729426236378753,12.59656100428941,13.672276687176154,23.719062818005963,14.367597321916271,1.5694617866038443,6.9554648398812615,5.279115838951176,-7.073571498273541,-2.7534192983755004,4.827499752280605,-1.15334739267736,4.96991817294616,21.334668739339264,16.67268244475266,6.890430533542359,13.401595414597102,11.657913531637721,0.04126637408670142,4.128598857005674,6.367221941074174,-9.551292632605731,-12.607740800674758,0.2649814565555637,-1.0397449078553986,-2.4680585166957965,13.758195087632064,17.150182556275077,3.0504470098320553,2.929769721056922,6.9354836890031,-1.008340542401374,5.035620455406171,23.01756400161335,20.21496915730871,11.674124309108523,19.21910614631888,16.984078144552072,1.5684805606639376,1.802406500897236,5.099774079491355,-5.001962808839458,-1.7796155944334346,12.844677812027898,6.061155309581502,-6.056295243070192,0.31308121827101765,0.37833801898474473,-10.230832547729989,-5.300292934841361,-1.1430183905233997,-15.65406093014539,-17.49317912529419,-2.005032128342914,-0.9816512415360044,-4.622806325047481,3.2860214831404844,-2.1364013129710986,-18.720232790151748,-14.563897751564813,-3.881840315823694,-8.837338063554954,-6.807087550294908,3.9248599181141652,-2.8192664585906355,-9.563437690376933,3.8066020431441574,9.933092175551824,3.917889910367495,10.283416395206045,12.727137414246211,-4.862851180265196,-12.528163173469363,-5.2761071734317415,-8.087365825847384,-7.126357463267616,8.779532193829642,7.530268108797756,-11.619438952029626,-15.747785997815345,-14.356021083777367,-23.000543103942793,-18.748203994386305,-5.972440763118372,-12.547322220995511,-18.097749529447153,-2.789961782947179,3.1953407832532763,-5.088279842608884,1.4415926897768694,11.46958507058991,8.490004240786739,17.217523374689154,36.39249521079554,37.849562166752634,41.81612721033319,69.85130310930025,89.23461902578475,93.59943181157615,115.72959058185008,142.7772233001542,152.5206503861309,165.12391239201966,171.96427962849856,141.79394367395736,102.29797415507933,84.18948206791683,61.54248702823895,30.4929039291305,20.743255214780017,19.39399753687699,6.924497106852054,3.0425094827822656,1.0711330752277433,-26.84196249322366,-55.69164952613337,-58.87672349755083,-63.83706227560976,-79.07357838610132,-81.77095115418203,-85.88077171028851,-105.18134807541013,-111.91575971125812,-106.1100852782472,-116.26189645200009,-126.08807049790025,-116.79191472415128,-117.36658467838014,-132.1909907326269,-131.9665221550136,-128.0479069759552,-135.65826389610191,-128.8761641285703,-109.55469508632147,-106.69454891464167,-104.53840402576108,-86.95784923173511,-82.8293308866401,-93.03316492288201,-87.01495957242942,-77.18661521884671,-80.32037459895759,-71.70529018809897,-52.95973023649047,-52.29051228563695,-52.792759219566,-36.845050776278796,-33.671129116964636,-46.022148053665504,-42.83369034176137,-33.85578566662156,-35.06649820918139,-23.30449972804618,-3.108667728970194,-4.999808221681329,-9.938266635291027,4.320048353060698,11.163683999489384,7.494009213621629,18.371380197760665,25.758181871915056,13.327881427645767,10.318325756200279,18.281291412345404,12.041050670349904,11.486313776445709,34.446725213954274,48.59374163318348,45.161774229145706,48.161131410465096,45.10559181719586,25.88154486297789,23.128145534614514,37.1172025520766,36.01887692122696,34.04233242297854,49.58887505391923,55.014549552844116,46.616812816003076,50.73303976138108,52.32679466020552,36.534334694583805,34.36716770053112,47.308024471784364,43.21588722201501,35.34583556755266,43.64560794576541,42.99009475026321,31.966141664834485,39.386621761910206,49.45813961873021,40.57552422369821,37.10066616902656,42.48022861295617,33.34463695039394,29.28818565271287,49.18960112556474,61.20262612423633,54.86747863723106,52.88646683614582,43.88872151916381,20.000588156723815,15.49896327900358,31.433680712875585,35.58422804277627,38.41160513383777,50.80756234046905,42.89999205700698,19.905267974200193,17.880764439286455,24.436060248967525,22.123431386794017,33.11139832271778,48.66085662135871,37.11804831127984,20.3030163388075,22.658092070921995,19.79738562228844,10.617663349293036,20.609125161320023,30.670709075014695,20.94027068113654,17.593230963590905,23.490241419439933,15.799838843774271,12.80157953011501,28.036006338218492,28.724464240637467,11.32472190426135,6.4059119660045925,5.626932738153694,-3.941029124855086,1.992124096777173,18.638987431564818,14.527818547297036,6.694444606997844,16.105098564693403,15.584055634606791,2.7524822999258216,7.3376084111778646,16.104016485062065,11.35613668433245,16.55257921163781,27.306784834252802,14.502625753600078,-1.011422476289873,4.585364026349185,7.0117870896929215,2.4729057680781312,12.376481138116118,17.602226385667656,2.4254681942011587,-2.742423910264207,5.152805326728524,-1.6893142596864186,-6.953494368698335,8.129968498758561,13.752656254088695,3.6294781637299236,3.757212026675755,0.2892838577081229,-20.194226171371284,-25.101434086360708,-10.966946205244831,-9.376421037369884,-9.85942977740395,3.1121586119886064,2.0519480786302458,-14.269613521299023,-16.579007703802368,-17.542846943095476,-31.37763485326739,-29.17546392454758,-11.103553472274763,-9.084888695850726,-12.142262470007159,-5.693151927330851,-15.127568434074895,-34.53394703613311,-30.407349065736206,-19.892066709797874,-25.399952607079562,-23.539057881403338,-14.63881696336388,-23.85010620521545,-31.307001087136186,-19.495639209485844,-18.501807721419112,-30.837510559798854,-26.72618065581774,-18.500487315124765,-23.478812429037106,-17.65080638459903,-2.0297227040724897,-5.354717937060637,-13.057502952691165,-6.269770335368412,-8.931625310218271,-22.44889502676305,-21.230038946528584,-19.730320867241403,-32.2523552368649,-31.008714062339113,-16.453356183272632,-18.16912802395786,-22.312317009462436,-11.896278324370305,-12.560797534671503,-24.29429856593155,-19.80296790911307,-15.530433357942517,-26.95877888526387,-24.105827223004855,-8.045984428724202,-11.935902881310975,-22.494501976396457,-19.522517641031598,-23.70979104737409,-31.593229504272063,-16.604417503497153,0.42433347602751503,-3.7549691165200376,-5.0414367008812455,-0.27301587848802455,-11.810218490895098,-19.514500066211813,-5.0961133548757775,2.1254523923754594,-3.2602617058971703,1.9076638029136945,1.4757741522088639,-16.909701633946607,-20.735470396104972,-7.8122867964917955,-8.550917002961393,-11.451052180947999,-1.452361089420231,-3.693055065952996,-15.397878040138425,-6.999072363356891,4.022019699060584,-3.517346106198257,-4.3354984551353555,3.651713695875783,-5.474944569814731,-13.753245383526894,-2.147743924951093,0.7874701733558849,-9.394143807502306,-6.441728093308428,-4.756595785212998,-18.85539779547327,-19.85407928074563,-9.040207612121966,-16.195713223227077,-23.159950373819083,-10.14712018585461,-3.6511048095218572,-6.173519681207024,4.233941888799594,8.27372234153432,-7.322653698157239,-11.073830829665356,-2.6345829346848486,-10.05229982190704,-14.195627921168601,4.114750248586262,14.091216860669777,9.043425234650039,12.729694539824736,8.748894606919505,-14.47423712564901,-19.819639896406628,-2.527261949273182,3.4576242192770255,5.698581256521271,17.17020886833832,10.077225129077537,-12.150692053992314,-13.111156442495584,-2.830081386547381,-0.9182108554767292,11.822877373159654,28.229373951275143,17.3779366541505,-0.4842867566745017,0.41474549205271094,-1.7626417295506431,-7.807405437878108,6.442288611309744,19.851952443609076,13.002248824923658,14.918092794502723,26.452966049059025,17.401285339601294,3.23466788750408,3.7843077134444636,-3.6752649838528892,-15.444473243589693,-3.2940231994985263,11.796232452864967,6.208961382624297,4.983756501915797,12.17294114147154,4.850019069110111,0.5530488000680942,15.317585770846142,21.088951630522182,16.232568567054084,26.998833833823138,35.76017187337015,22.484294789102066,13.776781440616677,15.847663310747675,6.654251290333446,1.5705229745696323,13.674143271165565,11.604380721832879,-7.458249932064604,-11.488016304004237,-8.508942431068558,-13.749216796928026,-4.663794093781675,14.304760774290736,11.79191247692835,3.333569351225181,10.313573782079317,9.928511643777549,1.2803662856806044,8.414518147563381,12.719492424062645,-2.4676310195751796,-7.638377648640127,0.247907505539402,-5.27416372219453,-8.30115414081761,6.927961974770748,10.836777188658072,1.7456761397311977,7.31214716923941,10.355331730884293,-5.006272760737936,-6.977952785788958,6.4386592427060165,5.753826406127993,6.45649195997445,24.190621269117877,28.065511400193284,15.867512624822448,18.164023780432267,22.301944885961124,11.37547193813246,11.694775459629007,22.249428870435384,12.205308932638747,-2.197972977375155,1.988584305023859,2.163067266513364,-3.492023476073407,8.626647785911494,18.66278165158329,8.164019573763658,6.314609862443696,16.152491327087944,10.558233744065173,4.325294842797081,13.673023320627475,12.48997162012536,0.23280165325144875,2.760449251721478,3.8303209185043317,-12.78494542603184,-18.538125075326477,-8.625925467673312,-8.027709877274248,-4.479675233955069,13.839772519986704,15.634440798332857,-3.2229907505078756,-12.430906326024576,-18.527814371456724,-30.651141748789488,-20.703874307372367,5.270199267539802,9.542192645174584,2.9067936106900336,4.90700465091098,-4.431722603215472,-16.495845118841554,0.23946904658131274,23.310373271521552,28.061056267367714,41.396987143931725,66.66652248604154,78.21406338656283,94.14334517971994,129.4353776541282,148.56907425192637,145.84676807557446,150.56015397796807,148.78825627948,127.72908702912295,121.4354455037021,130.78436430144296,119.93686851855347,95.89517624349196,73.77724756995315,35.32571116202002,-5.921481567771579,-15.378860971358762,-14.289049115032643,-29.885526265495987,-41.484423632850394,-48.260098546196076,-72.18041879541657,-91.06921893977288,-86.41006112742518,-88.47075315115218,-102.04419716371879,-102.3799600265132,-104.90197996299867,-122.95247800610397,-125.78197367374604,-112.70792960962795,-115.47011818681639,-121.23675133805321,-111.06373815759095,-109.12072145172532,-116.44961208439975,-108.89719625805566,-105.2363752208696,-120.27084550252252,-121.91759269790775,-108.27508164638652,-108.49592654979409,-108.03565159227975,-91.48328183254652,-86.37601645422568,-93.02909571049123,-86.13151966027058,-82.64452806514016,-94.5850796972129,-89.17954892967185,-66.9135593588489,-62.80235304141462,-66.09570921739103,-56.81908671044859,-55.6364170943468,-59.236842830418894,-41.93503957387864,-26.64566112242758,-34.47118254301671,-35.03946859228167,-21.94563740788605,-20.194872667209346,-15.214510057956321,7.328807703724404,16.513802013509324,6.9253757192143075,5.314218523435993,1.5199649692950927,-13.796233736267608,-10.104064061421724,10.034963210144852,11.709181440126269,5.7296732676465805,12.60820683108205,13.957037363278298,11.7845287965741,27.41064706125673,37.24918104945453,22.873445326201036,17.39147245023747,29.395203546583776,34.52811673003213,42.808383987072865,60.78328864104147,57.84439174999081,39.543194942176896,41.530112424220405,50.95589805994212,46.678110095377036,48.17430841853174,53.412635149101106,39.491438064421644,28.35732759729347,39.75005120664945,44.25425465224181,36.12788673695503,41.09143076261821,44.93606537860756,31.769604305987194,29.459923462620946,39.98394967575378,37.00466570037345,37.2390958407111,55.99799968335916,61.78140154764068,50.28884675599355,49.33836608223609,48.558439048054886,37.699143075580054,44.64741742821255,63.85859165588012,60.925606641675444,49.70605772621685,50.095238132344214,40.420521687314334,23.936990227591807,27.576910231743568,33.436441797996274,25.03258293230092,30.506463352800605,48.22718678333015,45.95725381320343,38.26559462923977,45.98877062497955,45.09437190797706,34.516756638660965,40.31368568239874,43.67047241117293,26.42088382466613,20.666845186817064,30.97178649459322,26.558397455540877,19.82973441518009,27.98473684743171,24.720486616332423,10.74247101746721,14.449295349262472,18.23312183230421,5.472997466279439,7.632122316645809,26.998019377783983,31.79864835574186,31.206855593054392,38.1260120967362,28.50934010722183,9.449483676425315,13.742348036070409,24.855230879949996,20.0292897210703,20.614562481521034,27.627771107592288,17.333649308936902,7.067646984324883,14.243492539219726,12.714940453818533,1.6517007474868683,7.265277180154415,11.648107189838369,-3.696625483298445,-10.462672302026517,-4.275342253450581,-9.009225090653079,-8.5435073345327,9.078039723891134,10.954200591468291,-3.909522448897193,-4.49574754950293,-3.6327774768890597,-15.776045532736832,-12.912374446633063,4.053861750707268,5.283892378203545,3.1062075673329135,10.623313960309211,1.7712496124322072,-17.853262631770345,-15.244944652668812,-6.088931512897437,-12.686688939807635,-13.407144640630875,-7.015397289722593,-16.02014608413537,-20.538535420443587,-4.09823591984946,1.5658211013772299,-7.641709862799678,-4.000795638797754,-2.877838558363349,-19.903300724950025,-24.50239991451135,-14.578896155325488,-18.900836113345424,-22.533390435707375,-9.77567788918979,-8.900501790837728,-19.414794299835,-12.864097607440645,-7.829441922191031,-22.68308221822984,-26.178499483397204,-14.08452044610737,-15.250634227299141,-17.40274487542018,-6.2532995965477385,-9.09719957577418,-25.394160696699007,-24.86782743279685,-19.979006086405125,-27.451658551718705,-22.18915170489703,-6.632425688527988,-12.816762792997972,-25.888618126483244,-24.35180630186963,-29.443191171214142,-38.66182670922111,-26.662337317813915,-15.207113177871921,-24.73936950634085,-26.49649733699695,-16.2303995445333,-19.56685623934818,-20.96807988402009,-5.648296469128539,-4.235141025638567,-18.69011582982202,-17.707491171712473,-12.767712793016688,-20.74915512663369,-17.24413692762867,-3.708574893945616,-7.540288505814791,-11.903102937775532,-0.6706600062761474,-2.9595266926779287,-20.02822962130679,-21.186349938553416,-17.33896163415273,-24.268336517779478,-18.65730402010259,-5.894265780217982,-16.50593356537197,-29.854183461109567,-21.423101153911666,-15.95124481409476,-17.812831701027328,-6.3570657056356215,-2.3184708833985526,-19.97748766390945,-24.57379792317786,-10.985946818734538,-8.755656130607493,-8.626943850987043,0.22550226789930594,-8.436263553690155,-28.014495485493544,-25.32132258853261,-16.123786966033443,-20.477355615348017,-14.853533981760643,-0.4909821007668178,-4.8822902287917165,-11.536025606648327,-2.703342224230943,-4.951702990547107,-17.95295625224756,-12.249190855537895,-3.1722041533508314,-8.624618103568187,-2.042280570094949,14.690257310748084,9.195522916670777,-2.209573077483742,4.386662802402561,6.786541707763842,3.4359745376048005,15.572848004788224,19.396929636958745,-2.1514612845930774,-11.935732728757536,1.2059358429998541,9.459990067234097,17.63474695344273,32.86292638212931,27.214244472384312,5.826396878980493,3.3707394997899875,7.927763232097803,1.430660528737567,6.710071970741289,21.1767941716862,16.17401103479135,7.112688978941475,12.314555538341704,6.755803121441289,-9.928421890561502,-9.304781604376672,-5.309767885656013,-14.616090790215921,-10.8109638051735,5.646706903275778,4.554831792393026,-1.13856266584719,5.5402633399796235,1.1700729662442804,-11.205701251598612,-3.457061419302998,7.096731737202883,0.876070999578261,1.1174377390286674,7.159012360920318,-4.723086090369596,-14.082671332994463,-2.6157593382200757,1.5304189834846742,-3.874441914272822,6.890638474015925,15.333314590302185,1.8531128723440435,-6.1732886427180595,-2.7539939858143887,-8.887910987262053,-7.915175867281478,11.786644015414183,16.73970720209927,2.6477982220709144,-0.903313593891001,-2.372239585091797,-13.705529888602598,-10.642021319278802,2.692696043387289,-1.844118327943156,-7.383339172369801,2.7654874506138407,1.3308129811601388,-10.741885397926954,-4.069925968092377,4.882714105963245,-2.8424676793491503,-1.9554410386896124,7.130806114323971,-0.5441868624958808,-4.358086414143779,12.638491644982633,17.958475745062813,6.287422103082134,6.051818137463264,6.384230357715545,-6.353322964237797,-4.650933774135012,11.050450569602184,9.954365095408662,4.617256071351974,10.875982065531929,2.8975700116182814,-15.021277963868066,-9.231124958092483,5.208370067832542,4.408925244315358,6.273576941929984,9.203680212469008,-7.133755744704143,-17.698561379798708,-2.6728376253166113,6.122868084873391,0.9880901086079792,6.118872332229548,7.109383962773266,-8.973843629041642,-11.572376325679764,0.5346792194886376,-1.4950601871851443,-4.277888194649017,6.601674165483647,5.178959352385572,-4.59668485360803,7.379279845946257,21.37621313781328,12.328012568514044,4.43329150936399,6.358628851372336,0.12286672401660725,1.5131278706386426,19.666499596981932,18.713244452496866,-4.8195701875885515,-14.25033795647874,-11.036109956267701,-8.708130580043314,10.147162483889261,36.20762679226187,37.719919180925956,30.63986100399744,36.46532867106234,34.84425352920905,28.97417867674917,45.719637018270106,66.5972240056532,73.21682820540423,91.59900380626289,119.05246234877856,125.60855924407782,127.07230834956783,137.09445064910187,122.80674056739754,84.35891133793577,59.09911405691301,41.06637354120071,17.453309019736814,13.775130816271476,21.03198860802095,0.9813568521118441,-28.918306967947732,-40.46583537765342,-53.26657544450322,-68.50166927141683,-62.12203760725973,-54.66504257512932,-68.14144947723389,-75.83739181435605,-73.67919167665579,-86.54091611516593,-95.72770754425603,-81.85822469138377,-73.59382099251152,-76.37970864395064,-66.47207097120867,-60.393721906557836,-74.1697813988306,-79.3221738960945,-72.75129339640338,-79.56492021497539,-82.35723238726473,-63.07403515986262,-50.47683434938945,-49.76578754968901,-36.57193414238395,-27.782910417971614,-39.568713106374794,-41.436778985433975,-29.782864774225065,-32.01365251697505,-33.360939321604704,-18.508383226247254,-16.095137754280536,-26.489913628059774,-20.906037284208388,-14.8027944108749,-24.421553173895724,-20.809994675642383,-3.3560741541000576,-2.8945530855663035,-7.126375979302973,-0.641774861063602,-9.010718328393063,-26.82002742325839,-18.80790729363919,0.16328508330423297,6.30948034281799,20.045825991547137,37.88880376526913,29.58749729194402,13.026913572002101,12.522109004222376,7.374369827366667,-1.6006809632846295,11.6644480081361,26.14532988089838,17.139178833962234,9.883797800696648,10.667502143883866,-2.050040764597129,-9.912751251024062,4.1158627626645385,11.708052042233016,9.052892438790806,21.23564289485256,32.65677862677331,25.55689026445158,26.50101703767491,39.333400761035136,38.33255184755709,37.17133008337818,50.601252314225164,50.3074489021724,35.106412829193,34.40390673751428,35.39126028300938,21.965642620577626,20.74498134083909,32.17425583672289,27.32698765689382,20.78829433664552,29.941358862827382,28.240909879157357,16.014679724205216,21.849690460354687,28.31031360742368,16.213289881296575,14.439249839609106,27.41212876140686,26.927717854159816,23.828706111011876,31.84384271515294,25.12146331332917,7.628462444870763,12.777139732189397,25.649858688214945,22.614808955735096,24.788238014016997,33.53208935622803,24.43874619965087,15.293952555035965,24.646804613024162,25.03782196614133,12.929361202545053,15.085764255456448,17.29738909784364,3.0582222445853615,-0.6707420398349226,7.686356729622734,1.6322783756369987,-3.17974495545539,9.751956069889582,13.865900092410893,7.198936351242551,13.796181422387065,17.55135333970528,4.199041633673059,1.4916170526939552,9.658714551922522,1.7012973826300515,-6.278600308449134,2.2284636523421906,-0.2735230857067448,-13.740874848615736,-8.875800589929922,-0.9690297180235175,-7.9052255162170795,-3.2618508610866987,12.54370418332523,10.276898446418516,4.955432956057681,13.342716508167157,8.864488802925614,-7.248857614591877,-4.528881289978623,3.0607378104477654,-4.1590540939980905,-3.8638665845361766,5.026198385434365,-0.3323142138849944,-1.460986006610508,16.57054931242329,20.73786537700123,5.048683937551875,-1.8094440624117427,-9.061005462584452,-27.943847671824244,-28.6683895954433,-11.250998956555643,-8.83465218602297,-11.242103095334055,-2.1474322573387443,-6.3830365073396,-21.13403647776271,-15.042509539938907,-3.5809472620854335,-8.504629680710615,-7.51879267649965,0.7604976494057611,-8.038751965646393,-16.218979110444884,-5.825169021472328,-4.4861631672892734,-14.075218441381304,-7.802020013324912,-2.4851911573561773,-15.216841454210886,-19.04320742156365,-13.792273271137908,-23.718671380933237,-28.36367846393991,-11.479728479329703,-4.269779270388072,-11.175776510275087,-7.003645559418013,-5.674528538266822,-18.646739800622633,-15.587089398098065,2.21382370641654,2.660228505975635,-1.3703647798237235,7.416427741993428,3.335197559159509,-13.45670801607718,-14.436537359980992,-13.901705538896774,-26.289987389640984,-23.398572115406502,-7.3038880774265245,-8.51154015624972,-12.710852017406447,-4.9276763310324005,-11.536612894916571,-27.837016537106685,-22.05477907167127,-10.532637729950668,-12.624067465195441,-5.262211069508311,6.409381941889272,-6.282555683210453,-20.9801978411526,-14.234031581758323,-13.71967129562078,-23.59899434537178,-16.03186326078947,-6.87392676417537,-16.463780330332703,-17.788321801685356,-7.443646126743757,-13.206586110915977,-18.908632670854857,-4.597713034269094,1.1502091849907086,-7.99249775936307,-5.205209165552043,-2.961078064258352,-17.568663808816414,-21.827276978313904,-11.657143397869026,-12.086939170329869,-9.360458829184552,9.129807088538278,11.668056821788085,-4.937945529220069,-9.788071360255534,-11.171216631809738,-21.12714845269235,-13.946671283377874,6.030468648352849,6.137674422208065,-0.7739571159277241,3.8634023890004165,-2.5326625434834766,-17.581922473903088,-12.834703850593659,-4.928387450789573,-12.927976924817525,-10.615364635265463,3.200920343825346,0.5277895183427899,-3.7293282982007234,7.049355412225495,6.199613201001576,-5.257696709268119,1.4448110296221257,9.433990800913497,-1.048197290205322,-4.768901722790021,1.8219816850043191,-3.3170695016123903,-2.0353140932158977,20.121478002464823,29.636006893401863,19.289593047841535,16.78776901988631,13.575998334079028,-1.2155549321429842,0.2730493153190081,16.297872702972697,14.57242208884777,7.559427509725627,13.707047873014345,8.758035467569176,-5.766734698775699,0.008969255862204761,9.430862386303783,0.8832526667979517,-0.5626803325353915,8.454137959175437,2.1856892082709365,-3.857387197124563,7.1561746150894905,6.5620273823727135,-7.219403335488779,-2.9895646709285546,5.105425541464795,-3.637003612783661,-2.6764395174011617,11.278804055940922,9.679410282106144,6.445505193645812,17.422904769484404,13.436357913620775,-5.777381177207122,-8.315987367357561,-6.152398866747985,-16.310317102396386,-13.425533134665713,2.0901685258687097,-0.6249933365982594,-9.29407856723017,-4.31707584914038,-6.902714484876925,-15.271958523824585,-2.720753218854888,12.079625201000582,7.330766832368119,7.678725448444825,16.68811334372379,9.679177504190811,2.96834317486173,14.836935005195445,18.24652690496968,9.487699026665144,13.943720379430639,16.086944971889334,0.2122494733214948,-4.103169777429554,7.17392272434126,6.475668631057047,5.332558189090477,17.300839113130504,14.468590262576518,-2.5661391530957323,-1.7355130764839823,5.007619578262735,-0.6714157151962326,4.377998865566739,18.180719851634127,12.362087365558118,3.8050064541269766,11.093078744127244,6.961353962132206,-9.01796684174515,-6.21384595013871,1.479801481134071,-4.615263152233849,-0.04963688475675676,13.861597594629837,7.887262955874148,-1.8334511311385282,4.979266189549017,3.6711650540821714,-6.999575997511307,-0.19005131271327258,7.069491029917072,-5.474620670313523,-10.90736985621014,-2.9878123411698745,-5.59645086862329,-5.9405514900661105,7.741011915563304,5.56275972666228,-11.985441840025779,-11.094240740830465,-0.7944780584666051,0.0559624553313105,9.509951146454915,22.990943085505794,14.151571002931941,2.4299294767032076,9.279303212070898,9.721477448636904,-0.3275340843982759,3.0481029577188874,5.5518675981448276,-6.3051477979484805,-3.694786527195309,13.3229364296186,12.511830950077691,4.715818331108975,9.283182501722477,6.414794754501427,-1.1782750664497104,11.630432674720428,22.106679442416507,6.12500400056533,-6.583632815711632,-3.7200866760261775,-7.1058927600936155,-5.730704477468096,9.919590119238219,7.443748821397731,-13.895041702578887,-18.992100713194425,-15.467061394397643,-20.114422066457582,-10.22310269133121,11.626263323505,14.378997138984559,11.552496913607008,21.287668864446417,17.70883317247025,1.0396824224869325,1.8306145924046549,6.206270989992481,-4.034518206758229,-4.031064996588112,4.691948412162089,-5.823055664130177,-16.504425642760587,-6.28142369945597,-1.8055842018712636,-8.438123559528542,-4.36430566287684,-5.568742062024334,-23.617516523621383,-25.814215944233624,-9.656389107724841,-7.667233621949756,-11.451814066661859,-3.8048605573617644,-5.125923795365746,-11.084927547791839,6.742004106287765,27.99841802615185,29.171143641153602,36.68048497501142,55.56735341970556,61.195369288772724,69.27630896075155,95.63449800510652,110.82799796522742,110.21607071359195,119.50345695351017,123.91925766012879,106.59753842034556,95.99586215816578,96.57319722509878,78.89592739882255,54.17749859375124,42.865165307512775,23.17426115695241,-4.9601242188341415,-12.728683736227424,-17.48597596411292,-42.557374049835865,-59.82054961127822,-59.84768213561439,-67.50600189724602,-71.69964423649782,-60.81325146062662,-65.712831524748,-86.91250377492669,-91.72400127778042,-90.82559965846708,-101.45847199243653,-99.85925094221726,-85.68302192807506,-85.58797687132525,-86.15048033026618,-73.68143992972976,-76.7507708382033,-95.0879132887378,-95.33856831091938,-86.38819004169733,-85.32314801043825,-71.46757723329213,-50.60185064592162,-53.881147364780134,-63.833732623480046,-56.68540222318146,-55.49311156510351,-64.28570680253372,-58.91398493226423,-53.30317498013765,-60.714167487064636,-51.72710316427954,-26.88635659722814,-20.550748948037455,-23.660483679234332,-17.114584119329976,-19.570728560788822,-26.76520477540782,-12.05894530392316,3.933168680913894,-2.388006995338012,-5.690283369722395,1.0398537078712442,-3.277045358880075,-3.2245535637685103,13.517439623982558,15.270006221075054,-0.11255669258020973,0.2013848945587413,7.6213440260796395,5.447035691922422,15.650260318683356,33.499688429764134,28.122112270868932,17.614762178804945,24.759782299775864,25.010033687253017,15.605542600711527,20.761743691384545,23.374906969172002,9.176881926913802,11.218165083010533,33.570316693922074,42.73032898382471,43.12616057079501,46.17018264071388,28.905425584762206,1.68304200440968,3.9231057660319832,20.807733244524766,23.971392364103124,31.00850389085445,40.92719217853978,27.864034948680803,13.732960146355563,23.173242324494783,28.53712563402954,22.61334053316146,30.671838624780953,37.47001967290557,23.747408270292905,16.577495164773126,22.996292606049735,19.106763577950723,18.587487746938514,36.884846715887534,43.0214406256663,30.630679560327778,30.350597649534443,34.62477802399405,27.834875760539433,32.750152403201334,46.50394542338435,39.3111031457491,27.175680546993533,30.251884603144454,23.770113095940786,8.469335364792071,15.42996735947118,30.07860514313764,28.68673504670435,29.95214709247786,34.70276533957042,21.717057373047602,11.698352590572785,22.87405767423419,24.64427244666877,11.338648190199239,11.980105969414568,16.280065024751732,7.728648992254584,9.551461882522448,19.90895048274156,10.792992681294704,0.7106137798863994,12.46599381668235,21.620062372250796,23.129781951577378,37.092480349723424,41.544286974126535,17.891566531538615,0.989202101280866,4.684965368056542,4.333245484336706,5.999461019769941,18.9381511413025,15.48235263072785,-2.975332783551571,-4.096739772450851,0.5275315945739727,-8.749518648053332,-9.141477279086837,2.281748622827914,1.2973491211410864,1.3596048045615303,15.40608328651546,14.515527893254422,-2.55112958780789,-6.367360964420928,-7.599297317544702,-18.814843696118974,-13.34033717951829,4.440571506569834,0.8797110720956622,-10.08579615804062,-6.907289490451625,-10.37537612742698,-19.41002465595518,-9.262153035511988,-0.2900259770412901,-12.734354073078805,-17.00959171573703,-6.007627437697243,-5.720096816858972,-4.849162217878487,9.066048387437153,6.092758385195563,-13.649930038338514,-15.863815527850974,-11.082115621643517,-17.970687956245246,-13.032876971279062,2.0542125096269936,-3.257019856982124,-14.49808067381796,-10.116458133848466,-11.640551393207778,-19.475930954459056,-7.369466026260044,6.437269175781405,-1.1005478770989772,-4.6472831834282236,2.2081378890744787,-5.312371235553178,-13.589229157040695,-5.52656076919746,-6.870070948802953,-18.514047698491957,-11.81332645892142,-1.9359392600348393,-8.85222838692468,-7.482903563233089,4.519323802315201,-0.3476582578773302,-8.276141766341496,-1.0237362548023983,-3.1159954299910524,-15.43544957428078,-10.195382632069084,-2.640566185805751,-12.428684539521003,-14.316694007311726,-6.1718320760223895,-15.649566648304738,-26.822851275617165,-18.355866589504572,-15.014295529774476,-20.625462751781455,-9.593653180977011,2.1959131280487045,-3.892320038304095,0.06782031704678104,17.733274666438405,18.25036773833756,11.325682664269838,14.899190838445932,5.301866972501632,-17.11984447663552,-19.769985574209,-13.643900736161964,-19.8922506008176,-16.2021691308948,-1.9775739935493375,-7.488864100663362,-18.61928804848784,-13.0118421185298,-14.538495233238173,-25.878016815551028,-17.994834161364096,-5.357001006389876,-9.849989446302299,-7.380934905472442,4.729777811093392,-1.6715184928683984,-12.236248308214929,-6.84024304348368,-10.196350731633029,-23.70552939201217,-17.01916227007004,-2.786851790684641,-3.137895234102753,1.4527112068291497,10.820609942791556,-0.9591713592542304,-16.76111373175057,-14.915958665243426,-18.491523883773798,-29.072195347368847,-19.98448353340876,-7.713106287976179,-14.937594735415104,-19.605644826567083,-16.89876946382261,-27.168284674763598,-31.86367882768816,-13.768795351723668,-3.643828344014837,-8.912238693296834,-1.4489229967721524,8.04099027043643,0.986199191067799,2.187989331118023,14.795672643608981,10.986293872756445,5.736669536123629,17.974795973588186,17.79199804071598,1.004398129725601,-0.4182937395799362,1.503378725073249,-12.708027952969209,-17.290232549933968,-9.704071471602004,-15.478625032398082,-16.175183261689746,4.863560180161113,13.373774276697896,2.691499710916613,3.4985560545598275,6.4564331240156845,-2.3175207189176685,3.9400752832407995,21.79133326431616,17.661019461020018,7.237517301645922,13.417488880340777,10.797816500882604,-3.759084260096703,-0.31423961518442534,8.137119520405921,0.4549100288399819,0.5997950408128079,11.951735618966506,6.456350847496629,-2.339973770722284,6.515481634869395,6.619124952770387,-9.364622182001208,-12.762518714104967,-10.893812965417219,-18.820592859390604,-12.055210162567699,8.412765442608347,9.83224489573897,3.7572404493171883,11.041373726906674,8.408323154973534,-5.40259189247572,-0.9519695268445107,7.90701634710753,1.2505487082465363,4.113719671007703,17.932670296810826,12.896564052664395,3.2183700825370543,10.330419325971242,9.344356059412938,-3.8919513960214482,-1.3994093588841556,4.19241406480315,-5.737935337041919,-5.500467655545545,7.556894618442298,4.013713578776418,-3.7458884044853473,4.408219209958764,4.571655156002928,-7.310876051027315,-4.674788198264439,-0.520972339539663,-12.728068365843637,-12.86199988222958,4.840120004313002,8.87555578524511,6.427145830154344,14.539048997028589,9.013862007177293,-10.423729207301388,-11.616875136611682,-6.421603235635079,-16.258997418407667,-16.917005894155604,-3.4356811328292927,-2.708126045825443,-3.1385570725423424,11.699787933981305,15.387468790750173,5.489052794525236,10.740031052953164,17.423126710944615,5.684692506677463,1.5807454171253297,10.718309315555391,7.70003672024027,6.0661902393819584,20.05660344796056,17.524648432517978,-3.7234920746848195,-6.929099619208615,0.5373443743089177,-1.5435370745983494,6.1458861046376665,19.52430631262723,8.961925102700548,-5.520849274033482,3.7517579715634923,14.040600638183598,19.06889595121891,43.68590466452935,72.56687770264742,82.4705647431272,94.70653424689253,112.93155228290101,112.03936861918484,108.51411355304751,123.13290908609213,125.74365197552774,106.1428295402957,91.96708895806313,75.07648667875033,42.723579395736955,25.288545244396495,25.895917004856344,11.159609846806944,-10.578133971133594,-19.527218274732554,-36.69393631740248,-61.45330346644833,-63.85591164639655,-59.077792266371674,-71.98262457301567,-80.49980566059068,-77.80336678066087,-87.07295843904275,-95.28777013898372,-85.11847277750786,-82.27016596417808,-91.23205786871613,-84.82153423149751,-75.36508516017737,-82.0670239214569,-80.29615007873366,-66.44225608218093,-68.60920545984023,-75.15755433930522,-68.07806921854527,-70.4753031712507,-80.07632299026223,-65.81078276232124,-44.90525431085179,-43.931377019939106,-41.95164007884859,-34.64599698640882,-45.32689741166816,-55.29521264569854,-41.919281796681126,-32.94196060584065,-37.52146793182152,-29.745343916388258,-22.92227225444786,-36.03981316339399,-37.58720320839535,-17.062288073833013,-5.273833715590104,1.77465190497133,17.645268020480536,16.263857331912718,-2.2209911747884012,-1.6301119252360632,9.783014420977592,8.32574417946649,13.888122609258435,29.170077501754218,25.06696862099917,13.945031898657628,18.675219469250802,17.232886352107595,6.162085269805603,13.687775892398081,26.11884549325996,20.931865215933875,21.604313754157616,32.49013757567735,25.060309449632165,11.023224121481679,12.11458032747795,8.363813754675903,-0.1817559100261299,15.00663037117739,37.74429510628556,40.858204752335524,42.09867626022619,45.31031533704763,29.083090833484817,12.908255035481684,19.680425923157223,23.29420173234285,16.306252154832233,25.35576210326996,38.56108486206446,35.05552732899733,37.07431698029698,47.539028661685514,39.0045699689094,26.175670432578876,31.889829829324604,32.291765236773855,21.665293218389497,26.671016732960098,34.31068054409738,23.304799970108498,18.239640017550254,26.69930970646528,23.387774077918444,18.80938789926958,28.331953562963623,24.65087252395376,6.641542765276989,9.448886775512923,24.70352799223371,28.84831436909115,38.172396749302706,50.75243289358186,39.101971382260686,20.535419785946658,20.059992766329714,15.857852185652884,3.5927249573616185,10.544368295470964,23.57419948021197,18.8967089598027,16.112669300501913,18.820215874808092,3.5168534042577555,-11.670599305880577,-3.4611270897932416,2.3786184722658956,-2.4709077737357643,6.747823771666978,16.086741564935167,5.502013857340158,1.9977251293789104,11.717303349525773,6.265487035337595,-0.9161761887786661,11.12418040382489,13.71321815065059,-1.1519186196724727,-2.9117727420366686,-0.26304435280848426,-11.921885882123757,-11.121498169608246,7.1966650043955775,10.456414072495965,5.669663413499358,12.844150401455469,9.638917665522651,-7.654100579883137,-7.641188670451587,2.5975684373973933,1.6602699256970028,8.252866508367065,22.694513071523225,14.384528929244322,-3.022497850681985,-1.9611523777633972,-1.7383814054877424,-9.309049089648369,-2.306842921495869,3.1625125485587535,-13.14697162819364,-23.706791195165763,-20.847414159606224,-30.513992364903164,-39.11817453858959,-25.233448086506485,-14.726091335248656,-18.120538908437503,-12.260638400627773,-7.571981897664532,-18.98944657288967,-17.61912832386074,0.7737478097741235,1.4967199591600129,-8.504497530847406,-5.121549399698556,-5.855376787373821,-13.980393525558704,-4.498337682015954,6.950212644409357,-2.8358676780997873,-8.068294781641892,0.6052165055930789,-4.415509008103431,-14.774319322707765,-10.86629960972077,-14.237493968579837,-27.50556867974426,-21.797406659506,-8.2938949562419,-8.923267008770072,-3.4897148162138283,10.152397691309202,3.7230209603130953,-9.865788415012027,-6.243759990583544,-5.059322544925038,-11.16940054139591,-1.132462175799466,7.31318082548514,-8.371432325230627,-18.340815431114102,-9.970531723455112,-8.592194934627189,-6.076285945397415,9.8118543153093,8.374429482296947,-13.718773583557248,-20.884334543738106,-18.509367442988196,-26.042641764428595,-21.66687816677507,-3.4302123435945324,-2.4959317012619624,-9.274758611542058,-3.3679296051185688,-7.913829975102284,-24.88070233400661,-21.23836790463777,-7.326547029806674,-8.248663540626968,-4.1927705611220425,8.955785164144444,4.046720949794084,-4.986976073823391,4.33262981614384,7.001803552588845,-3.772604148110976,-0.3303664304372682,5.971417736955227,-5.202440779595182,-7.917203688174636,5.653398744343119,6.4571019129523695,1.4595291035301345,7.730481953977289,0.5048091674100643,-22.057700335259902,-25.41133757983436,-16.721184686319656,-18.49949537260879,-11.829197303551878,5.285033434691762,2.744380846472491,-10.219544333826569,-10.64692191227309,-16.280141416222808,-28.870754272490487,-19.901740886867877,-2.5721228571275763,-3.8880605828448425,-4.543573486853747,4.487954669547085,1.2611263493358433,-2.067128357391332,11.880413529086773,14.83793536121308,-0.3872479430553275,-1.5738972788356564,5.818860332782255,0.5603595408902198,1.285562803925793,10.068535077088464,0.6819214648247778,-11.221231830542592,-3.1366472515097152,-0.9993345990433746,-13.187957601566008,-12.089470721163506,-5.5312082732775885,-11.539379219386909,-8.60729769204529,4.241034546337263,-2.598091238379669,-16.42143257258538,-13.437774609914147,-15.736691898165303,-28.64776302402494,-22.575592306830174,-7.665228434109121,-8.26948762989446,-5.903232699464797,3.247188697583481,-6.180541993856107,-18.643726880142754,-9.159061467220408,-2.195686103669021,-9.541843114102788,-5.864903914421488,1.8329885192560864,-4.420528764102794,-2.302649037847846,11.28215566968693,6.575446277965829,-5.00664311112728,0.7667020956144128,2.693807214139012,-6.229452776579199,-0.2489258281814264,9.005892555823383,0.5794770720841598,-0.7625170435331381,12.275690744192264,10.333023873751012,1.0483729950261393,5.590302681775777,3.0946850409349573,-10.44212586615898,-4.824298917468509,9.067428092929458,4.096327602609586,-0.8789413719642873,2.702941179196909,-7.427046813534725,-16.26501344978639,-2.4435820727876427,5.660095793391921,-2.972519106160881,-0.11459016140541678,7.414646489261568,1.8907851675723815,6.799662948485255,23.48297376440319,19.979638580350297,8.064242261156561,11.672060769843537,8.644104958511496,-5.901389327660232,-2.455750801446474,8.96149731868811,7.3770759113990785,15.456687883557398,35.348198819912035,35.15686051118403,26.473771104549666,35.345799417151504,41.65022090985589,40.06109580853754,59.13363915054392,86.23703481584872,95.11666361126724,106.93477771188473,128.36714961205027,130.3639180881332,122.88339383086698,128.3562172182533,120.82531528284588,90.98413479336295,71.3426551991545,59.26736461449087,37.501576697617615,29.025951930429617,34.78334742838908,18.48783232492406,-12.538941830315476,-29.203121916061793,-44.435649108887816,-62.857934675172615,-61.22651958675726,-55.48271066713656,-71.4715063146229,-83.72523852064425,-78.21685959038534,-80.94462104151503,-87.10547082544127,-79.78628779260613,-82.86858686680294,-101.0008354813884,-102.50436549606007,-94.18788504188014,-96.78806391236725,-89.38325539684156,-69.46076836642236,-68.73684652274392,-78.0628381965994,-73.44654294981362,-74.14677674979453,-83.97515517687074,-75.78133820048676,-62.72188783813412,-67.10478632649026,-64.57255257418055,-47.88253587048014,-45.67807585529805,-49.90960814873008,-39.72862736261099,-35.79736123769296,-42.41696943786686,-32.00929579020543,-17.869477152869155,-25.61083939637619,-31.011146080053486,-20.82804413269897,-19.50281711115014,-19.40260490428611,-3.2889817305199047,1.511977325305746,-11.972733702531457,-9.29785070674809,4.7253080300061026,5.481013579197143,10.5230573084408,24.54779624318828,21.050900932295015,13.40439456136897,25.60592530625544,33.312996400870695,25.295982476336953,26.59968803501733,29.60681289933995,17.181024892451152,15.4668667813559,31.19582114090561,32.14357323471931,24.88676949836261,32.31080016274773,33.71401806109279,24.695584417874493,34.51032674208523,49.852026528727336,44.310357232932866,40.84156907367323,48.91644780803943,40.88086565050015,27.33327247070958,33.74975203027321,37.6584869466999,28.39230763147084,32.40097468342074,39.66243052896794,27.008983390769487,18.750124874150988,25.490219127430493,19.865151283461977,11.111910348887514,24.03326023939966,37.59177940475047,39.547550344312114,50.12483129834752,56.054345862891694,37.20917822251355,22.464421787053745,26.199326921058393,24.433890335855583,25.35495931444791,45.53730119650165,55.70392784169851,43.78930538821597,38.12426157140058,35.017838400835764,19.433787353119715,17.450374094293316,32.61426433314562,29.574933182067795,15.423125311051304,16.39349287928963,14.919939095127951,5.5031940442686,14.343644999162043,27.836218302654316,20.182096237383362,15.052988623309496,23.984680173090357,19.965454236946236,10.086112201269426,14.583001643652294,9.74494842193223,-10.245459186313848,-12.51355140320549,-4.149608013813486,-9.19221554009491,-5.701474620131096,13.747093720195352,17.737688003749234,11.65578578308791,16.994196013717232,12.944229412955846,-3.6886439849386825,-0.5563571559032008,11.716734227423943,5.966683307256231,3.2892119907961312,13.8075160559668,11.088101472304082,2.3091457545411314,7.715670750960468,5.216162497960856,-11.403994058848905,-11.24530708521435,-1.058414129979223,-5.2963369409879375,-4.614735091051,8.562241853274138,5.4885548786965215,-7.0057675236300385,-5.075977594788313,-6.520235028235035,-17.40406653808472,-10.779481156471293,4.106128435100184,4.1644065121962655,10.045667337882591,28.20916249419922,27.99893952196844,15.949335080117507,16.918281683270017,12.692279900070028,-4.26050394732273,-7.417201045258427,-5.229090295815833,-17.920412583227122,-20.657228552444618,-5.473972922888841,-6.340104399332577,-21.853631688879872,-27.45472961019555,-35.705200458785086,-49.151814538332815,-41.41113369079346,-26.663359415541116,-32.841841006690245,-37.27772528879946,-26.309881336436355,-24.759119757943292,-26.477541040149813,-13.763816315046903,-11.314850944854117,-25.258048073366027,-23.431403345874443,-12.735171102137986,-17.70263987393827,-18.86446326264772,-8.48578846912004,-13.022291798295193,-23.045435720461878,-16.19332153797782,-15.184794272389006,-28.50207190512587,-26.071828842971676,-14.228418911993277,-17.71696416437344,-17.625963126034772,-6.0579503692513175,-10.088179985371383,-19.1469391240092,-8.32514943129058,-1.1786572986395611,-10.46161959581377,-11.092645415752907,-10.065520007901837,-25.079732015648577,-29.161928144280317,-12.6635321840131,-7.424673561032895,-11.24960061639917,-4.269900857810473,-6.805144938011704,-24.869263890405698,-28.709900347675642,-24.469388474473917,-33.44642939247589,-32.860835561870886,-13.760470680861488,-7.244129168589668,-10.719895124122935,-2.7485047764501456,-2.0120211145885425,-14.16072344752,-8.689973887840228,7.303063793965124,6.683311337536491,5.8475388833844875,12.92240961116649,2.5461778921408382,-14.13418149465708,-10.964439145361919,-8.487489158953506,-16.655606345224466,-7.970513860080386,9.270007316154272,8.59089073128899,7.66258658109661,15.01558867909656,5.549444676327482,-9.24521665179385,-4.0427181116771305,-1.2400946495279517,-12.44242380435217,-10.96409509011804,-3.5832133490109546,-12.108470469967294,-14.173200244350733,-0.4066839676901788,-0.30035226920338776,-8.70595053270952,-2.4122522798341235,-0.5336409090461534,-10.337886000812478,-3.653548771889149,10.104326699328931,3.8916740384924897,-2.0800811309383738,5.857171052616904,3.2561541834354664,-4.119753719319122,5.311229702612525,10.022619423630681,-0.373333054899585,2.417150327057149,13.118257015884746,8.185343278923352,7.087490552470708,17.530539115613596,9.369896379532666,-9.390163395239327,-9.895805978249422,-8.305766221707277,-13.36511635508705,-2.002966110283138,10.511372212115804,-2.2204217867073366,-13.492922279430688,-7.140686062893885,-9.191661502678235,-14.144819628430707,-1.9499449390378132,2.616218760938229,-11.444852433106924,-14.369335868690232,-10.085298160789371,-19.520078537708038,-19.08526490713103,1.2733032773459776,9.732866879118832,8.925946796901691,21.353434298043464,26.17656982014503,12.964011192170664,10.541349670382989,15.439681726983665,6.57856493379246,5.616322392393877,21.486199563034393,22.38909151363483,11.715063547793237,14.693490550440535,13.999245560271078,1.3547681464280652,4.381448834730071,15.022086370401007,8.244890769595376,4.248954872081681,13.750622411183887,10.794294219267528,2.4489431109641115,10.425470692365117,11.613245135752933,-3.6998422016374066,-3.3656155186388554,9.421107588543144,9.069016753442725,12.078089926174743,24.379824882925643,16.417906832131713,-0.8430100294666056,2.0231111355031954,3.5470268455794214,-9.329052785036286,-7.363689578008632,5.158996897833076,2.8765518710091564,2.4468515040368914,11.42763610635416,3.673226465865964,-9.861396942726447,-2.481431850100712,4.123474051963562,-3.8046963832793605,-0.6715574879734549,8.571800143494691,2.970540970305289,3.2420701479405523,17.07132111978679,15.248731123640322,4.766934163732769,10.212077737678786,11.518817120036086,-0.39550914330269116,3.31025937720265,15.321671985167248,9.447234679921298,5.153281571763652,14.036969323747732,9.889967013382257,-1.2489200168677814,3.8777152106725845,5.043426235975457,-6.884218404598064,-1.1740083203804126,16.4669411902373,15.946718966921985,11.832631333454945,15.840249771642322,5.381567125617413,-8.411687543254047,0.5376695945980483,8.560523926057359,-0.3198853388175342,-0.7489389115956282,3.017653985039545,-8.586140501309552,-11.562799001138899,4.873318513313364,9.621423567313204,3.272771258284817,6.542107621930226,1.7660065002125052,-14.320021601909886,-8.404171330800994,11.481633004257587,13.673361338967416,11.940098791432675,16.550822569593983,6.844912034700351,-3.9815189344424544,7.075197289963763,13.41402264399851,0.26096180173545047,-4.208566067036078,-1.285646825981876,-8.77827600737409,-5.42256735120781,13.47256697926025,14.818169177361879,2.7576345198186116,1.0053721749332132,-7.486454964684844,-25.91177711796287,-20.31563657004414,2.1924844380348567,8.709043190208664,10.841679655714518,19.006992522494237,12.566538932194387,5.62865260783234,26.62371040750836,51.852243108729915,62.544734141926604,83.91141785468905,112.85564689228252,123.64337810447053,131.39574800678784,145.21187370515628,137.30502391651723,113.63161308046435,101.86797524796307,85.7839597066844,55.94506724642784,41.48022226127514,36.62034824140338,13.917812956785209,-8.57565765712496,-16.94115185875149,-34.39617153609952,-55.840605204585884,-60.07517670119914,-67.06349177114242,-86.79109731654937,-90.17734854480014,-81.19632819070335,-87.96160368875911,-96.22833293987803,-93.6758139114372,-103.4795723698432,-118.82409884365515,-114.82869594319067,-110.64733124516992,-118.85364364620234,-113.01259009390921,-98.71639713047487,-102.60533715404063,-105.9956516351904,-95.39074360752241,-97.61268953382398,-107.94667106747568,-100.12838987478987,-91.60891122269531,-93.9192067422117,-80.7935261136364,-60.10338606658436,-59.889953009647655,-58.99120586855338,-41.75198565802754,-37.60603941202414,-45.921883892863434,-41.46815355982969,-39.4225110906433,-47.00658078829096,-34.786790329073604,-12.380621916125879,-13.157468285730834,-19.15646272202228,-10.757324377731404,-9.925034643970815,-14.340552986730389,-3.1762424660094557,2.526582574829299,-8.701670693223086,-5.24323204732363,10.557616423548428,8.809124532052273,4.257324966768138,11.938170098821512,8.9123347132474,1.5636821991032006,15.974402222685374,30.497413961433093,26.32903280660833,27.481137188558314,31.206610202186592,16.24026855315346,6.844206803515469,19.576377921659006,25.758952288814104,23.721483120646084,33.677352428389426,36.09776642462999,21.8391161341696,22.512607209048344,35.13100857741564,32.388459010223436,29.82439451362878,38.40367287649308,33.47249572558903,23.019310136888045,32.551920823070816,40.836218461951205,33.45677548608436,37.94670230783162,51.430224178135724,47.800137455163835,42.622319990793336,48.47924402742676,42.87905224134541,34.08443080720937,46.97110315276391,57.23767217209471,45.61160054483868,39.46168849160917,41.888154209860616,33.34819035282457,32.18547984030284,48.380741923897816,51.577941331612394,41.95683467692103,44.46242948041043,43.7742879977357,29.1039593494977,29.147644307053532,41.38466048476408,37.110938584714134,30.764805128058367,37.684350159127085,34.372160006432864,23.347909611392133,27.693352493344392,28.624710038273165,14.093377495730051,14.012867007475537,27.002510463337664,24.485430873541,19.126930292300276,24.36701717752164,18.908152254306728,9.16353927299611,18.969740514436804,27.749319321508146,20.615619662083432,24.354089211777097,36.60871758076877,32.339488524039155,29.020695533332514,39.34097916322185,37.07740476485098,26.385736474127718,31.014936360430546,30.37473765367761,12.579602238194617,9.0671101856118,18.578498443093384,14.006376580931988,10.866887329448895,20.057939649033543,14.002879473159677,-0.47960808762841456,6.234220419774607,14.26360845966091,4.305814920757902,1.307121342728536,4.5800273988366405,-8.82388568921404,-18.353637613417522,-9.695468885139626,-12.724524168668014,-26.46366713787105,-23.408060013518984,-19.975876417044446,-31.554124544314398,-31.017626984782062,-18.00297317143069,-18.188224121982444,-16.636411316524978,-2.020669316690232,-3.4949562298221757,-17.888883963431002,-15.551144576534456,-12.020859204648533,-23.37975901032126,-24.267847709038552,-14.785581312294656,-18.975417491101886,-20.936433443109493,-8.289969282090114,-8.644927247315232,-19.972050650428315,-15.248063254434843,-10.315812343183467,-19.07137097155838,-15.78338813484977,-3.2211113198712966,-5.539593373649598,-4.89937309968054,9.938224894670888,9.411491669402238,-5.009829042273783,-6.376961515130869,-8.685805540775458,-21.262120809263834,-14.332165309934783,6.291495640495922,7.741339106319508,5.574902330601212,15.981128528001106,11.892613251764615,-4.9339133460241955,-7.476614450650109,-11.695864309110505,-27.798102741592363,-23.950346575790448,-3.85286591367829,-1.6709882136346468,-6.8199511310070475,-4.396064240776562,-14.977886633453018,-30.599503574306237,-24.241303971992163,-16.957977793949624,-27.30173171371633,-28.24163229122303,-18.78661801631815,-24.044766404498006,-28.771325111253034,-20.490351859479404,-25.275846381699452,-37.86825101053497,-29.135917825528956,-17.13391785751984,-21.38352778892975,-18.729347657211164,-10.606958603046188,-20.577892571958547,-27.978883385288093,-16.460905863386504,-15.735088723602633,-27.128740079342187,-23.42739663560127,-20.179759904398814,-31.83839768085606,-29.87348638121342,-15.166741472736646,-16.055376241794335,-16.5257081811261,-1.4643710471922304,-0.10214929104188686,-13.766059480576116,-14.889326689817569,-16.647415216527904,-31.448134509194563,-31.57847557824967,-18.113362188786684,-18.998670206207468,-20.968719407178348,-9.243438896572966,-8.423063920396665,-18.267392405106484,-13.68021806602847,-9.891631463063048,-20.643956441670774,-17.799458194421547,-0.8816795423410557,2.216661639471421,3.990675340406013,17.307316676079967,16.345229476199393,4.744134665811723,10.22348428311603,14.635971055485598,1.5696712115159368,0.03165598083977783,11.64651125172204,8.540936781883321,3.5916727879168064,10.194474199159659,2.017510628550416,-16.155923292028962,-11.395940256576225,1.074091472982389,-0.25786564583719285,6.741630192764088,21.038062740677503,15.372094338026928,6.685671342632817,13.648111464935841,10.482175697439956,-3.161272692808936,-0.4827863328380628,1.810891811960599,-12.52127479242806,-13.99083425965145,-0.48104626478959034,-1.1051951009530527,-3.914337272024327,4.716905096208983,-1.5163362282800885,-18.3237125468896,-13.494906957149446,-2.8639861034922007,-7.418297090331208,-3.738706684277606,8.7273310575442,4.572317969502497,0.1560806464736224,12.175497495763732,14.381769322495538,5.382626660053395,11.054130494294196,16.712805289136764,7.298529944123634,8.86278009485769,21.31991556417096,18.67910774058101,15.278763521737485,24.48784845633118,20.310001647541647,5.0106772281782055,6.639728500098398,10.266262925536097,-0.6899300661507777,-1.3627582318938265,8.187997944399482,2.4853886083352226,-1.6727807920278037,11.457885512124815,12.894066602790106,0.30219111168536994,1.4261179547245098,2.221223158761445,-12.7962808168522,-14.899767607587766,-2.2518996590705975,-3.174406702325547,-3.9078033621328294,9.944435738209531,10.177697053979788,-2.001603749584077,3.1240775934597957,9.124405914846822,-2.62978063138881,-4.515816355029507,6.0073628962584715,1.9765532898280607,-1.409406928061226,12.086075557845247,15.143557401748438,7.292335824485127,15.473103071097464,21.89593747315223,8.713202241299221,6.184436146712441,19.863664125255962,21.62151351293373,19.996200266200358,26.523438192226173,16.468946856342345,-4.393647624558303,-2.9944125715917176,6.37687363208606,2.0858097712218875,5.213503203611275,16.508758639427956,11.319404453737224,5.162100960789652,14.424860376857085,12.71511945808977,-1.8184821431616163,-1.2903096840222101,2.6865294621778846,-5.03512451004265,0.852486311545761,19.551972610000448,19.550226424892756,10.124745780712292,7.889792067188285,-7.172843860051662,-28.60280350327331,-23.961941073079466,-8.415027480220978,-5.811563961156292,2.492928826623192,14.939507008185998,6.208142083447464,-4.53676319761103,3.6904402086107044,5.131762216932643,-3.8035241048103865,2.9587439738520125,10.6755569994613,2.0062521914770532,4.318622271098706,18.812632608675113,14.54022731756072,4.73826788503625,9.434145546748752,5.754614526383278,-5.971290707789656,1.1247810356374428,9.808191837704978,-0.9020163607491369,-6.7555557836752085,-3.104419731261688,-11.797831526255907,-15.884584336152798,1.1896633595290584,10.346676007470387,3.6499595481537073,3.854051325753984,0.09245084965656547,-17.791016267871726,-19.676360968292933,-3.1970307804386273,1.1923541375623063,2.0301325151335616,14.528703052031265,15.297058854857802,4.767827635864888,12.24331976311192,26.547519927790724,30.174375988675195,46.92738932689533,78.64195396008873,95.516567590519,106.03566277070553,126.61009346409858,133.42494534734672,124.065998975686,126.0588869747778,126.49922152610063,106.05537129078739,89.75532046806184,82.40966917226243,58.208681473368216,31.926343068473315,23.911248224012525,8.195707695019387,-20.961872368161956,-35.530917065057636,-45.4413895301001,-67.9509772180649,-77.85372999214582,-72.57415492059899,-83.1358892634534,-98.6128990397981,-96.45451416723807,-98.65187088626642,-110.99927398089898,-107.91762032957269,-100.51843699752521,-105.97211263936167,-100.66102789493027,-85.06775454314966,-90.25326373210822,-103.31252349974832,-100.73160278169335,-100.48102114314722,-102.68620871709957,-84.11034604233089,-65.6203992971758,-70.73795548356546,-73.37296962511087,-66.63480932486806,-74.61280705794776,-79.97777966576648,-62.11846299281554,-50.50733399492225,-53.04450871385504,-42.79193751651697,-32.94342819019111,-41.777589425200986,-41.14886891772829,-25.742563640886768,-24.46312226450047,-25.84375001959713,-10.985366608461185,-5.7381855315048815,-15.589875679229664,-12.554066997076902,-5.576932544224624,-10.63968342578748,-4.249222199841926,12.955429421373514,10.781919475847879,3.885738953079729,15.806309413674915,22.49671574880997,15.006535640299997,15.879981909981344,14.314368584685358,-1.3763368827941838,-0.4809075115962953,19.03907193694839,22.737168406700643,18.738865733838033,26.640791679364717,24.783807897626097,12.312566912653793,17.336974359842376,26.207865492751296,19.717818403488053,22.676181763034986,36.732331556144686,32.64542426581222,24.412964137820083,33.11815603038411,33.2730645092631,19.130790746301756,19.150566146262474,24.1190847689347,16.2639880959422,19.33761563037431,34.953053223199106,31.652433295304583,21.289851481356685,28.868343478982357,33.41222380282727,27.824467917943977,34.86496886388688,39.75125674780462,25.403027771056806,22.1334797293633,37.421014527037535,40.825962307182394,37.146922357761184,41.66521329122888,32.943229294048926,12.32313038980157,12.369950233312377,23.077032229322064,21.595962242013947,27.457862364788944,42.10447916697202,36.30409450601395,23.23634477141608,26.659578570838082,24.286505096100797,11.340506703175446,16.68827530306165,28.366160315935925,23.621101305807198,25.152249810411224,35.846630186503795,25.475744289929857,8.720361986845809,12.446833334915476,15.23919368134381,10.095550862392159,21.03370981604425,32.9707557960444,24.19048542086516,19.212841097547358,25.129671105889525,17.78949888340359,10.162086914732448,21.008246724690622,25.407535009393413,17.169852292713937,22.266674419924048,29.042306183696624,17.490205138473765,12.525722839197181,22.09180174474569,20.62057770661973,17.91323890291412,29.455051479149976,26.82992312831849,5.214614518137814,-1.080971679330529,2.0509625341009006,-7.6603744028408745,-9.912275092793376,0.158446868331807,-4.2594855673578085,-11.056884724183796,-0.07406378913743783,2.675310187372621,-9.559268603793846,-6.245813259160465,4.365279620710997,-1.5824001075016358,-4.69505324359417,1.8280685487028423,-6.675784051092317,-17.798180116916186,-10.405213971678345,-9.279842528655056,-21.29601861062746,-17.160475931489074,-6.383269337123502,-12.340254576532969,-14.43041368411459,-5.838556560065102,-11.684819018687326,-20.05128231061259,-11.096752960380643,-10.237226438525141,-22.517063039407322,-17.201911081199764,-4.786887225899951,-9.207513334210812,-9.61421036430089,0.30276536513751484,-4.254588671322031,-10.075266920552142,2.6626386369901933,6.1925944913657585,-7.668237826456935,-7.961643220632805,-1.0148962484559387,-7.075152697287035,-4.656759070685544,9.739243320333912,6.02849025886727,-5.31188512207195,-0.6677379527964167,-2.0993221696464417,-16.809733768624493,-17.119128921524652,-12.315719268592021,-21.903317282076785,-21.25122349146382,-5.583152468289965,-6.2345412607845265,-15.321847379794587,-11.49044947160516,-14.851462897737923,-28.138167243281515,-22.923448503757193,-11.913430481457674,-18.234583459449247,-17.66300953394967,-3.1347961872542465,-4.081742507202634,-11.028574760628002,-2.195268659128161,-0.5442208691840693,-11.552319585862175,-6.945394312502718,0.18374278204829242,-13.639140181624594,-21.25033005608218,-10.702204800636046,-9.982415588852989,-13.187103588173203,-2.422387170685889,-3.18840925669619,-22.643263054894028,-28.163859127726916,-23.65745530176632,-29.54255647676602,-24.326702221376273,-3.6171558750133723,-0.6807271663379566,-10.780640999949307,-11.625962627647638,-20.64438287167909,-38.71022664033408,-34.092729048925264,-17.066045967298543,-14.627245847696905,-10.912292096376408,-2.9047494146196535,-15.874871879557045,-32.08893776904096,-22.935109223624345,-12.159125065103535,-13.877633843217728,-5.057682013290526,5.098845657723925,-2.7075397719251972,-3.1304798873225623,10.797763793470041,7.64432744977358,-3.7181383256633347,2.0960328219633793,2.5206539923131928,-13.5196475130296,-17.053927860717025,-10.562980905212768,-12.770425976385578,-4.7857159261418944,14.269631121483616,10.492340102129333,-6.536591846988795,-5.682643829594095,-2.269563800090281,-6.635308751867704,2.6241969502495115,13.340228950270697,3.8286472880797873,-1.322157894172841,7.9794520477356805,5.048138547429216,-1.8612647592392295,8.00845086582727,10.845944101073488,-2.3660357276775086,-2.807853674933916,3.607897289809562,-4.198510295763869,-5.946536550225348,4.0783636607183515,-1.9570153903672312,-13.842851613265118,-7.868854038509935,-5.247326550192312,-13.817135031954393,-7.273409560279335,3.876572908392232,-3.2752262164181944,-6.609549909958028,2.644362126305209,-0.9009286790049296,-6.7489877413101365,5.995388189063819,11.593731826640179,0.18639127762327767,1.6473882795795292,10.474451575986716,5.73586945732085,8.952411279006194,24.570327309799687,21.007231963029213,7.757501396450884,11.373642021116446,12.857783652680176,3.5031597979945373,7.363955253853951,13.741086861665401,2.2665037558041883,-2.1977489204898903,8.98042990906546,6.4051110659787085,-3.659392183263172,0.7995474453185096,0.4291809886846536,-9.982386844043807,-2.546585680490922,11.89933698829756,8.146046917946615,7.237693911903022,18.715302191577887,15.685354502155448,6.697331832230411,14.753722073955231,16.238196101330214,0.9354984097463559,-0.5512388337335095,6.670908251366184,-1.1555673258342418,-4.183159368711281,5.639543650545339,1.403481128801345,-6.493942329257232,5.034159143126149,10.016928423996616,-4.699403999100589,-10.306496940143987,-9.057842738172596,-19.092126877172443,-18.531087597678535,-1.7033260047385141,0.30043194782976723,-4.450659555716228,9.741915723550061,20.02840098661441,12.975056145112475,16.559623758212286,26.54219868922143,20.844460973881617,19.026065653904162,27.690563586183185,19.11274835386119,4.115189193768346,9.583849318571984,14.780105501872548,5.700943618833388,5.3693003487254956,8.971495231351641,-0.9110711818737052,-2.540358824161394,9.92388716400322,6.570300943704285,-5.4834388803622405,-2.4551712492645885,-4.209124224904386,-18.834328192097217,-17.708791698621283,-5.015740104296758,-0.8346219999139632,12.344861073898743,34.43248220566067,30.608579867570487,11.028994728551217,9.994244935465,13.894203910148981,12.684108010020598,28.740194980942046,48.16712700485424,47.84680255039899,57.06212146166891,88.90378191692503,109.8973423477803,119.49313098590171,136.45423976751505,139.38681351245845,122.12608438649806,114.68060541094255,108.82145687525906,81.3949587706093,56.181135144439764,46.2565894021097,26.164587821692713,0.15817456002342478,-12.102174482771703,-29.345115167360614,-56.15281657825179,-62.134706504988706,-54.98300344123699,-62.1306601766223,-67.88815379137645,-64.19188684952536,-75.4791625637049,-91.14452826602798,-86.10888444980924,-81.82011991550561,-90.71740645489852,-87.12545642026845,-77.38044567175208,-82.82846477252724,-81.16241570407253,-63.93751557743202,-62.604349893175666,-73.61284852050679,-71.82094265336876,-71.84011246336513,-80.01909971164649,-70.61754914548874,-54.2630148111821,-58.2366694625993,-62.94971074959281,-54.31009678873435,-54.4929234519783,-56.3021320343615,-38.98892517804522,-26.00299025170651,-30.580460506066004,-27.015429389372493,-20.310789868256343,-30.652985652194687,-33.458728484156524,-15.830607159095058,-7.681723350847729,-9.218398617892664,-1.2428811870371446,-2.6477240001180604,-18.438173487381725,-16.510143955475275,-2.3497641357266135,-3.5774691711098865,-4.10251313634171,6.458592544566703,2.333438995270189,-9.487874038879657,-3.9164621118215193,-0.37739463668077694,-9.527611967727127,-3.5895752058782184,10.400861985352215,6.064593863641914,3.7553369390843683,16.07293186878168,14.378557607316043,3.023924290534018,9.058835819341766,15.221318720112478,8.84976671463728,15.311017123484712,27.332676115500146,18.65627620666467,10.870412035732773,19.62304161556844,18.762555661583768,11.44738684544554,19.90956438213995,24.093968536240936,13.297884990386784,15.554327948198353,25.94968096205149,20.557403374656154,18.673306642508493,29.568049918293948,25.108140840561255,13.456978481557632,21.669023437572044,29.52523052766555,23.54695721672033,28.260382532802744,35.92222679652762,23.516540570573625,14.18459165811515,20.41465753818467,15.258288474837356,5.716056927960686,15.954659189766204,23.07967319866514,13.308087148012948,15.176695259445914,26.08556124864486,22.686777962763692,23.103636749119644,34.91313196795151,27.933031053460603,10.727680910220098,14.60608664804842,21.642801871268052,15.237181489517546,17.47894219912816,22.79472395248876,10.58561347243762,4.773150714395838,18.10359755139076,20.915304176098488,15.587815874670344,25.80401869776455,32.435538527579496,22.89734845971818,22.119093750000804,25.4752902044317,12.485319924262889,5.900448266286401,17.359056796842996,16.578045452713585,5.279350908465419,7.887463158051596,7.078009379479537,-7.638200582057524,-7.715216663781681,3.6668439467392386,1.761808187831645,3.9200494227558917,19.129830609544385,17.545928008601642,4.58873812963988,8.918223357844562,13.457771747136013,3.656691170569985,4.30605202583024,12.208732355819329,4.953615589516825,1.6081568199128582,11.574658927043792,5.07116871668998,-10.811965734891988,-4.124183003400979,8.735961331375883,9.913697590919483,18.823697059495608,26.638612611175063,11.10109891053643,0.08450598744894666,11.736559006530506,16.079563821288566,10.57263252867147,14.910141972487864,9.967683490481848,-10.976042777237573,-13.192338616047614,2.126175719843057,5.640854420657647,7.2573259761908675,12.745482769864056,-3.0756623572144006,-26.895018860553417,-26.10621012572677,-17.7318309037656,-17.018550918361075,-3.325746840220355,12.834664978552206,5.782077822763874,-2.4892996388355986,2.821296109692765,-3.667037972819432,-15.980469436132877,-10.209979892839227,-7.463243220482667,-19.08112888166328,-15.99024757456719,-2.979419099802489,-6.509350990349261,-9.368728082112128,-0.3782121921039483,-6.320143850527202,-20.656561185494517,-15.301910590427376,-8.481359674115465,-14.90185207685872,-8.833513000085397,4.769108453640543,-0.6541102702842023,-6.115590936008267,1.7219494295175881,-5.617236062502612,-22.774179864136006,-19.46864233793594,-13.043574173228262,-20.598944697646193,-18.88150240005868,-11.051388927797941,-18.140184838351725,-18.39794179428072,-1.8261025777940612,-3.284007224280489,-21.229092885842565,-22.522501449052047,-17.885387200369387,-21.08368263580233,-11.68659577287179,0.9901280298223267,-7.260711764124942,-11.422406358168402,4.370917488392878,7.502507001957204,-4.534696912279317,-5.061420139393775,-7.013211775359859,-20.381850165343923,-18.72144907571307,-7.9769672798453115,-13.543303424814596,-14.087815206620888,4.422305749150368,10.989296339235016,3.1130866236070434,3.253446922784949,-3.5653755693522675,-23.163997462315027,-23.2947535750146,-7.867528134550467,-6.00749249151987,-2.93335884266338,12.402424330379999,11.884055846005502,-1.207944184865787,-0.7514020433549051,-3.655856341769041,-21.017289500836362,-24.248479076427707,-17.077821788843707,-25.30820055755864,-30.210387533402077,-17.903240897986507,-14.714566734188582,-18.282691491546725,-6.162826563325947,1.8839912772369756,-7.063303377363656,-5.3769948268398835,5.307063442058933,1.2923628735614021,0.08629322435686124,13.04692428091846,11.34407422923221,-2.9240959471712555,-3.220424962336468,-4.41230299014606,-17.12694150814306,-14.208086772191301,-0.35632752688669367,-2.9456443068025315,-5.293628385960815,6.176161304892891,4.688926685277094,-7.540123161275547,-4.912716842639027,-3.3835677076797035,-14.15023661157976,-9.628032574242113,5.738705373005147,4.554151062786671,3.7075060369788515,16.13044371594841,14.303066243640966,0.5028040977277106,0.7895821116426309,-0.2884614720681847,-14.346833573285753,-13.42945121167811,-0.3127652382304751,-3.4257683172390085,-7.328344001212586,3.02280928127722,0.9085411407729111,-12.408839082201988,-9.38974236849895,-5.2365466612645815,-14.557477320784187,-11.43367997517036,1.6243878348280134,-2.3666706099518025,-7.039711206507587,3.235965276572025,3.5663463032473404,-4.966557601426383,1.5594181053341938,6.422552888355984,-3.5148384442970944,-1.6695960934809793,9.66482410648008,4.534207177411405,0.13565314733129807,12.216351310312113,15.415555393540195,9.118722466846997,14.42245555607191,13.315770937536534,-4.227030644397504,-6.561342976376,5.973491698826053,5.072100140481833,3.595755224117762,15.031383624066452,15.450141128407058,7.625403284852915,15.384079510675333,19.877593954468583,7.473439584196689,6.93472580971285,16.385736642642744,7.909104135672907,-2.043138258576908,3.488189404566116,0.8602727295906787,-7.468831811193252,2.414708092389544,8.912452314895209,-5.40332135202054,-9.871807491649143,0.1331070644293888,-0.48216906378761326,1.2448009431332616,16.49118781266679,16.79011418653089,3.6177041583078102,6.9242026891602455,13.728284434950549,7.738344451504655,11.898658010534735,23.08330033431243,15.467818033075073,6.602817621731184,11.770757996330671,5.359056935342383,-9.28161119253636,-4.946660926080668,1.3157034108365713,-5.513225138149365,0.48296420638089543,15.408955303376098,10.745368004565899,2.207285708084878,5.265864659040448,-2.7415234048688073,-15.606720724082873,-6.59235057670364,4.002974513547219,-3.9525137245141515,-6.886281160384668,-2.981922886056819,-12.742220702347769,-17.437044823846986,-3.2351175449588494,1.1835184041520774,-5.399686180803133,1.6867410471861985,5.6450219087857105,-8.928485285437343,-15.225676124619548,-10.98452761288742,-17.34641787265219,-15.955122953127068,4.840800071032009,11.736697027833191,-0.33926641350564424,-4.208752420253719,-6.869651907705749,-15.10793527608538,-3.316900836998588,19.207710244469204,17.645071902970955,7.1815554116582545,10.280642476172634,8.316329928870365,2.8760711575474103,14.403796983031333,21.669208016686014,10.536309462305887,11.659745061135757,26.32910109058963,27.55020215121541,28.942060895982276,43.93751803900568,48.182363030362886,45.701046339962076,62.36801836114363,79.40189237726754,81.76654103613615,96.97045603719913,121.6915855491263,125.71711040965816,120.95981281115714,119.28137841341245,97.9157126851103,67.03405066212294,59.041927605636204,55.826820712919265,35.42879052987463,20.848263171512524,14.047201452582556,-6.694181196134473,-23.12978573958253,-21.864141110613005,-32.98297199550671,-56.73766928946773,-63.87238855983401,-67.96748962868583,-85.59630767430954,-92.36334946085225,-87.50002842747985,-93.80305383418779,-94.94367577310743,-80.01663790942214,-80.51165288947483,-97.22768123844128,-100.43067302337204,-101.53628453782953,-113.09474197328198,-107.04632076855764,-85.25340917899142,-79.58607120666824,-79.9590691232324,-73.23092741203618,-81.9400975471658,-96.89799503047465,-85.53557039681559,-66.81482254973592,-66.68733676868747,-65.58096959677427,-59.76143638698959,-67.36192742733117,-68.99289041770888,-51.30283921352677,-44.90714108755098,-50.925725402717774,-41.19149053620292,-30.8014174927443,-36.526636837293964,-32.408996822711785,-17.714762834811523,-17.7657786636344,-16.25676702917753,0.8207398213223351,3.4321394881476075,-8.877425227287638,-5.501316784543963,1.5691138563578904,-2.2720937578682565,8.843839178583613,30.945094102204507,31.0976757092307,22.820974761528273,27.435486541339838,25.536650238835236,18.791738542432885,31.195304876169132,42.90996207442567,34.51461519181288,33.411466935107484,42.793625380961736,35.655896067736705,26.41166744859229,33.63091367392012,34.90246602734561,30.755542369342052,44.36249830340229,54.45784229685833,40.476949420903736,30.426902366255916,31.88501263396252,23.57706090116427,21.211519218173972,38.31229290176884,43.948917699813045,33.67832133961844,34.994903117194525,36.10381820369796,22.079067325125457,20.21842982052709,33.97804982313695,36.2872081210448,38.33979597497242,53.60370185426396,52.90203903712081,34.58471027787405,32.08288096192993,37.39613197091682,32.238249068448646,35.709454002838605,43.499308158222085,28.76822153077782,12.678000022315512,20.557012992192803,28.47723045829019,28.276766224787266,39.29895062886468,44.88471126766721,29.72342016473359,23.124789994372502,30.646463854319705,26.98636965007392,24.325249178113292,36.38098182922877,35.16480847579025,18.247969666443648,14.109550919303391,12.896498763469491,1.2472424001251605,3.5285676142222746,17.57092805358845,15.101463785553282,10.269170506272468,20.21983832119471,20.226458457128537,8.592122703362898,11.597473573193257,16.334783694169513,6.673927264191958,6.609386135630418,16.725355427778947,11.288680774342147,5.10043804323168,15.16953157344099,16.185549014374814,5.943878932900337,10.780501630396156,18.158892626979448,12.178464030092352,15.198690880610199,23.591376960711163,9.037955241974995,-8.740110418581812,-3.062910586697276,4.840289488420567,7.795229095202323,22.147493714291382,25.887662539824035,3.20217686557012,-11.436364091892598,-9.068636100239395,-14.984564889499683,-17.097190603992214,-1.9235773646792609,1.3955364791288345,-12.332756826582388,-17.937290734358104,-24.675352987222233,-40.989587677561275,-37.139291049481045,-14.067174921628647,-6.460934716798761,-8.198794949829896,-2.817122334108801,-10.846248339641614,-29.91402591525606,-29.804164254742837,-22.63930527594443,-28.096260203361727,-24.343870626036438,-10.702368276124291,-13.523219548932405,-17.87136173317224,-5.796352860832508,-4.132830864814976,-18.370590148033422,-21.747728344546765,-22.173071730527546,-31.65509236729282,-25.01102511204675,-4.200858350419078,-1.5761445177415343,-7.186414907948869,-2.5202561632726406,-8.216509596087928,-22.438475688462276,-17.170401169077405,-6.457503354348395,-9.050336637084031,-3.065937004753073,10.520719600244535,3.638694718918072,-10.54180217678775,-12.709401460699642,-22.829873159234644,-37.4966090616335,-27.626261970101503,-9.850173210170002,-8.415519308798544,-4.327850584665528,3.039348539817621,-9.57043691287876,-23.02129314952059,-16.646777634863618,-16.34795697105483,-26.44954462877034,-20.835885813754295,-12.684701461189587,-19.32502260521655,-16.21772428126745,-2.638782851220173,-6.959344179055429,-15.604673530028677,-10.247118599141512,-15.161953055911425,-30.438579925579447,-27.21810370657936,-18.89702586823885,-23.76095299799193,-18.61178406196741,-3.316649076727317,-4.786250861797071,-8.214499426379378,4.831922602831088,8.935122573502293,0.11073605632963268,3.3631191818312045,4.449393252162852,-13.137714398394397,-20.440017203383746,-10.468218965307472,-9.528611371575606,-8.149438942658534,6.534481383442279,6.334202658038722,-10.293569787216159,-11.215426389623733,-5.609123551044336,-11.858144994015333,-7.94809745906794,6.353343757912952,2.972012361912692,-4.743586121861469,2.338479819553709,0.7133448347592801,-11.424780888463902,-6.5264764838918286,1.766458583535654,-6.827062946807489,-9.308163558773396,-2.9306510371723586,-13.250447595133439,-23.97455219196368,-15.10335420085159,-13.122093143229726,-22.816098322867504,-17.747662973666046,-10.571945093292236,-17.210751949028104,-10.951972620671794,9.277564099013166,12.246723466140999,8.618732713855964,17.78049112764885,17.66855078188671,7.038742803476522,12.111105085590495,16.840301578838595,2.115379394900467,-3.2599751165736746,8.627726889370491,11.015465163870328,11.184838885500392,20.79511524162469,14.086813120222914,-6.5544692615929145,-6.997071788285763,1.934388168422844,-2.215449490569899,1.3154681455622275,15.039216263555135,11.585048277919757,3.1512785839162265,8.684794973150442,5.251778890953847,-7.68827089111099,-0.6769606363313727,12.06416798504178,5.716014681993949,0.8740671546199491,5.930618932909975,1.6310311821850032,1.5091739063409653,18.623621731384237,21.562940071752415,2.835016336297354,-6.991577619141964,-10.437600929276151,-18.536798674195786,-7.868810934481453,17.990635949300806,24.208035555165246,19.14348381233124,23.103711806514134,16.254945102163724,-1.7949658610554442,-2.267468583929689,4.445235672658296,0.7445514990083395,9.26082036713359,28.760445372596603,25.406262475097424,8.72718741014562,4.017961880706493,-2.6818962225396894,-11.424885194375888,0.5077181523637879,14.422490742621187,7.2626766303351005,3.6875792371045826,11.484973824411728,5.713810874750575,-2.0431642024029424,7.802624414053844,11.701352429259671,2.289706234471107,1.9965437748845725,-1.0449866427073964,-19.300925462706186,-20.880036544896928,-1.5449231968287407,2.8943895901592547,-3.9824836923838918,-3.055918174504429,-9.341224684885864,-16.87386843683651,0.782601390495703,20.17884088005638,13.227311404669859,5.790031915544564,9.665018788480548,2.8685600641160676,-3.209688019955178,7.029765699133092,7.523969970354423,-4.140648965583237,1.7375235111986829,11.882879752315418,3.446884100943539,0.8545108165530149,12.33454378699968,12.048647643047303,9.109850794332187,18.92053984117416,14.935716345492061,-5.7957665137351375,-10.052319838296794,-3.6748322372825726,-6.725978551032987,-1.1551880511335897,13.452588755465246,9.128266472184732,-1.7622832512374882,3.2484163217310713,2.9586943598335615,-8.627265072727539,-6.636252588506867,-1.9848404636144434,-11.831810095286587,-10.503350663633576,6.598863971962461,9.468048637435952,5.340294371545047,12.06860696710123,8.547346498963687,-5.539878626080979,0.23267743941952634,13.660129803923688,8.977272570954806,4.152070173513673,5.576069586891163,-6.5232880640722835,-14.759360524006421,0.9401261840676431,11.10269402499086,2.441396895729177,0.21126748243453486,0.14615410557690234,-10.063072374896421,-5.716494309227838,12.384370922548266,9.2449359413936,-5.248321325595022,-3.5928033956750394,-1.7968246086959714,-6.470392912302685,1.9385824184408342,8.546442280845799,-3.2564693335922428,-5.36208429775918,9.950324537624915,13.144202722704385,6.378019456473002,6.465518338768742,-0.15486762346177185,-10.523436029383701,-1.6293261970491484,7.746695736867855,-3.869240501598326,-8.211635860848045,7.85678058036218,20.82055076649622,33.919003893465174,56.39885420808613,63.96534793565672,59.626480830069454,78.68999440954275,108.7896160356596,120.1990606709018,129.28116138414265,140.30261212206267,128.46747456735943,109.73122571651041,107.16724405548891,96.41290435792257,71.75480303188235,59.72255782292948,46.66931138284833,13.520936439029569,-10.457453389406142,-17.22872720144195,-36.6700302928638,-58.70376789120989,-61.215838116293256,-67.62792124305787,-84.92690731151471,-87.12673789150259,-86.03736625097092,-101.77118205280487,-107.85218742970856,-94.84866198466715,-93.32938008988233,-100.41538498803257,-97.18933909527922,-103.2166862357487,-120.97894063635553,-119.10404881029363,-104.95341088078501,-101.0296494711606,-89.9207438904341,-70.95166526243314,-74.02109550453613,-87.24079069996966,-84.11933468946101,-81.9751766873878,-86.21650945103741,-72.48808701427058,-53.994642692743504,-53.509221513123116,-49.667994707249115,-37.11565855327371,-42.53430118079808,-53.51600650514538,-45.04016334864964,-36.23329807947247,-35.013187082887185,-20.595508054076994,-8.969370255515432,-21.799556817424897,-31.377985707071858,-25.347519821094306,-27.989579798005007,-28.702301199504713,-8.202491129670108,6.638627123252408,5.205451647467055,11.967422083014817,16.615510313806777,2.8022685780571006,0.46735370256600683,18.96089427328131,26.95232023662222,27.563925983886108,38.35294860112287,38.18567714330017,23.16823186723689,21.801518603923622,25.182082659489563,13.386391420209996,10.572603495807694,25.31441500520195,28.940186244678298,25.337258609242042,31.602858928518884,26.31991388010882,6.713760363504376,4.313116956935796,11.801637409367801,7.831546491330735,13.0023801130155,31.70134317544002,35.22947154224177,32.84439339497291,45.44948341114859,49.63302945264435,38.60769273714662,41.122060738155184,48.50166736054131,40.877577759142206,41.71936914670591,54.70887356657694,47.99345255854673,30.852275940897933,29.30239164841877,27.962641010219546,23.71107149907022,39.75850322221446,58.05151939869881,51.1727560691377,41.68503938436548,42.73215014280927,33.408546812124946,23.692482136923076,31.30391691234128,31.053038415648395,16.30772039347773,17.785661000418365,28.423257059154597,24.791888936762035,24.7258006353393,32.03081248102545,20.99079068816706,6.8020135169188904,14.643862887083746,19.85294335809325,10.292432026475893,10.853149608273013,13.725394019713432,1.6974118600210426,0.8484054150538234,17.377706711050386,20.028125278168915,16.41296106706965,27.147711873961036,27.955352196249287,12.145633616941803,9.161226219804426,11.476103346138126,1.7438201620143214,5.314249087229482,25.74017006299372,29.175484419848356,20.779121916845476,21.536300154225806,12.747433635887164,-6.034494809174471,-2.1089970737053294,14.292143451604677,15.650978222573194,18.600982186023046,27.5711148022818,15.697004634395643,-3.7257271578792626,-3.4923219633973535,-3.2013573337926973,-12.005239914698773,-5.401162012208307,5.661410195156162,-1.9869641613539644,-5.879050911056021,3.5612928106487827,-1.0217062003592892,-11.911690908248712,-6.216400019541372,-4.355564597429105,-13.69372117038818,-7.014883120711309,5.2980388446062685,-1.880978759329281,-7.8626091556745505,-2.825474433945282,-11.446283768531057,-23.170572452420473,-15.860684312650818,-13.155384630266958,-24.049592479410464,-21.20608728227093,-12.881030033724834,-19.392200008641947,-18.233056436718176,-3.16878292577862,-2.462190511287253,-8.180929109274388,0.02233494650999468,-0.49775050354250183,-16.694920967778163,-18.12948258626341,-10.259430224151114,-14.898622030662606,-11.503536017722375,5.311317293374779,3.503442639547856,-10.167782794458295,-9.479919046313082,-11.525360845154381,-23.179458566354374,-18.54603988755259,-8.729248277855191,-17.25646150374201,-20.722301303840304,-8.138391665294572,-6.182848963962857,-9.895517289705088,-1.0692045620204889,-0.284354764212849,-11.83336434672075,-7.592940582488888,1.9167021507402868,-7.07774895128052,-11.552632659548609,-0.6358913478410928,-1.7752777174982022,-9.27016409153362,-2.210441272445157,-1.9793434443405646,-16.863467734267175,-17.86908621872147,-9.745672175990174,-14.692193374732913,-13.149063663333541,3.5774612158090457,6.015167988977577,-3.346485745447388,-2.4707883123311083,-6.922341241293991,-20.60994299498551,-14.92688441925375,1.9428360916620173,4.021021020685208,5.819781329724141,