9.138384778380845,51.293961435193324,114.29789952961384,127.19177412596795,74.6344463997858,16.42460218461831,-39.84907480257531,-82.27736667931305,-47.5305511424867,3.1139742538365667,-35.6878192807182,-83.03168134710211,-63.77077082561979,-68.37987034511896,-102.15614291421798,-83.40006270520072,-77.43137253834962,-130.48818388305241,-131.52198627186988,-85.54221888401014,-105.42859975617017,-134.81407937112067,-102.80062365231123,-101.34028228877413,-136.4072929826166,-113.06521569546166,-89.12753314597163,-126.27888025481819,-125.68691000374284,-81.36472602143208,-93.33902250216505,-108.5873812916501,-64.98358692761731,-55.722218737117004,-80.67836178792906,-39.99854643775124,3.1434711120839705,-25.17819143994717,-31.00058612383451,-2.1156828365100626,-29.765129249263644,-54.52864714768194,-13.545270587324584,-9.115413676351308,-52.38345472199266,-42.00336070674239,-27.166373534823926,-69.39306192011881,-71.81223609134429,-27.932851274467215,-40.37495517891094,-59.04019997990489,-20.151008870479167,-18.970754081977073,-62.35426609532743,-47.316701994900214,-23.258183899023837,-54.85253980458479,-47.747768797869426,3.422551785650345,-5.5507245306209185,-24.281528987895808,13.431708504385583,15.246838624357055,-21.61415801989249,6.750107210235161,43.47835046999046,14.669360015175002,14.043732936611955,53.63244977211332,35.11001700338909,12.453641777943508,53.491421539288815,60.96041028456227,23.721574159218754,45.382468358958,75.69622387646197,43.301748952494776,41.476973868014475,83.2270528449563,67.18196227069998,42.67816755085778,80.09181482627584,85.16809770720532,43.87570830283086,60.57308679126705,90.6753352511214,63.73513586528283,69.96166751365642,119.11940128280136,104.71483676070031,73.48384715992063,102.21262660818638,105.52088668063837,70.44358054763472,96.19626105692159,131.66848245655314,100.78171366270044,94.58817135432037,130.61529669913784,109.53176254114943,80.58144846790097,116.60843565702223,123.37209212151657,83.2943614958833,99.26925199818781,126.88862141858887,94.44015685401567,93.34443173196416,138.35893184430654,124.08738344610643,94.34387798513262,124.35464808715425,124.86995070927546,79.50436512204615,94.07092220141736,125.2772777455597,94.52289354861094,88.8464100589517,126.30918370997286,105.70662777785788,74.75233670671435,110.12904496891949,116.97174325488828,72.10583667083833,81.25778644204361,106.24553737195734,73.0246565354285,69.42371102719063,111.40018142835955,93.6651416214315,61.12173801477866,94.08764643861628,102.14439443466668,59.83756237640233,69.83021886132565,94.54270655149985,60.25477971704227,55.44190290087217,97.80386369321043,80.00769539881765,42.138028516236346,64.59007018599317,62.79403260663466,16.610759441610853,29.905652475843716,61.74064853447938,31.824264464109277,25.270105321850167,63.51591722354674,44.519322195205476,10.742950592338332,42.22491903893305,49.22495358206885,4.115862667761945,10.411278961769371,34.22207403720072,1.1310114780899205,-1.4370601725783088,45.981826279952244,33.296344247221384,-3.144988189117363,20.8310434772021,23.96915273256164,-18.001530576167568,-5.219331879191145,20.62975998130599,-20.71244572288982,-39.00536595331294,-4.417192859435877,-18.57300605156463,-45.10197654036246,-6.511507238526175,7.344363312331568,-32.371838104481036,-22.313296885449553,2.911546444462779,-34.19156336583713,-46.35693234662455,-8.732766291264761,-26.221159909008,-61.06963715197869,-30.354242402471698,-19.934290820313933,-58.71084925256022,-43.95977964738931,-11.16387608687257,-40.62032565634835,-46.19584522598122,-3.4546927998627233,-20.99398372287928,-62.37531157879329,-40.38720520677695,-37.75983033720806,-82.76753516623548,-71.64421866437772,-40.88990552610964,-73.56284276512768,-82.77747051614335,-39.99353154208105,-52.424630517797745,-86.48028847022508,-57.29842825324295,-48.1255402713565,-87.94607642240405,-72.95979130759342,-38.974963407005646,-70.18722249181816,-80.34071050660744,-38.3758222710867,-49.315474657914606,-79.71434180489126,-45.899029175013155,-33.89828582171128,-75.95521211169937,-67.2968584031272,-39.38071890640221,-74.50955700073158,-86.06483862037166,-42.99797725870129,-54.25101143280763,-89.2740452520904,-62.221980662761766,-57.583065826469124,-104.61435230024635,-93.1417913070811,-55.67664941646491,-79.88949758977473,-83.1807754086522,-38.424296402436255,-53.46058527583619,-89.77192091786944,-56.62707277979555,-42.563360716386896,-83.8499931814293,-73.18836373911715,-42.79997757476324,-77.32503044880855,-86.71412722810845,-39.53824241422568,-48.593383043432354,-82.43088826873613,-52.223857256980494,-44.4284446479126,-91.72372939403031,-81.61471819468325,-43.699348240103006,-68.81782654586351,-75.27537543691184,-31.90265469957727,-47.52631843700736,-87.30260368722898,-57.83606980615543,-43.52881502315464,-81.42155086689769,-64.41092050596008,-23.755770293395685,-50.01179908540663,-59.74241711537944,-18.371788750726058,-33.48323968476967,-71.75019282692962,-40.27142254461792,-24.738895622926627,-65.87417233640578,-56.23962126036442,-22.05436289527701,-50.561139577441935,-56.27493632235853,-4.303350711155037,-9.194547827555084,-46.04005316253232,-20.982498980608277,-12.458419926736822,-55.84863107879143,-42.276946361750944,-1.5865959575105002,-28.880583835497355,-43.13842338262177,-4.534342806941748,-18.533967309486442,-55.59021801535147,-22.82392403327935,-3.7815244336077334,-41.37838188102133,-30.513115695616676,2.566696326284317,-30.319757618232877,-41.8067068043361,9.797190453747884,11.90871534939304,-16.482140280608668,13.542630403414709,21.482159553522244,-27.875036497111626,-18.968136783646624,24.847362781974887,4.475855916223193,-5.377492931492708,34.89651265522139,18.527719967770437,-26.37078099116156,-1.1256488085090908,14.597114261288475,-25.084555829553057,-12.993513505588707,29.077328932914618,6.1357547486038815,-4.539740831198495,38.980100966108125,28.923029110899762,-11.068704521739287,15.647953306329887,30.309951976370943,-12.94819333151927,-6.640752583787091,29.230360026716014,0.8228036749203831,-12.922824757092467,32.50604868347633,29.02440152668173,-2.7945657830915778,30.64898492548933,48.16244764779901,3.7502576075756977,7.409913595058955,40.918757721970884,10.079108692113522,-6.796666715685882,35.10690979938033,27.932962351180734,-7.636060547868347,23.612148899218447,41.275737627379435,-2.0469455984239744,4.539270903547838,44.44878878016137,20.941453506609772,9.761777519385527,54.759510871640046,44.62916415936144,-0.44216612698174274,22.450538187794823,39.77286416552409,2.5115591577036227,16.02897329382803,58.865723964288364,30.818896818656007,9.71756070131868,47.54283694303565,37.90075589315407,-2.48437159513435,23.89050603247982,41.752572176248236,2.0672298883332445,11.586512911871441,52.59743417055191,25.526926411495516,5.085227595327205,42.976220438451364,33.780584400876364,-6.447989387840721,20.61311541624258,39.43909430065451,-1.9858480812242938,3.941022185821341,43.12101725652785,15.680239376557623,-4.396201476149422,36.928038902440186,33.45566717129719,-2.5224486667206207,27.182621828958773,47.11101964302311,2.7611146201310746,3.608132945595009,40.52027420788896,13.535942175767644,-6.177673492682253,35.686662474516204,33.59203810409222,-1.95209881557523,27.067886990553042,47.1864933581497,3.1863874105585275,3.4686223322607157,41.3371530955899,17.302231830174808,-0.6753909359887635,40.860638281026816,37.002902938450944,-1.9805841492009044,24.465325422902545,45.73807560724939,4.732249260796181,6.576332609092106,43.445080286277516,16.717482290888967,-2.90234123519578,39.54838293168558,36.73346712217524,-4.592763409487015,15.869595250832521,31.9850775516199,-8.01813495508329,1.4250939893974852,46.964345403908325,22.71188496717084,-2.225583081772135,33.5791097876522,29.305095726559372,-7.836628721453229,19.051371252907334,38.092203369045755,-7.377874974521141,-7.830063516802598,33.41519831374388,13.11773862019005,-5.229914688288337,35.171405595147945,30.69271242955471,-12.05425106135173,9.386467345582096,28.163132913750413,-15.185170302722216,-15.670517986260665,22.71056363186777,-1.56183158637943,-21.862666510642,20.853334647069037,21.301527835039053,-17.253280637599104,5.827891166761184,22.912962500259237,-24.970949617530895,-29.143831816791653,10.598413326414066,-8.10342196470708,-22.825824932516277,22.969832633017592,22.170715791272322,-22.02000668433372,-2.990894102769289,17.62549439749008,-20.852593841021537,-15.316209992373516,29.711301559367346,8.474957642098875,-15.850176577706444,19.36867953959242,13.550236351631316,-28.62135292923573,-3.8384685167012638,21.815687474424916,-15.962947779045425,-14.657717332776901,24.90491557761488,1.1260731112072264,-21.506298605811924,18.204371137346794,15.330296726656567,-28.806852783483233,-8.143385735479697,16.16592993232496,-18.942418254699703,-12.500157651709166,31.65470193058338,8.169221417537065,-18.337922865381287,17.93042879268071,13.79544897789407,-31.85659930703069,-13.029349505545923,10.985166989921922,-23.47348021693073,-15.90029131776759,30.614549507004632,9.419257885337776,-15.94039982427037,22.170213078778026,21.423348706595704,-21.83761461810325,-4.9208309270017185,11.48856279386712,-34.639001927393046,-38.16890473580108,3.3161931426689506,-15.459272598219385,-35.12005504840466,8.177806226589972,11.400046134509765,-28.46761559043386,-6.08856893328276,18.845014402014705,-19.87202147929688,-19.370076748025426,24.256190358236395,4.695484213117087,-18.978671769798577,20.281756108242508,20.25577554884856,-23.07705555368397,-3.158170828843369,20.62605652913099,-20.311023508667354,-23.397984537943987,17.393609395394897,-4.6308280237829695,-31.27077511223119,6.857431614222335,8.699392028815154,-31.965630330528377,-10.263570422025934,13.940149131415344,-28.219462760469234,-32.71143260416893,9.094064848718318,-9.547706194113125,-33.72884697934658,3.2638955828300062,0.4778710780741111,-45.47589906140731,-24.547742877498052,6.527654161824681,-24.085119019376897,-17.90855619544687,29.820341792461804,10.583260723699894,-18.137334439119623,16.738946154994522,16.287783482689427,-27.79926024381897,-10.129940730809903,11.581461907595944,-32.556111929521265,-37.60479293568346,8.325569856628757,-4.267174593290624,-26.21135730264156,10.388851347165211,8.560312643167295,-35.98555902675895,-14.241898787043514,16.752783166118803,-19.26635668464494,-24.295714190023837,15.389246702495301,-3.245078479966436,-27.266678497944987,11.863690820292202,13.632138521970509,-31.870761555032082,-15.311246414003676,11.967571133149228,-22.7138957947609,-21.82905950392461,24.394115746242868,7.36342237271932,-21.060963991733978,12.722936765673797,12.850748575025213,-30.28681749924578,-9.304333121793967,21.462951412222107,-14.353258755749277,-19.03504581654284,22.511465299319823,4.755587010451913,-21.342913231472032,16.843454305760805,20.164448198151305,-25.019749770255178,-9.001354978741523,19.53938804201435,-14.50513384157691,-15.347361237079422,30.026313058749565,13.217641627076926,-15.637323862371005,19.255066119479892,20.653417599483035,-26.237743836347647,-11.16397893163408,18.55340123063446,-13.831960795379366,-13.760545903144347,32.55945066274975,15.275748344399778,-16.55213565805377,16.960819223273056,21.29034136624204,-22.021815438238065,-5.96203981921399,22.17088098482225,-14.237700269194942,-18.356797478146888,28.050127046587825,14.792209793372821,-14.677367681232756,16.826012203799117,17.23382166872679,-28.7789238823013,-12.493533841242897,18.12962383320035,-16.196882832230262,-19.879408848695405,26.42337403616044,13.936072876244499,-13.457998441293885,20.36053920925624,21.62446963519296,-25.156325083949135,-8.69763100613389,25.236182888069692,-5.031409548223458,-7.547449007520142,36.932409009416645,20.651644957690127,-10.965559105890055,21.32590149211683,23.399228010620213,-25.010215110743744,-14.667925224140586,11.960404847555942,-22.69874120393621,-24.823169238882166,24.41821273111903,13.867738628433525,-14.724136232949439,18.642572188172796,22.6533863482561,-21.560500562699218,-4.349399882679611,28.710775910927442,-4.988047813270825,-11.002240334475722,33.781469761497036,19.68525798058471,-11.188172081033521,21.748571814278357,24.774837553266817,-23.80033278776899,-11.30019949137865,21.043622612235136,-11.49876735483626,-17.88819430480864,25.27476680671888,7.744100218457881,-28.7217253443888,0.8780302403553968,7.1512096855187774,-32.809488964604206,-9.454192410942467,33.863838137572095,8.646169919450957,2.7774989855017598,42.19244332443762,21.58352120408832,-15.243668901742861,15.77861810704593,21.604547224270426,-24.868834263543523,-13.653963973163323,17.74353655426614,-13.162833394822556,-16.627516768939586,30.642226220985865,16.85726248976126,-19.585664282077158,7.4997006579691785,10.65483485599378,-35.52827956647772,-21.089153763151884,16.140867927503336,-10.221682233146304,-13.37806650340362,32.23548752925548,16.74844906557982,-21.272133675443015,6.156113676896176,12.208441943547548,-30.597614995706678,-13.853836473857406,23.770353165962838,-4.8843735582005685,-12.423799010078703,28.483905636087073,9.465270515916625,-29.5009123289458,1.1919375775683747,13.03293722430829,-26.491997369411692,-10.188232353685525,25.412998926267818,-6.242426410075158,-14.720985687912911,31.61954693981933,21.435395055017814,-12.032510878077414,19.125016445252793,27.93849614037941,-17.110142086324913,-6.362655589777441,26.737773103663464,-5.787618567098594,-17.351886371942236,24.5218630026071,11.283980821950168,-24.629969096827153,4.4985653908224315,14.020537805225462,-27.536822435657843,-12.02654437250774,26.44581159826621,-1.8013619890896813,-11.407254972720237,31.935448500839826,21.297633157657792,-12.187991219307632,16.171588006786585,19.618459617267284,-31.04497713118154,-21.77887225679828,16.37012099623466,-9.769484801903138,-20.989415258166243,14.691203226467254,-5.55176803479803,-42.77320650052287,-6.883864928754431,11.850657619628157,-26.75469452651069,-15.35414070076915,17.892860451035737,-13.653941427188663,-24.099950146375,21.130356873378435,12.221147322954137,-21.15864491145362,10.16718021122135,20.941976453774437,-23.552488466748393,-11.735345176912698,27.169514064554456,-0.32345703659501623,-13.343152958126812,24.05344717392457,5.56320833921634,-36.25783558200941,-8.91068846434018,2.2909477102942777,-41.60351184216019,-30.195002558759295,9.50971479610973,-14.954008178049019,-21.472593395425296,26.10130775393008,16.72302221578464,-22.086106029233537,2.6974248980643694,9.706444505221322,-36.88734875694429,-24.94534150387748,18.723028987419834,-1.9103860169710813,-9.418991711698952,32.63223132595466,16.823311013815125,-26.521263103923765,-1.6906036384983416,10.077671815875753,-32.490988983719475,-22.23673869429419,15.310695351907427,-11.722284079572841,-22.415671606623533,21.71386730899581,11.327264352923867,-27.1545491883252,1.2459368084550029,16.084864805673647,-24.232318959051064,-12.657641487927144,24.71123431816976,-4.907202068870568,-18.92827631693583,24.264871422461027,15.55884709147166,-21.287041409202622,7.11711331014957,19.954893324975814,-24.46440284499137,-16.22442859734015,21.828967557103006,-4.6052446224707815,-15.385792389521415,30.84754297215234,23.469706292961256,-14.825542059038964,12.11485549681196,26.160194145589724,-15.263141132691338,-4.334548982184593,34.11914500817531,2.9655684220561938,-17.357786321075586,20.731794013579723,11.413619560834244,-24.091404360616075,7.166512197427487,24.11881363217552,-18.62523215525993,-11.9776545504485,23.932626480796213,-6.540215804719789,-25.06880344499488,14.775678056492215,6.804190357264387,-28.29826894383652,3.7132593249232855,23.049595477680167,-17.252778375137588,-9.065143965669055,29.148520998117213,2.0966433297254277,-13.068314079760755,29.461359263890014,20.871514906946373,-20.20848698929297,4.767464232021688,20.953238636947038,-18.927550663386395,-8.461210500598508,31.381832429031714,1.3877782018184561,-20.507372315265968,17.514572723743868,9.046390505161172,-31.0667168201589,-7.410323284642219,5.5550632807739335,-38.16713590181499,-28.67099468712757,17.514763149817913,-1.2214503001279553,-14.72829818030629,25.313343531580482,15.031820883882794,-26.648055703557585,-1.3478783611227705,15.707850712560887,-26.505705626913066,-20.715354983663822,20.41330234235958,0.5130589365481413,-8.311215343057059,39.454107195499475,33.28424103889952,-11.36477016325311,7.966776133768061,21.23142279052943,-22.2459077826109,-17.879487565926638,19.101429931286273,-8.214514900821271,-24.997639475477225,18.636418557415492,13.918026086261154,-25.162813999364523,2.1406192217711997,23.891658392121315,-12.8771881053494,-4.216013034546561,34.83252378100694,6.478132470028481,-13.263944309707727,29.4439535628401,26.12869776868741,-12.818768952775896,12.253596580029752,29.698531331529658,-14.057488604993111,-11.678029563605769,26.75201746846521,1.0018928494451842,-18.494862812007486,22.525747906617603,18.023538099683396,-21.693323832373967,3.8626924506091385,23.496733767737588,-18.405824533121475,-14.819697882318764,25.929729220384722,3.611793271103366,-12.985757199355103,29.05246330392103,23.27696117187699,-19.37306806790957,3.2296554238440756,21.567095458803706,-20.00169800359812,-15.126304143852611,27.51819644582286,5.722353677055931,-13.319676215715917,24.71065264028018,14.577174300335804,-31.926955150643785,-9.702378495059037,12.558865659217231,-24.70222958587612,-18.556436521653325,22.337916536404574,-2.19865621538953,-21.114994351888566,23.45320558841876,23.926669977948073,-15.100547140641593,7.468977982626612,24.259509100104996,-21.1243816717369,-21.314191511664347,18.546949670804104,-4.062587223039884,-23.44793799030387,17.179535602549976,12.475797256021535,-31.760888356987692,-11.850265791754836,8.946672969127116,-26.71505075622369,-16.433989109065145,31.280318329449408,10.700890376719789,-14.046376144011955,18.262208033190767,8.012170858177132,-36.958284271646804,-13.387761817763117,12.28889906209515,-21.92223763609711,-14.46087363324685,29.044426420904824,5.364350142713311,-19.328423053507215,17.343733538752648,12.997782325087254,-29.012610147484445,-6.421506837711627,15.825207232708339,-22.7542336042073,-17.633512139971984,28.06015454074496,9.172484082405255,-11.815654907243253,26.301785311243407,21.10474762640315,-23.30558153097542,-1.3652392354794856,23.105762967735778,-14.573967730797513,-12.820448863174745,27.24222030053702,3.1775935847148613,-20.85773153225506,17.693232466105336,14.764168078057368,-29.669267618633604,-10.536015326694079,11.74278601521543,-25.767219494134558,-21.663106896655542,22.583679263495853,2.6016042551119067,-19.42359738060872,19.56069917719644,16.576475737218146,-28.046395277821127,-8.716058189427034,14.42865558520899,-22.723256219184673,-20.222517845352602,20.659190774089346,-4.063411014599385,-31.358412929182503,5.3236550037496535,4.4540046097394566,-36.736485549788476,-14.091941871281954,12.831328863704393,-20.801412054689102,-14.229543341584405,31.97732415045554,10.476965872202364,-16.993404282850467,19.654508069142317,20.848169347083793,-16.877608240358292,8.886867983479467,34.76802395401765,-6.841743346303456,-12.328166558816,24.250689780127935,-0.5931911072161498,-26.05339963338169,14.83033482998382,17.548156772650408,-25.52771955888359,-8.462823791933936,13.069162569087919,-26.01661046285357,-23.389981041872844,24.09634204719777,6.463850147624347,-20.0630369829001,15.03308054710137,12.904747424843649,-32.346331779838145,-14.396013049585356,9.893555262639865,-28.024720753921294,-25.80889419090201,23.005066715281238,8.753895032457073,-14.899503410438843,20.780687573460817,17.224119303484525,-29.7038367289286,-11.80261090958837,14.38437634081746,-22.43968536341427,-22.86319931612755,21.0654858288692,2.7732903588627416,-22.498321369682753,15.841753935042078,18.11510694113084,-24.965560210811795,-6.94887505528828,17.751784635746546,-21.044225366441946,-22.022652514154064,25.043637172055668,11.072632294859627,-12.986647387839863,22.854088332351097,20.209014221240736,-27.692224183757144,-10.057626817975992,20.19410829195291,-11.367391168125593,-9.038509231473597,35.67754887478227,16.088564752643244,-12.817151173393086,22.767715926278726,24.210126054937952,-20.777240803575555,-4.5544475020938275,21.808386186313246,-15.021815936546798,-17.841662920634253,25.015451929643174,6.139743697108138,-22.27237967203755,14.318919366097916,18.270245815681704,-24.099241769677775,-5.548501334618482,23.19637844116633,-12.407160164157432,-15.6421383498222,26.74857057038638,7.689266148457946,-22.009689975156743,12.745689842250691,15.948338262117272,-25.898602236461144,-4.8868281638881115,28.76484830075921,-1.1849334849393642,1.1526443428119366,48.720904628383224,31.53262779195139,-0.9744616795850156,28.407394915118743,24.360247456356007,-27.10204898825009,-16.476912420004425,8.190337640305039,-28.3781213792255,-28.962493323562974,20.487867340264547,6.676253946896992,-25.712244859419165,1.5409611914503856,-3.5815544260868304,-55.05926667589538,-43.76879108487212,-18.169252389225207,-55.60131133925144,-58.724742099220926,-10.933404262611274,-24.153898598268288,-52.94687670428075,-18.141456919080813,-12.313213005557813,-50.90672505347328,-25.334606458462126,14.43477896069542,-12.49704191767438,-10.115422412885305,40.02725912138556,26.404087279298558,-5.592124095446096,25.770403631075418,28.591217647781306,-15.32730077544333,2.108990111665065,32.34028163274511,-5.203222597905366,-11.980933107825656,34.414764251742255,22.417785626348035,-5.446242181842628,29.7271676972115,33.43600885909433,-11.927079446128797,6.3788277487000435,42.156159295643484,10.619042518232373,4.838408958456137,46.44308896438649,26.05660492248777,-9.973545807684394,22.29216251309815,27.9722354243423,-17.125030639610664,-3.205028609891942,27.023503082994708,-7.047706469064732,-10.150131559440124,38.96701834705621,27.093535112335744,-4.097163100142161,28.07420326607656,30.791632755936796,-16.885551934023727,-2.426220670961424,29.795788418178706,-6.208162987218383,-16.425629549916096,24.09189812325922,5.671584879485398,-25.804725282275108,14.517054339283646,27.684553653317053,-14.846460788439199,-0.6641795500875407,29.826112927781608,-4.706626166111683,-5.685568098191025,50.089217167602,44.022016825721764,15.645009372563173,51.732177365418885,61.147408686611215,23.411388109386927,51.2346836829409,94.46665663017926,60.89426638390029,46.54954676566773,81.51915774957955,57.46164038790211,18.622191889958287,47.17269748606015,43.34639029241559,-16.793413128398285,-15.021060251079604,7.47574564806597,-35.45449366328012,-47.154326023078504,-4.0890661518200595,-23.27128764442512,-61.06479774441957,-29.872575834884003,-26.97351399941014,-75.58895620411508,-57.93670474546511,-21.30448138468381,-57.50964914473565,-67.32258727364697,-22.612650815156453,-39.4726685359147,-73.39775198492404,-36.93190459950417,-31.451391008959895,-81.5441241740162,-64.31834546979852,-24.13635754013893,-55.350045560396666,-60.61086899518449,-13.587434286496926,-31.80323918828536,-65.90277948619068,-23.656814928222992,-10.24693777148832,-55.77824944833063,-38.85871862077299,-3.159633398534851,-38.50331798001458,-41.675148176737295,12.217074989356814,-1.9187953666422182,-38.72686962644454,-3.3014116449287734,3.783740723432766,-44.725370620205084,-26.734772628466544,11.687506824172695,-23.23523331372686,-27.670487106033125,27.395689477278022,16.092605527083286,-20.253399360290068,13.011989269204879,16.364666359774823,-36.808037156024504,-20.67561000345531,21.41220154640262,-7.76940234541253,-8.950337962514567,46.207068444550735,32.997754249405446,-5.348017240983742,28.72859217783978,35.978822348058195,-13.305838082868998,5.0157238066648215,47.81972728471324,16.858825122331332,9.963626135716584,55.986595870337894,32.67658224514126,-13.246840706407083,18.986577606676104,29.867989778193134,-15.991205407451574,0.7584551106777777,39.29483824167979,5.281512059005276,-1.3892997566988199,51.28182478410018,39.15555467645193,-0.5718299855678364,29.529767970303304,35.7058744985325,-15.0550646927476,-2.8058471066523936,35.459940576872064,2.699470708437623,-8.11497153751515,38.734683813943654,25.685031004587078,-13.487570405180165,15.816250816331742,23.129768554079668,-24.746407410666336,-8.977312597157104,36.001141823261264,10.198906333998483,-0.35142268960886647,41.167274304473395,22.901465228484238,-18.385894101658547,14.01450674270668,27.965890090315476,-17.434896146820503,-6.777354325718726,30.94591415326859,0.7186333921422516,-10.114211317335085,36.02171511571026,22.954465373788196,-20.48765890252153,3.995762462539993,13.041597120785642,-32.48752991623747,-20.02408065805146,19.97843103817715,-11.197966033214989,-27.349252338056896,16.65209697635843,11.027029644531462,-17.66402146125209,23.003568364629402,42.692892494168774,-2.7184074373764773,3.2529993091266363,39.01767659772375,9.161758769447731,-3.3297231522451165,41.20518914744147,27.803504393114437,-16.574580654316122,8.71033636053496,20.634087564436264,-25.48964166154168,-17.73127304210746,18.05988509114337,-15.55173355083982,-32.248758843076544,12.98485942129333,5.867801751960954,-29.842327024822854,2.255733039365772,15.460481800329017,-33.9442659624614,-28.8677904833555,7.388872581069233,-24.058106345784942,-38.03203217077684,9.794173241862751,3.916370713962163,-31.0428672318732,3.1680181469947613,18.205171497442805,-33.07787566172121,-33.963683115598485,-5.4543019954634016,-44.26227778607072,-63.46744720586441,-18.155974799689353,-26.920859528953816,-68.53681363352887,-42.03374803535765,-30.47872329852618,-78.25459538374385,-66.96168000613905,-20.349412898046864,-43.350881534521285,-53.18452195702989,-2.7436045200150545,-8.468018636579655,-46.31340568535509,-12.005849917538756,8.675220862424647,-34.05750687227035,-21.560039917874157,25.150418561188324,2.5073137761462263,-4.900110267841701,49.069180770271004,43.08637696070988,-0.7020576779087833,25.12146678575709,37.93993268798435,-11.17267463355076,-3.1232472826669007,40.77146419417169,14.12186651892268,0.5011924645620032,49.25597966320734,40.34561323455941,-4.566234457842761,24.10174029607577,43.59318588835515,0.3267861097944085,10.422333242124568,52.521298688955,21.079371093730796,2.303455391082747,48.112858283302984,37.44262556854859,-9.385230261746244,20.076527002442567,46.27471292425057,15.569073099090264,43.31951045766769,105.95177891293827,93.20426369081706,89.65068875152409,148.56659362032858,145.95726271931744,95.8692389714389,108.27961659434807,106.42758142625452,40.49849770353619,30.409707749918233,59.393912406025834,19.37081865177375,-9.141394159580669,28.032739201346196,13.111621878738209,-38.42962903863934,-18.190394241793783,-4.43008508659417,-53.307066466663784,-51.25062402960461,-12.662478575946025,-41.27787051005746,-58.00074330143221,-10.195901188611675,-15.66174819958454,-61.49050667606879,-39.12196645092705,-21.710166437739705,-63.53067884457571,-53.11469894265366,-6.792649763514639,-31.849277077539746,-51.07661080218879,-6.7687145650829414,-11.476099481091614,-53.03661546319699,-25.551338219775907,-5.036034308815349,-49.0731324120157,-44.41761969762088,-1.442336491023898,-27.227558380916754,-47.97144672002253,-3.441904547322004,-3.900414650903338,-41.01918055720385,-9.946637496014375,14.20905736567323,-30.09550989054077,-30.307968731561996,9.005722213194892,-17.091712448494945,-37.62626149045031,6.021178243696628,3.2294264317222865,-38.59960721913151,-14.446187565618356,3.492982772684937,-42.92868074743825,-40.592998489833185,4.398468275580434,-14.672440533835053,-29.55778371503827,14.797507379104992,7.228755965380074,-40.37511587198213,-18.12281671616365,2.5130162625961954,-38.9685337911423,-32.61306652795204,12.13232191384946,-11.942615049237435,-31.354479996519558,14.160436275924265,11.913573644658,-30.47151022474697,-5.512037708549267,13.842749108401248,-30.547782759775792,-23.275633485549278,26.07669788980823,5.357031249312826,-13.99630320845205,28.775028208211157,22.260648741895213,-22.417554648745643,4.2277711835874925,25.483069015247736,-21.350087868520955,-19.58804560798316,24.995445675830226,1.198727213060895,-18.97552325033005,25.023635611415447,17.544579051127805,-31.43183003461079,-6.6717045331896525,17.904846706300596,-23.75169185832035,-17.9403237702057,27.816213595331035,2.0042632454702805,-18.816330846107846,30.07745460518507,29.060332660032586,-18.196750641509283,3.13439211263605,21.828906261805265,-24.23026567642762,-16.02902776880247,38.505475778804644,20.52273516467431,2.5190699522794464,52.705692521098065,55.85368318284975,15.85402599968754,46.55975054964507,76.95344725286648,42.87271346221996,60.43278990286614,121.59001925681707,104.69730097612907,76.43261014974497,106.87111224931132,89.88917006799838,34.02656833780789,51.1712262603979,65.84676925257001,9.363390945646369,-1.2890345148310018,34.17056353833422,2.5615399958153837,-28.125802409552033,6.375775098290308,-8.348261671461445,-67.09121112816403,-51.58593295333902,-29.40916778099245,-71.33373004855369,-68.50632511024688,-24.78628609273224,-53.848002061372114,-83.98870838382754,-41.52465145390332,-39.138247303625576,-83.81742398828604,-66.0940266564306,-49.91433630691026,-99.05388856566789,-97.42294383790627,-43.42987330042218,-56.61100870284954,-78.71762315134931,-40.83253448713519,-48.335345800822566,-98.16268357490112,-74.23467351436804,-41.43928098924166,-73.92987941591521,-65.59880666275481,-14.332927059007478,-33.072896787239614,-57.636533027699315,-15.368561659197837,-13.895614812871463,-57.137475446034244,-31.66120461008088,-0.6265269156077995,-38.347553128961565,-37.92699866601656,7.514930592880521,-11.75001711048564,-32.07682810057844,17.334214554729375,23.49285202974692,-24.170302419916144,-10.215403562413103,11.792585068322689,-26.770229170621214,-20.35187917852889,32.14092575666795,12.18646744368031,-19.696463308966486,16.775651474082355,19.880142507029305,-19.772811984916295,7.264546192080232,39.321846550581014,0.8842143050461431,-1.082873384998071,44.18357455029789,24.73303546268997,-1.674054150228927,39.07049738673848,41.870317903243546,-2.515379965004122,19.61809755983837,52.62104692951099,21.779473042825966,29.62622027000119,82.71987134188363,65.79923138844107,35.3112170318785,67.49020597499882,59.49010443614543,4.091654605594588,17.95856212708958,44.94805223924265,6.958436897923608,6.768601810799202,52.877471368240926,29.961985060154845,-3.202676927234826,33.34967314414837,34.60099724663749,-11.407287780015377,10.84624937938943,43.35392667818868,5.02472354270585,1.4213863039730548,148.8194702134097,124.19450049796723,64.73590771325922,4.712289975105444,-41.92458798963335,-83.0335273246033,-100.84892061786603,-93.53931659358292,-94.39718863420819,-109.13076184481336,-119.69849685853835,-135.779510140819,-162.05775645884665,-169.64957439050013,-151.86867130350225,-129.88771401817337,-104.88141693308313,-82.6487467753049,-88.15450149924625,-110.31100777588217,-119.48906805470452,-128.67748362311747,-153.557467707333,-174.8551598739629,-188.27048604699542,-202.56645332927442,-198.0034310835285,-170.8476698639164,-156.7056699625588,-161.89974652548827,-160.51801906366364,-153.14760634563933,-144.19869858667857,-115.56975100261266,-74.78576944994865,-49.58648592561767,-33.83255929769766,-16.522568549317707,-14.325422029174867,-23.93889543499831,-21.63248075341908,-14.96656541698385,-16.602000118555235,-12.677946578034598,-6.718466037304957,-16.711727102265495,-27.515045568629755,-25.68105960769535,-32.56229419576595,-51.693431744148796,-62.527695541821245,-69.26847228847936,-75.80177024158019,-60.189254722236726,-28.117934668280594,-12.513541303123036,-13.20088586326355,-15.846615006882177,-27.377926860837484,-39.2817266595615,-28.605140148515034,-7.9116205492944065,1.9563547880137848,13.308518731535363,27.553878243445215,23.63774428669716,9.924368918422257,5.355841164604636,-0.09535495365472646,-7.605013190288187,-2.172006474682899,2.1249494681544463,-10.286881146322816,-16.139323916881363,-1.9150113972421998,13.109792868857513,25.008894299716843,39.64242019363186,40.315920740930714,24.454755248374422,16.217260151596893,15.391493790885153,7.2782187056635514,3.8875732541486743,10.605427296119403,8.791519049920883,0.6793066232379079,0.07758384759659953,-2.9075442267066536,-9.005617401542015,0.19426071339590045,16.384991724974174,21.449984220324538,25.55188605958394,30.901365437837768,22.412247854367102,11.96901449762707,14.854554809064217,14.020358882246846,4.662208760233589,5.38035077326518,10.735688982373652,11.340540985965323,25.14071434666691,50.238688153585834,58.81011407181839,52.780085959484936,46.984838827482776,32.367186699884904,14.083386109775208,15.924373590363619,27.973402896956937,27.653107183134914,23.35072367230971,17.86196977852006,-3.8808753266754046,-28.75101247112512,-36.586008225600054,-43.934039804195024,-62.83600579145835,-76.61444974123344,-84.99204682406003,-96.73848041502355,-96.41181501602102,-84.20684685661416,-87.82966015251839,-105.80994462221706,-117.36350842093431,-128.33502202692827,-141.91599810880692,-142.98862526597674,-140.34823815178467,-149.74735019721285,-154.55243733775993,-146.9338488536734,-146.67718161378875,-151.08259099473256,-146.20460195323506,-147.3893673213446,-160.23251324819512,-162.48387198137706,-155.72498013171565,-155.0090127033054,-144.32633657006335,-114.02802267447967,-84.54126055523186,-57.1214895941382,-21.421671693215586,2.6009702637103365,5.898501484340349,14.457827888320516,33.090419349534216,46.69044603651242,63.43824164921599,83.31456951735643,83.22855538368907,70.28812075739472,68.77895710824784,67.92734373334922,56.60282170005624,50.79760025904292,46.34480897202592,27.72864799795911,13.441460530067104,14.867236498894506,9.920696575935914,-0.25978954822738176,3.703422020975184,8.480094050270587,3.2167180854997928,6.063395888018905,13.387055052290211,7.785224353537844,5.602714731546446,19.1659931358234,28.992889554583662,33.194838506775525,43.67661141680219,43.99430620921291,25.72999025578129,12.612120679487617,8.272288369586025,-2.1490706276221556,-7.700150766659124,-3.0920691557551385,-9.345905723485362,-22.285483724180544,-21.278406905655203,-18.208167554667945,-22.581168265490618,-17.397959304774847,-8.702697775998857,-15.456783340017981,-22.7528722814036,-19.054266920275968,-21.78526258827261,-29.24877435901237,-26.497657172634234,-27.373545884857755,-39.558602472026536,-41.91400961670206,-36.1343579705801,-43.02914454020162,-52.86944674515881,-53.44977235599684,-57.66683553039967,-61.191217610137656,-49.2801888722504,-39.85066271554889,-46.539389292298694,-51.156708741030634,-53.61963494414795,-67.60375720999083,-72.43831260437219,-48.490992818374295,-10.570394066472032,35.2330739521546,88.7608788312529,121.00959844127445,120.72172213533494,119.76227636155642,128.88206550463264,131.61214941629513,134.10735942170845,141.10207118853276,135.97407023745362,126.32924905596978,131.10829139435674,134.05505023923152,121.27667345080172,109.70348228678264,100.64543291030941,81.05017638162204,64.12326995639918,59.0171347337129,47.695535710675145,30.773742637016024,24.00832683188972,15.959423572252806,-1.086999622202117,-8.364254870727175,-7.869413883561881,-17.904356551295333,-27.17302793039149,-23.385130560488697,-20.25316604359654,-17.509439139787435,-6.071133317965632,-4.413618301299629,-21.79100061574001,-35.74916514778745,-41.2317389690408,-50.57873235224259,-54.07731242978812,-47.37148948064829,-49.03732525509859,-53.08372344194175,-39.904420817889196,-27.231120295618524,-33.461024750095646,-44.19026792618254,-58.316847992025025,-83.2833835853817,-94.56685468877369,-80.10389117611018,-67.67069870301538,-65.32257532245112,-57.67225060273556,-54.04239670557055,-60.95192643858181,-57.692777307592195,-45.12849742313254,-42.96692778539794,-42.20707933105966,-33.40498992192633,-32.87553182522872,-37.506396521103255,-28.648958656938884,-18.13584489232142,-17.94475579659675,-11.949464577413536,-0.4773710560442188,0.5255266082340826,1.2686562125959868,8.374191709030786,2.3054713613502438,-12.774846093970782,-13.619607866680866,-9.286303965808308,-11.520357715795754,-5.527110026022388,4.683099263301672,0.998517660421689,-2.9672406397037507,5.135936691934702,8.165152271341936,6.828337988226978,18.080512609004074,29.753958199795093,30.344883408393994,36.99153680622286,50.62860319642744,54.59191000651532,57.77120047173481,69.0788115831944,71.56860067477484,66.50985912013635,72.4647984588654,78.82427189899771,72.95727815384227,70.65098438625132,73.75606848024917,68.58301422674994,66.6267942472104,75.98290166668349,77.62027595439713,72.52340370840577,79.27664940577775,86.73668492739975,81.81398528814316,79.35074211179177,80.01958419461967,70.41587843899379,64.72232656942104,73.61004590561477,75.54463318765099,65.16148507672062,58.664806395660975,48.83815508143768,29.61147584333895,23.244628542942312,32.46509740217077,36.14035666745394,37.9679029660522,45.615730724559086,42.09256690313919,29.005065262778068,28.47327979082963,33.461539235740474,30.98034345193116,34.92401046025268,43.94597617438083,40.04706396316815,35.08248093309554,41.811953725140455,42.053815841904814,33.77791005657728,35.395758549279805,38.83199017112188,34.53258087245021,39.660686712958665,52.698079698049824,53.268655391342726,49.78537026435037,53.717632509091324,48.727605434143335,33.648806138875145,26.38190915467743,18.617337870033012,0.6049995491160498,-8.310695566850836,-4.920686812320303,-7.343206037738166,-9.319676674182185,-3.513211091757964,-8.83772954078096,-24.636081241050572,-29.086408552096625,-29.83992422512099,-39.41245684652379,-40.25774994107891,-29.486815010717706,-25.657462943187056,-21.39454447532149,-8.30321510697692,-7.48838262575444,-20.069149682022328,-22.65055426391158,-20.947074855707655,-27.705401309556905,-27.84391801205228,-20.88665193860443,-24.54820763226636,-27.688382413589583,-18.047477260482054,-15.29656346347339,-23.716092562120295,-25.67492283075253,-28.763719502432938,-41.47054493631974,-43.17850011023156,-31.905712010062448,-28.755760789868816,-27.43166323859569,-17.653231576682465,-16.827347108660938,-24.95940698357813,-22.0289501186488,-17.84295384252555,-26.44716141338312,-31.412418938997387,-29.700634841474287,-37.721034894271114,-45.68903796763898,-42.235484291079516,-44.94066898864566,-55.173263127312,-54.25152448081123,-51.58939684053033,-59.90357348827015,-61.975800997861285,-54.79836891058493,-55.45806284018505,-54.73019580478101,-41.703885680846554,-35.6606597944403,-40.43498816954292,-37.46437381893121,-33.79713030294062,-41.4656911920176,-44.171936910826034,-38.41029493246649,-41.29381002275273,-44.072794082929086,-33.76166974443208,-28.877606971685612,-35.92747981713673,-37.19062019814834,-37.22649644443182,-44.715610385518914,-42.41141203638131,-30.975899165176806,-32.4845063861772,-38.30356312040172,-31.34717588611344,-24.459589931010004,-21.072650665680314,-6.973411840884481,6.045267687877335,4.358401448013601,5.364083025291935,13.065004078221621,10.104193819750732,5.635297346151392,13.639971651379808,17.023717758703675,9.99652956458471,8.420847893347363,4.375182834535614,-12.006780211011476,-19.569034031908632,-11.365924768870801,-5.802866646337463,0.9481521212297075,17.264170492618028,23.45040566271855,15.732558224368425,15.652802773334265,18.82308485800292,13.287238456703545,15.405025484187632,27.20901423636665,28.12574100319286,25.001231063474044,31.1761309767747,29.98959406662872,17.72234924276846,13.842777486723843,12.404651128554844,1.988805326946724,0.9413736627071956,12.78205690170504,15.904602461983206,13.696616883873684,17.38606135022364,13.457800005362168,3.255975326081849,6.814246576684531,14.84324801785677,11.148200233456283,8.809703012297367,10.799146813093593,2.1749392233031397,-5.947577481402691,0.12983343831703476,2.9928779838832873,-2.267220417623936,1.2437784435551107,4.805625244062047,-5.238189823634272,-11.230384896500752,-6.739803847997216,-8.854239616721634,-10.80762621180519,-0.822085538120314,2.647863787376186,-5.403332903528106,-5.312842731145793,-1.8478568057983147,-7.030413840610456,-5.811601726740598,3.8227577068259637,1.7616529406246104,-6.458412239567489,-6.424905349087323,-10.133688738803315,-18.566435235863498,-14.095892567775875,-7.349594080001538,-15.013477989706306,-21.12598925233111,-18.59944709881296,-22.507410629372238,-25.34377549573858,-16.393107906396704,-14.580193852769275,-24.08260878904327,-24.282025625584957,-20.061213745977064,-24.108401940283805,-20.83762233658745,-8.007474344490566,-6.304680439666603,-8.429888761974457,0.8941754347288873,4.925289929498862,-2.4975459767709363,-3.6344112814905154,-5.007694888529153,-17.760487671215454,-21.711152451603397,-11.188885022583767,-7.525945462210764,-6.480458385040625,5.530675562154401,12.03825749950116,6.766156804416776,7.356543201892548,8.675249247261151,2.0032820291493287,8.90983848465564,32.045245866371495,42.64947829810626,38.97472807570374,36.46301552880642,28.936241137135667,21.448927856882655,35.03576795915733,56.894484927606456,64.74944059267548,74.03909536702861,95.90233948696927,114.62748219906267,133.0122380924264,158.73246878957247,170.01036995743405,159.83794671184208,150.6190969180282,141.95447958009126,122.74945862984312,108.91957568424301,104.50725780404612,89.05526165437956,67.25801936663719,52.718891631020114,30.577863783494053,0.14299071314129286,-15.33945759218413,-22.31964811162121,-37.99896581472196,-50.519350348865224,-58.00367435885765,-77.16238481636027,-96.16905492177607,-97.6051438958228,-99.01772900127077,-109.3358994950209,-110.38998473130111,-106.214476030718,-110.94877363904382,-110.5038494517165,-100.79725421837631,-101.50413035205663,-107.17909332656916,-101.80134367365034,-98.75822551781133,-104.24252118320206,-101.19787602118674,-94.99040088618845,-99.98861304499125,-100.82336554655068,-89.6217921716212,-83.41099676945703,-78.59668338071677,-63.91323805708929,-56.89819281586882,-63.13029660465016,-60.673789609768534,-51.83273904138393,-52.07975377038504,-48.77372511042839,-35.99223375746166,-30.51109926667391,-26.74744550848591,-12.021574357295911,-4.636073566694167,-12.424452826083014,-14.80765254407298,-12.057576522491415,-15.26170713809163,-10.165860598096515,5.805911600182108,11.191253551514063,9.86725873326876,16.738342742985573,17.74282836611915,8.502137999683391,9.699177859897846,17.545250422608106,16.397521015293027,18.197519573855754,27.034177388578264,24.828134034099026,18.166511813448235,24.02227258347851,28.685707677401,25.276715688740552,31.564560781340003,42.2231503395408,41.94612761715011,43.89305990739119,51.46586660885433,46.2684107803171,37.28859921243786,42.93675293376557,48.90943596708826,46.86338671605633,51.7260113953751,55.85411298210647,44.449275943541,34.44087865667194,35.23406278384965,31.726921611421254,30.3020563315147,44.334195938847,54.5756428102154,49.426737884514566,46.09826565007085,43.10835496661961,30.06680593438618,24.783888048727118,33.67640042453886,35.97853167100383,34.03756441236296,41.08106201570511,41.46774399033827,29.418236670992876,26.245682436726206,29.47125502597288,22.924872249594294,19.50082207310367,26.01991255758343,24.564342673985607,19.79008616313054,26.240930122252507,27.324714456845633,15.456362432688284,12.213650840475744,16.97170790155061,14.66234616771077,17.205743034219648,29.235151112088072,30.75356072222788,25.16911553065524,28.430743283129384,28.0696220228287,18.760489793838325,19.930389098736192,27.404254156180535,22.99403888323758,17.22916519000132,17.60153710699855,8.735100028677056,-3.5827799275396104,-2.946369849523876,-2.6026639103642024,-9.36302735856259,-4.883282952719851,5.7395607138522315,4.4629893207573845,2.8167366747521356,7.051222591799011,0.2199670456839229,-9.816955241363106,-3.9449577532194446,3.77960051609783,2.8545789263290278,7.111115080672498,10.002657504873333,-0.7864477177786231,-4.412676149489482,9.527850709618571,18.51760735865038,18.296490949021244,19.44117505284234,10.286011391939265,-10.417769979801204,-19.563512294879956,-18.40695111820883,-22.64032358011161,-20.536326352458282,-6.569160134915332,-1.5089339422162826,-4.129362917477585,1.2924356955343694,2.7452623182118585,-5.0224644261895035,-3.1148403811326717,2.839081992082019,-3.5780270107858603,-7.490037950715815,-1.3782491341795047,-4.538388513758971,-13.622691876802655,-11.515476600998966,-10.146402529830986,-16.621243226654926,-13.33621968218259,-5.7716250528619035,-11.556881352244517,-16.34164068558371,-10.320461266574085,-10.764816978888831,-14.757869942598775,-7.585071038135401,-3.7339021698243915,-11.712056769866473,-14.05122237049613,-13.86594418893632,-24.04308259949003,-26.908337639715494,-13.879133328973769,-7.055653885948525,-8.241901517377684,-4.3516530382095,-7.453069343533247,-20.86831378284962,-22.732835309929477,-15.722106252688935,-17.12824218422782,-15.690413296981935,-5.966933136207236,-7.877671419633421,-17.680408076596606,-16.01021810231438,-12.34833184303655,-14.811819299957993,-9.317925778034313,-2.4470700105581127,-10.232069987413587,-16.507997940369368,-11.634823100962574,-16.011322888268552,-27.432602153836832,-25.672325002760168,-19.735151512328137,-18.173733460377726,-7.085427106298123,5.061033798694538,-0.4966804316960247,-7.168637676640451,-1.9301057483179909,-3.2320840693186006,-11.057774776254297,-9.526418390836517,-10.415662426984861,-21.29807844907229,-23.479039973257347,-19.766821471234657,-27.28917397489008,-32.670633669954015,-25.830802439340328,-24.98237997503356,-28.709448781269415,-20.49246883028281,-13.556170127483608,-18.296307069636857,-16.774888980300275,-10.053475802187414,-13.551847638833078,-14.15344283113872,-4.698033705876733,-5.543192846045792,-13.649791512392131,-9.626337857246508,-4.01797301493913,-6.181453654588552,-1.7471097232299102,3.8371734039204926,-4.631858674114593,-10.933687809462151,-5.42652863543861,-8.217785420621311,-17.86983796320542,-15.571760931978936,-10.733966617615305,-11.759563566760049,-3.867858792037843,6.168873012334465,-0.5517350751007486,-8.412944531013292,-2.42904545052846,1.31562295242132,1.728192709539228,11.39992030165405,15.142331977808004,4.096591399952233,0.012686794725028427,4.385587580359408,0.17331631844755435,-2.5056803046358467,5.247326671688616,6.494748052502504,2.9079866593146146,9.889969331166906,12.677841720560233,0.3650354530935678,-6.059541997531931,-2.9618322196832625,-5.03627357367232,-1.8757923030816623,12.460310172103487,16.463994213954866,10.327987465787093,12.224418817700776,11.831475884423389,1.8028041094748524,2.3061015284193562,10.817169283549656,7.489409392571788,3.399207482385779,8.485120610267755,6.114181863148438,-1.008205244715037,2.6682673174829525,2.6220845131290123,-11.459230930932074,-19.511795827103782,-18.746477621197922,-22.99583775327498,-19.94717487682062,-1.9210847683751604,9.442414516030812,11.22737619893115,18.001516245418195,19.073925079278247,8.168924189673545,6.121228988185915,13.018073495393795,10.677541347821023,8.089594806070304,13.592725385736296,10.26635377305604,1.1921576795163533,4.709596300177383,8.616936598280397,1.526318924486462,0.4862665397027254,4.972683836286025,-0.709312359459151,-3.0274118536757473,8.470718562983187,13.196498061891106,8.599039289897696,11.075586049006896,10.08164293591176,-2.6045134653356943,-6.330196941834796,-0.1914036944203108,-1.7853365105018426,-0.47435384098841726,12.501540166020716,16.121215250712012,7.6891289719732505,4.507726280360269,-0.9516953766653902,-14.044989003801733,-13.433722786150636,-0.05833695974255804,4.015970614001824,4.884960860311513,10.029856743174246,2.980219053508769,-9.543490122649446,-4.8110779988854135,4.739963456743125,2.962482571843688,2.178004124266903,1.991191085475089,-7.552453468511646,-8.337130746751487,8.241961496864299,16.885826729814163,12.060802118751948,11.71904477400297,11.646462020514972,6.96358088762491,13.399366770819922,25.261156739697196,23.62179413248514,22.679902383434452,36.346006022722776,47.36610222684702,53.88486796007367,71.57380753044511,89.92713736599036,99.06990019064901,114.67508564576967,133.30192378129868,135.8504518569047,133.61162971909545,137.87162574098588,129.02028962022783,103.81490172193871,81.67363743408613,59.46612973350267,33.015371884504326,20.530082198642564,17.413933266801294,1.2859644697757782,-17.899205196959546,-26.8668070302351,-40.25615490848204,-57.51553703129809,-63.256450511567635,-69.64340541549949,-86.50436698748628,-95.07926682492466,-94.5015274062834,-102.10934924483047,-108.08645852056213,-103.11210622826368,-106.7934328977902,-119.32214269399662,-119.62007644727993,-116.1753448533452,-120.55121468136075,-116.06008504641703,-104.53223747072832,-105.8419660415918,-108.2552790821449,-97.73709460651779,-91.0235740148177,-90.36905146712813,-79.92330466732722,-71.8747426533836,-79.19630397838372,-82.1833839500643,-74.44796726762219,-70.78478027446205,-62.037398407115234,-40.32914535729069,-28.66117781094066,-32.067769159842584,-30.98970765551143,-29.68919532301883,-35.74511366840541,-31.838809313719878,-18.346825751335018,-14.686713405162797,-12.48000483446694,-0.38377379751520113,3.8619347805810627,-3.073376137893902,-3.4518267105214084,-3.199311264471197,-9.662611137909304,-3.946623942187428,13.556067822102898,20.501622254369696,21.985628275228365,28.529518703972965,25.905588014332853,16.89755910389565,21.735704658240284,30.065478372219392,27.51171228912715,29.911972916811177,39.36350582659206,39.064438637402404,39.544783040431234,52.44816710575744,58.91423859512228,55.609252329110326,58.86626043798968,57.876387867559444,42.068390942217135,33.110316444149525,37.33577116441812,38.010113571573775,40.899682430872744,52.726167558792184,53.76968133188401,43.12912647167852,42.13948889357642,44.31115827752048,38.028364903119375,39.838935705217054,50.43003610806705,49.80641774645505,45.62209101668944,49.350050784108696,44.66524281796863,31.762524894201707,30.584014427332086,33.143313425146765,28.02371715703928,31.179404563801747,42.59501392180335,42.977189526462304,40.141271029369555,45.894832821474324,44.822334871738406,35.466523697462854,34.16119837708078,30.368371368138988,12.941641461119277,2.758365062168729,5.866475072294119,4.964817478388168,7.386846151236003,22.54752599834199,29.98516808790742,25.75799020711931,28.18073411721312,28.299798882106273,14.517762088081593,7.260168487795022,12.96393065652015,14.28678760228377,16.98268022115387,29.542808288820428,31.995371957294076,20.369994829939092,15.212336889784254,13.207050942300565,4.78589660813097,5.6836750819717174,15.80448458756928,13.655562429229228,5.769564930905445,6.746055342728361,2.9631933541289066,-7.952009602882103,-7.811542427427353,-3.483140808743375,-7.214406315498113,-3.527648759806035,8.85747786317914,9.929226435048427,7.237313549192654,14.39527787373651,15.082775619012137,5.526556118948285,3.780799621391127,3.2469710431631964,-6.570604688305477,-8.493027827896517,-0.8395524290792884,-3.057011641446435,-7.653448371130231,-1.849625694533076,-1.6798860857529896,-10.294237136740401,-9.22833172214009,-5.27177165772692,-11.5646704753971,-13.472392619533181,-7.976532495072578,-11.598006598835656,-15.384726158219333,-5.992449540630791,0.11155214548617887,-2.371895118633077,2.39440963255306,6.172793414039251,-3.2596316124033113,-8.500425934029735,-4.813455246601343,-8.728330032949776,-11.598750579309133,-1.6472292568127371,3.2734028238405455,-0.38066074261370675,4.467494421412874,7.867410013745007,-2.804835548478339,-8.486698846514937,-4.586958957383005,-10.16104614435957,-18.315620535120306,-16.606825022140438,-21.06728462635666,-32.442405958612596,-30.279838191015706,-24.080947613783078,-29.243855179935636,-28.27563603227903,-15.579944396303993,-9.791099407777269,-6.249315591724647,4.488190845873307,4.566844520041036,-7.7742983609117875,-10.943688997494634,-10.543750409929414,-20.030157779995303,-23.812718191527555,-17.403792081965705,-18.080577641557856,-19.648019566089424,-11.455489295301547,-11.158392306273594,-22.289163811683274,-24.502964482693333,-22.34214497247609,-28.689633983308074,-29.729976410117878,-23.420644994898694,-27.63940264331992,-32.828757228155894,-23.22713733065718,-15.60600856478606,-17.23840295317124,-12.024933246663359,-6.790256508810059,-12.590126416471108,-11.710119673616978,-1.8165102740912276,-4.1657833350062194,-12.782968002185857,-12.668142303490303,-16.268920185547756,-25.008112125313758,-20.732536211836724,-12.740456989993355,-17.342735256232103,-19.96023272814101,-15.769897252498094,-21.383706544105046,-28.225469603377075,-22.06169726145934,-18.831183122615876,-23.34653696842783,-18.21346134514205,-10.68693585103015,-14.545446824664063,-13.875641557720545,-3.2983399302011476,-1.2669347404635056,-3.9263482125087332,0.3582864865703641,-2.187649881219431,-12.428862753756643,-9.966985124529373,-1.8708627061670402,-5.1912652256288565,-7.403540837869673,-3.1864740084388865,-7.403533158281119,-10.973746402782265,-0.9091875834328906,3.7438659855208023,-4.075189288016993,-5.771228011818998,-5.1566451572563,-12.345697562213799,-10.343452110792555,2.488837784052776,2.821731012100968,-5.513667218571909,-6.55720121867324,-10.506907381918605,-17.683915357566384,-9.846250077907163,2.7844815853729767,1.9817789018575787,1.1094542783160561,6.2974435098576365,2.299541306586475,-3.487285358634372,1.964268228779713,2.8592359150209483,-5.452567568210583,-4.9725299951028035,-1.501496284675203,-8.066411293684517,-9.036829055544414,1.0646252077138088,3.8073164353667126,2.8774502827860395,9.63149234465265,7.922893673420749,-4.876588159334555,-5.805544276204456,1.1966166972053323,-0.30732686238410345,2.0036923250828265,12.002048601404152,10.54502972761566,3.0870454226537634,4.856701511503527,2.803628440572608,-6.169183555942347,-2.2203021622956935,8.160849011363284,6.644040180621678,5.527243989112486,12.318677149243097,11.533334703888016,10.075882843231474,22.93381430322507,32.717791446428095,29.76871324811122,30.907397537387396,30.71727267551301,15.56850555827204,4.352508403447615,7.058849998549818,5.246693008630226,1.6886244953776246,9.904720985154503,14.82109201334345,9.651469277370868,12.109361450326357,16.450550469855795,6.950443123607014,-1.1794313561530594,0.4241184365092221,-4.323352451786539,-8.877643470897468,1.5886092466437507,9.619375973491614,4.697383212320061,2.3616135798727553,-1.5650241313825726,-16.949024552982106,-22.426733580657174,-9.13831944331221,0.8784130164955606,6.246585630238372,17.192636480980152,18.439190504834784,6.868089340107364,5.5550500811650325,12.381222566658336,10.703719495072512,12.005334146887398,21.855401127627424,22.259240527859934,17.897623532066703,23.13004308443695,21.809869028781847,6.332463988917864,-2.2469512753433056,-3.597141644596438,-10.946554883884456,-12.203234586719486,-4.631634470430719,-8.238910639655787,-14.993067754291584,-5.421850354682027,4.674904443454821,3.1758907653121233,4.652642122737053,5.466419862980992,-4.11110518830818,-4.238787235406274,10.581545491675838,15.258074476950195,10.897678261285726,15.065713803691715,16.252121106592718,8.478751844970907,9.535742060522402,14.95441960739746,11.27811143322553,15.054738854542853,32.82086796008434,40.87416704976219,37.47892407137206,39.090153922952915,38.61260253514756,35.9208031214513,52.88804226410194,83.55385964909627,105.59817567565939,125.83202839858795,147.9569784441421,153.4690839296125,147.9070138731209,150.0592636333745,148.41319791171367,134.71099967142652,125.11986732384216,115.87315659213718,93.86288812683232,74.78446155717164,65.61211042276085,47.829553915168674,25.162319740419434,12.595954973932106,-2.255090101253761,-25.41106309572627,-40.42662446983904,-51.27116111872821,-69.99491043296472,-80.9248771845404,-79.19737997872784,-87.39396018728797,-104.62401353147638,-114.48875135854728,-126.84918597544572,-145.5661252120079,-151.43080397618166,-148.43902226199498,-152.1454023317778,-149.1459097974112,-134.08375673551754,-129.01673402617052,-133.67851905106232,-132.47161577727815,-136.38571443471182,-149.43540935467223,-149.55648205846805,-138.5295381803241,-133.34309222766268,-122.68214291526854,-102.37112265917426,-94.12386984839307,-94.49913905651961,-85.09438554294913,-78.84229841607375,-84.96898580636602,-84.28956430105102,-76.94424762724674,-77.10458913487383,-71.6084704158219,-54.326287724316074,-45.881637865683224,-44.085940801765794,-32.50861047008236,-24.27885134090664,-27.489200305835357,-23.247837402952367,-12.806754875337113,-11.619396625429115,-9.430738788608464,-1.3368354325736562,-4.336764307274549,-10.60110268408947,-0.5644111810645684,10.734199121889114,10.162228996862133,12.561944137939316,15.830025568807008,8.412597559222581,7.643982791054398,21.839607143351493,29.907050830245254,31.320876202426643,39.45418154861968,41.2467251635929,32.5698151928176,35.584348363023395,47.42059490953543,48.272900985376545,46.64161535828549,49.887860513823256,44.03678503041138,36.58801806998904,44.975862524232475,53.7959813645158,51.10047288234726,53.3405621849643,58.68792174912801,52.49524288962465,49.03842902874513,57.87363378966981,61.07836907908046,59.93373864310274,68.52350769290489,72.18235246424825,61.60069607072303,54.90453944459868,52.107128593724106,41.8271488714165,39.87045242215541,53.80742500485745,61.108525779061566,57.819964715776706,57.29616843627913,50.69896208604461,35.894452911984544,34.896937955840656,45.662934581580984,48.697356246550626,52.52765708564076,64.02321724087187,64.70552080069521,56.03977477016207,55.4143106162328,53.40407889742233,43.506247233460414,44.07400363806699,51.92824607030029,48.04752543223301,41.67233294101694,41.219102073859,32.81631661009212,22.718287788244815,27.715973551561955,33.39173680445318,27.46966949069047,24.378881011103235,23.18936955494344,12.798080230474916,9.393966493848211,21.720246397186656,27.95706673419151,24.990744553874897,27.971180766184755,26.709426643823456,14.287864480166698,10.492130930846901,14.904544451437019,10.735374609640054,9.04030143113946,18.300796407252037,19.759020429813987,13.240443973293537,15.513780973643863,17.187611336668756,9.509801678887339,8.273659114344326,11.156892451976672,2.109019117507386,-5.721267098931732,-0.855188520905378,0.5712971376164989,-0.8305411117498254,7.901342481043898,10.61734379585453,-3.512468827063106,-14.378117790027089,-17.841877730165297,-24.463126212323868,-21.068278337590236,-3.7136948416639832,2.4979625764683324,-4.460967675235336,-6.07799780551178,-9.963445523371817,-21.630595319589993,-21.11849083461051,-9.998431405851633,-6.898886791317077,-2.9459078873344975,7.72254304449063,4.87776710833502,-9.45366880974011,-13.96223244092122,-15.194128124870776,-22.371389703444407,-21.930581897260595,-17.422146715734545,-24.497703794483602,-29.36976770477314,-20.482676454775383,-15.846987506499355,-18.20646332220055,-14.103218457348817,-13.848860350165141,-23.559738068384128,-23.69478053999555,-15.537539778563563,-17.019431874911135,-16.74382612477281,-5.212684031285363,-1.9670593335185513,-7.643421695909193,-6.626110515804372,-10.283852962218674,-23.712893952885324,-24.573038942826155,-14.89122019188855,-15.81000508078641,-19.257808281077196,-15.762841720371584,-19.58375549785887,-26.682905280276504,-20.702302824271037,-15.855244436728032,-24.16413987250001,-27.812059579899497,-25.446792991683953,-31.413914123035692,-32.67255021213331,-20.266277367249312,-14.917587579937292,-18.448298671881602,-14.54497803033577,-12.832085661697473,-20.612512975237955,-20.34519570978818,-15.954820173711237,-25.697577846658188,-34.8404503576477,-28.709005716170722,-23.17096977662858,-20.6980950469721,-10.48678733489578,-7.374956312753492,-19.255301940175666,-23.91182875039696,-19.074250945223326,-21.953623372847428,-23.45410857925637,-15.045276327135365,-14.897732936924283,-22.736472630548953,-20.28974106289551,-16.617372391752916,-20.92220840564001,-16.11431309036088,-4.8233035155326025,-7.073502761695307,-12.526297286966706,-8.925449109762297,-10.884944314826,-16.779714770615435,-11.3979968553415,-8.464834000037545,-18.910198363658633,-23.602326795997797,-19.961199833858508,-22.45660277651577,-19.79879201338691,-4.942755713651956,0.1930373773551054,-6.373045872751384,-6.577913027952071,-7.417217317954366,-15.200250093909986,-11.526061674385964,1.5167767606643796,3.2299908868798237,1.5892106881573713,6.671517520619199,1.2404664017084923,-13.977424185689605,-18.0693329452079,-16.827355331393246,-19.655237956574002,-12.588446178241988,-0.5676394400016993,-5.055125729202888,-15.13033811011396,-14.517455623378492,-15.657794968320099,-18.60305619793302,-9.385510246266957,-1.6287778973654938,-6.391406409711665,-5.381535457781229,2.481919616620388,0.23927316332058135,-2.234901185371472,5.651025552167463,7.6121666545987505,3.6159367525571504,9.717954200957074,14.265733847176648,6.3029792091980275,3.7655728263882837,7.810133645534422,0.9354668804174877,-7.463834386077283,-5.609383234595365,-7.101173160175833,-10.212401474215254,0.16559137079326725,9.794436203673776,5.52728078701603,4.460239875039181,9.163578456532548,5.176689431068692,2.653162281071282,10.297100026431846,10.227089974040132,2.2212855199676973,4.242689548045738,7.186152677169578,1.0573885101401066,3.835424953577914,15.705329664947671,16.329584998249736,12.626383811103029,15.612342393360858,11.038873570668997,1.3864803952557745,5.700480743591271,12.969999302287324,9.1665461092221,8.752027187882446,12.000774660317896,3.429148087572216,-3.630561861281863,4.388682824438556,9.470573746186744,6.917458613908416,10.787296807210021,11.000135835057527,-0.559535221943019,-2.9224779008657773,6.177748095335153,6.862502080524667,6.206910747859567,15.600833290907392,18.876153596277774,14.013932802668993,17.745302116782646,20.945512412580733,12.784715602571886,10.852230968962923,16.658835436500887,11.43677197114596,4.456499427729106,9.539768982769349,10.826593295293327,5.484229272780615,10.292087071178273,15.108253209045797,7.452962978693558,5.322420985965659,11.863211228502871,9.612886884336133,7.6350296324947085,17.46384482415478,20.66253049865752,12.739621817067738,11.191598399125493,10.496759429313245,2.64016187777296,5.756739720388472,19.805558774953745,22.568423943108,19.81193019231949,23.616850579584295,19.18243703683104,7.331474813006004,8.39910885824225,13.539099876768525,9.126595273156548,10.640822517417543,18.28044346850465,12.357204705778326,3.2320829795678305,6.730430482814093,7.746795459157828,3.2067554027815364,9.581535278364612,16.230351314934204,9.13691061134653,5.318674626980956,9.324570372970301,5.072894219272081,1.7035657200232608,10.869776813247395,13.83824121749996,5.261644598180822,2.7073844196812837,0.9493940963380603,-9.629477800155207,-12.522994767497368,-6.131132249428385,-8.939818440168322,-12.284159679327999,-3.0155523692145403,2.553898625191082,0.6149080033548868,7.0695645613251905,12.768716516510693,6.278375225664771,5.324932517472238,13.015023661751776,12.120708387363326,11.532931233939394,21.898280889673924,24.94963934301542,19.61961846061386,27.1011875921481,42.0520322519201,53.17786139217654,73.79563114639593,102.08554208030822,118.67881004210147,131.3191806809585,150.55609346957735,157.16718170919125,145.63392120837327,135.1167028462804,123.94832475701185,104.98844162818791,93.61342889279757,87.72525886095889,66.6231164166112,40.475111424992704,26.989866060037162,13.842712086723942,-3.7850125289830387,-13.876036896107573,-27.553147354150944,-55.916464343077266,-78.32376267675934,-87.14249306705457,-99.53755995897274,-111.07670725393523,-112.77505345617303,-122.05839321648979,-141.37050280587573,-151.2285316732683,-156.60173352164003,-167.2764031178134,-166.35774615531142,-152.4972010847878,-147.71864470670155,-148.21758227563873,-141.34636575670538,-139.4728001776857,-141.38625353041036,-128.28373855543867,-112.8645504912536,-114.20619660053949,-117.43520011592574,-115.60551903624662,-120.5845041625976,-119.33068411103245,-99.58202533534782,-83.40471430212462,-80.05788595777513,-74.27883835309984,-71.17346582395038,-77.00757604646378,-71.74327382812486,-54.16170029483429,-45.92950433389094,-41.9256846842426,-30.766685119231806,-26.967233893905043,-31.249496627389004,-24.994754029882625,-15.301443027115978,-14.720511897907006,-8.003544995173929,7.151707619560925,10.874036845934826,9.162985609873118,15.652999461019414,15.404285822410351,5.482363232734536,5.50570764529778,9.779620465654235,5.764223665775013,9.471359456020398,24.505409102599067,31.919339831795796,36.94466784845072,50.3977631455972,55.305149904151456,48.33540699478963,48.447141902456785,50.17846083420014,42.93931461112709,43.417887275467756,54.04959779246846,55.172385167758215,52.29738245338936,57.987940413010364,58.174069894089875,50.78272546194821,53.563698888175196,57.60077830552814,48.30060535587713,43.550448397419096,51.27524316752164,54.319285781462455,56.9349273933001,67.89075042192056,67.8361945332396,54.13847050253716,50.59046510006693,54.069151235894154,49.99055548043137,50.96519670533931,59.30562437773208,57.08114560233907,53.14798849815617,61.73727338754545,64.31139294287249,54.034621036979715,49.94829359888339,48.16983672824712,38.60563071363795,38.226250222313894,48.19985922172846,45.97075854480884,36.43098982454019,34.90726660978764,30.553891884130692,23.142554697907652,30.30333477481861,40.687375628222036,35.78236362814126,30.14758312058086,32.24346170368014,28.97932168734188,27.937424830463975,39.19086495658732,42.60823613958085,32.12558030609232,27.828625277893764,26.526050390422913,17.70923485644456,17.622286564385945,28.42117755563057,29.62100473577328,26.67947028408113,32.16934977596221,30.52682276822174,18.859263336219215,16.74526876158179,18.475721588684213,11.455200380179754,11.545784265497833,20.956624481103866,18.478058638984322,10.064549837886625,10.43259997132985,6.066104183308637,-4.354448608119422,-1.5912773488425909,5.366441341962806,-0.08380827996373386,-3.2663651830830838,2.176139533869948,0.6601905594184765,-0.7575296263183613,9.371499473817732,11.588620365303674,-0.39981663926429345,-5.285214189090553,-4.759192008650878,-10.57869923719423,-9.465755989516577,-0.5276655974665188,-3.2108594926235146,-10.561482512432441,-8.285732672923478,-10.21666201129644,-19.581663821181913,-19.0530866425252,-15.958752961336424,-23.67153137978819,-26.50575655502118,-19.532372197405046,-19.611997368803618,-20.1494534687439,-10.37159811967009,-8.831501639373723,-19.916784390170143,-22.967911059066285,-21.254483386690424,-26.513124385639536,-24.115458717418583,-11.87868679507266,-11.462543614006943,-18.88174766656528,-18.41778723827796,-22.451162114432535,-34.11971783318667,-32.92311763601637,-24.30683288397283,-25.23555076507914,-23.2996863204247,-14.482055565434504,-17.607948629813293,-25.848809276149037,-22.347103693145165,-20.646838945507888,-26.718009230807354,-23.192646892344357,-16.564088206039425,-21.77045994496475,-22.70130802201594,-13.136270300308155,-12.21153304982137,-14.887927469986332,-8.503843043757513,-10.538613959480882,-24.684831727284585,-26.909371920459748,-19.776442064821136,-20.350124176991578,-18.545413338014797,-12.190033252204021,-19.2385501016847,-29.350343281746405,-22.66323481918098,-14.179948810705177,-14.780351117860395,-10.06990065270779,-5.270813783625744,-13.07270151128673,-16.728840969925113,-9.418564509528743,-10.10602096737967,-14.677294468278438,-8.46378250321191,-4.9916451496353655,-9.387560071529016,-4.814984344423559,0.8313834798998525,-8.359904363976877,-16.435966515583946,-14.553258176805919,-18.072327623968423,-20.597206242880816,-9.076517127384795,-2.307957452915491,-9.53268345565398,-12.110789951922467,-11.66530765561652,-18.635743612821518,-16.660547114297152,-2.3160845616986405,1.4013140438983136,-3.484637456566608,-1.7821644844107198,-5.9285982255626335,-20.242881545811983,-24.67568033281731,-21.566619856370266,-23.8337408299744,-18.196760078184568,-3.07729991679437,-1.3458839543047114,-8.153563347731158,-5.165272947326074,-4.178048597619725,-10.194942434288363,-5.735770633497788,2.0045840692173917,-2.4782430207379207,-3.8186056758415727,4.066404115731467,1.7740784902780207,-5.813392537509746,-2.1071904972996585,-0.6893775258807164,-8.519049500479927,-7.948550875055288,-3.732171656371604,-10.46826909483601,-13.228326532699423,-5.471000182051108,-6.728569144393767,-13.570316224685195,-9.743870513940408,-7.568807907598121,-13.37555247819101,-9.542430575896674,-1.1483777933659938,-4.386742217716756,-5.544416605786854,2.1194136531666015,-0.4135494711986456,-8.17790938555447,-2.4782530942044745,5.146967407060405,6.288751857310064,14.76983097945447,22.56577790994575,13.949538222140156,6.284847780721022,10.634316361103735,10.441038807836541,8.957198858122048,18.809267072004822,22.94754610453086,13.087676571327467,7.5091464266858035,4.049605217438295,-7.371739473364535,-8.80227421259484,4.624660775872462,9.144263617698359,4.178330536714288,3.9969375556047915,-1.4153422974216283,-13.14736077828412,-10.124459485192656,1.6241367338984762,2.6424493522173442,4.309327415671727,13.09168330102818,11.085336432090022,3.118979594232608,5.8532289770970305,7.441220296042438,2.1515752794489904,7.367345961508192,17.871243684802533,17.144150052560036,16.837814435998265,22.490370838000608,16.83248388292085,5.666507640294235,6.274642689484523,7.440196384070655,3.0232468158306025,8.338369202755409,16.057738829439405,10.357571362430884,7.154298949002958,15.664731430248825,17.181979323146432,12.549035553756717,14.836436908532509,11.542701336308738,-0.5389766315337274,-0.07876699159825962,9.582471531196836,10.341158840459329,11.336402824537705,17.362507675250896,11.688906062407337,0.6607104319354575,2.1472405088640443,4.663712378331713,0.9957385143466602,6.899612403169267,17.092277180771397,16.975211059262627,21.323242524658035,37.55881487666244,47.32827128174791,54.02579025568735,73.79663229194747,94.24847601014389,107.28859794848131,127.88441115553782,148.24128178972921,148.8767937236088,141.98559446463963,138.78091390676445,128.2004477016772,118.00978536454679,121.98455645573267,119.6168767398532,95.21361189641549,66.08158010867525,39.375452390099575,12.022780357606637,-0.23319689334529814,1.4356378629645632,-11.999330118026135,-40.78815092726101,-62.47922563030899,-80.28052651690699,-98.13758661748972,-102.1370379148264,-102.11353881092474,-116.9894525942207,-130.75120962635003,-131.20798628791175,-136.24258636810396,-144.97501565810592,-142.0682173190901,-140.99181019410702,-149.7385514592285,-147.85718767137627,-137.5210295586077,-137.35722887087917,-135.5619160908376,-123.69699494508085,-120.47766569947298,-122.7774341122148,-113.588510435156,-106.83906749257304,-111.2373386215107,-107.30719980184067,-96.98062150384013,-96.78356128742341,-94.79215497320924,-83.14713430642021,-78.87114040782046,-78.5576618073452,-66.02647857175941,-54.263554534365554,-53.17854445911265,-45.8756124102501,-32.93011937642892,-29.000107046962142,-23.302591308156117,-8.972376110216114,-2.827794837978275,-1.368191261454156,11.060310565736586,20.66239173117531,17.34535591465208,17.17609908451664,18.88195889936723,11.891799105029133,12.926833891018875,28.61472957187957,36.74224234880471,36.105100194863056,40.573755647832314,38.35183483917155,25.25584007512764,23.71803525204995,32.98931973722223,35.97230583160396,43.04448782279494,59.162340971868076,63.03110714363399,56.89789922737692,59.86080024905861,61.28428962113034,52.56682848329942,51.879024834193565,57.532346549001005,53.40618302726101,51.87883968903827,60.64152686625331,60.63585456548014,54.19231576252412,58.89189391192643,62.81274749951753,55.67589193205907,54.070880356340616,57.16335261649085,50.50508089022644,46.695201823570244,53.62713627772241,52.66739704162122,45.835207702796616,50.722893988547575,55.400370986848195,48.46108433488892,45.6583652422409,46.84288980535756,39.23348816081853,36.926862290045975,47.96127257771187,51.685760505170826,46.147373183485236,46.26661710439922,42.78852657853279,30.126136848428775,27.78527299391038,35.81648720242973,37.66049853156807,41.608404915586895,52.53957175646926,50.358519740589614,36.85260112248802,32.28302441058034,29.8073245177366,22.570949132204316,26.687761391302818,36.46829130321328,31.94225717746191,25.342177651764786,27.847028617272322,22.74037789917695,13.425802946783747,18.23348985542041,23.97896719169017,19.411708695547716,21.548663833253404,27.725962120479693,20.22964822939987,12.305824359888607,15.508902278825927,12.808723461916575,6.238730371148158,13.092280089452428,19.76725517797719,13.026320427415316,8.05287026257287,5.465820959911548,-5.8100155989687625,-9.954753214273643,1.7143005373609954,7.0349293497499845,1.580622226281517,-0.8034322194739136,-7.765476474952854,-20.61863500918188,-18.172149542303142,-5.07842875857448,-2.8898639648818802,-3.5721490623517806,0.9530523411301202,-4.128433424808719,-13.237978686202247,-8.4120906284031,-2.88627818474061,-7.792188072750435,-6.149660686277413,-0.09721790558227106,-7.403193569314286,-14.875417482892082,-10.723456942312612,-13.62169637723256,-23.347318295663026,-21.54115851170891,-19.51532486558798,-27.62613448130282,-27.58982429285708,-20.349935397269633,-23.19390951278891,-23.979591015007294,-13.034731428837857,-10.56320114203747,-18.986374517498774,-21.57773350400273,-25.447957694393118,-35.4927336079064,-32.49043455997807,-19.469243085119228,-17.7576849863537,-19.894465577621535,-16.211002711911448,-20.79688762836846,-29.93607278139052,-27.216778872513796,-26.03589444780596,-36.94070155586869,-40.37541128307687,-33.45411991446761,-31.502676637472412,-26.354333883403434,-13.442586198181761,-13.772533818246856,-26.221021368222786,-29.422427853492557,-29.35046939295619,-34.18267663840859,-27.812663733365284,-14.071949632908616,-14.477977359623676,-20.171944126452267,-18.67220881383775,-22.997379140959584,-29.32729793431634,-20.727009840373324,-12.221249607693187,-17.86054747929242,-20.61253912081179,-19.11302036963429,-27.274605785589856,-30.805882401870218,-19.324081871404097,-12.95887718006015,-13.832578303754879,-6.615880343942907,-3.6777120920730706,-14.805175534116401,-19.572653591622412,-15.202309555626426,-17.343107994739807,-14.954769798823298,0.1950206745570151,5.612224371902742,-2.4435078818516907,-4.596520513727453,-5.775742187635379,-13.355131539468534,-11.337583663350788,-3.746456499668928,-10.632877189781341,-18.851384921019193,-12.187298382504116,-6.200290388975096,-5.4013709268222705,1.2553026971854173,0.6379772950940406,-14.739147131808178,-21.581694440758387,-16.796527905204353,-18.992051872823303,-18.85053988904464,-5.975934382741386,0.489057967844073,-1.7595306388578538,3.6499007412359243,5.1566820147565915,-7.514947409571784,-12.519670206474077,-5.05248210211761,-3.286991153352945,-1.2004750435608789,8.465612226650668,7.323606381895205,-3.048283517119241,-0.9447006949974348,5.757095940062165,3.518338668586683,5.132384962164351,9.987338172902556,3.14281705059173,-2.27549791459261,5.61879678606077,7.7123776074921295,0.5804411874186974,1.111800171495411,0.19024768779190687,-11.789512600265294,-15.04339514134282,-7.787022022380205,-8.93978165710382,-9.818450870551885,-0.7912138245226563,0.1874091354091374,-5.645526303601911,1.3814914392871702,10.065479459140207,6.157792635517029,5.451841687016377,9.89564800614878,4.393617434757878,1.0158530533742285,10.11836947926356,11.467827208546256,3.6987011348192333,6.724115824125445,10.882799261724198,3.0276923304936063,0.06548444112741486,4.346935091099892,-0.10365350843264398,-2.1079613563467388,8.978036649961695,13.058182825562106,7.488885463311808,11.73922555082917,17.502765646535288,11.920942609942234,10.918262001752904,16.833142330921174,13.418978275513325,10.152304857570279,17.24250690906613,16.55868444881399,7.046516049271807,8.981696117610454,15.620656290479417,13.6996288596177,15.692890160561989,21.439036737538054,14.410299849080694,5.84218923885418,9.627442116469414,9.2892475226038,1.5553749200593563,3.451990915628514,6.063404529332424,-2.4635535156594783,-3.798157307036735,6.311757237927489,9.703356637929964,12.834188441482093,24.950457546527904,26.425809988712366,14.648496784233199,11.050449231394012,10.368581262858985,0.1880701610858626,-3.8056854574557226,1.8610789269344652,0.26860598845482797,-0.657797912562971,9.943291313617884,12.851243251754564,3.146423840913977,0.4467994520636739,0.6965622019442934,-6.407927095932834,-5.5397917331471715,3.9132112261784506,3.314465206970022,0.4582657060314659,7.089822736628742,7.232269761423332,-1.8359623749193195,-2.581692235401138,-1.9968784835681668,-11.375557636089896,-14.887754237680044,-10.206710069336072,-13.707630518880947,-15.654296678512287,-4.075145118409694,3.116859125293063,0.7250603127171211,3.7133439391303,3.779383289636576,-8.308462412558185,-12.283587553774343,-2.748834843655176,1.7409600279084876,5.030984596656344,14.454983734244397,11.70340060346685,-2.7740377251585535,-5.683227799934981,-1.1451840280201624,0.08431957241930355,12.678454718278914,36.014910204475626,50.540216364083875,64.58123212135933,91.38515151685887,114.38317980408215,127.85913057957788,145.56190907518214,156.97572068631086,149.87333245150862,143.451423415247,144.07800397833583,133.97818790854708,117.7140167661909,105.1376224065358,81.78229228734472,49.80324351989945,30.870335475266273,17.45943199399725,-5.643475713245107,-25.627437061088372,-38.2694701726937,-55.42249577694708,-66.42098290441265,-63.19316246879653,-68.22777400216145,-86.76228003550435,-98.29663057075541,-106.0170076439711,-119.90162561428676,-125.07256722864233,-121.15662875232954,-126.98843011884034,-134.2932535736123,-129.9458303064655,-130.3623458729844,-138.8990874991635,-136.29211696390226,-129.966712087929,-134.23834936009817,-131.69550223061972,-115.62826533057432,-104.13498318321943,-94.02058896062655,-78.65554011770058,-77.68635865039668,-90.69266089746452,-91.41791088070174,-81.64842881147554,-74.53962605602479,-59.896528150941094,-40.74711218972102,-37.66519450281343,-42.09187641389454,-37.89437592484157,-38.00960228500672,-44.75375255428831,-40.12771802156386,-32.05496505742833,-33.930418784915304,-29.983639055955635,-17.69432520477377,-16.11313264182903,-16.833460302521875,-4.362215531229053,6.1591676952876195,8.205506617971725,15.579986607252069,20.133577703359066,12.553663659177218,13.823200492502288,28.92618514503302,35.59459345718737,36.14422946807946,42.235608359732346,38.68445201266865,24.42145267878306,22.159909398348084,26.751481173464903,23.769409363093807,28.073114222337605,41.325387205513834,42.05458890044624,37.80019124938503,45.36953386595262,49.534350671956076,43.8669910530247,45.887201398373676,50.33794120928229,45.07024792191413,45.85688056347402,55.76003813821353,55.062667247346226,49.83433959335257,53.68753092065851,51.62060900925016,40.8121206946197,41.06414567509345,46.71899123521773,43.997058397393715,45.84916047438642,53.219582061212705,47.65747495948153,38.44362848701305,41.625023452407575,42.810525335224725,37.38709230641079,42.06597396815225,49.080454118139045,43.65090330023033,39.30556674161034,40.3486543524837,31.86451154914301,24.03127646077002,32.30217985318223,40.29855632036697,39.01572634973884,41.63187569797892,41.55424763419772,29.344721612530833,24.734024139059674,34.17925101471342,37.352497414987084,35.68030853914566,40.878015761160164,39.85576408194098,30.491175461734542,31.88738647454733,36.79776101547218,28.866989665781443,22.46657503994275,24.099969780415563,18.1338742606677,13.1525557579006,22.99837916807257,28.8746764330214,22.994794787441947,23.17063650594095,23.809538230743833,12.33358032646316,5.556192163467184,8.82256227565158,4.145023569317882,-1.1917011808013402,8.17035700475449,15.607293999919792,12.024791435929354,13.41703999296255,14.722361868748314,4.099078294772909,-0.2248275822270059,8.2182298640498,8.475301288019088,2.646928877013071,3.6062869762667993,-1.9347725785678715,-14.525925257995015,-11.630001231699524,0.025275140034609844,1.1682215301769934,2.793587735039902,9.125700402405368,3.5074782534191473,-5.4773769593292565,-2.407203198331375,-3.661526568184724,-15.23287692651678,-16.839251495070503,-11.812346653111675,-14.79619726787859,-13.187991731075762,-3.2228264077701017,-4.01053983928776,-10.607028441391183,-7.654793537461817,-8.080480963339818,-16.58511211849795,-14.76215943858801,-8.625471566483434,-14.372978727544957,-17.325575604710895,-10.54410760070403,-12.226147062084644,-17.014277422658317,-10.904479279259863,-10.775118455005499,-22.038335812840764,-22.59706596730623,-15.996901069219897,-19.69662352121133,-21.836777470746778,-15.930590988101724,-18.3283268053026,-22.58586723447803,-13.70190585200207,-9.037824284669272,-18.923270324812076,-25.6163165909125,-29.777049944629784,-40.55999602327066,-41.36234204465886,-28.799398853747245,-23.85540405225971,-23.18115955191928,-14.625564843008611,-13.024227998495478,-21.673314143493222,-21.32809559585611,-17.692405835752673,-24.717220644251363,-26.69082568929429,-18.089112298759325,-17.961774283466625,-21.400236170069437,-14.548620638452883,-13.205915328043083,-22.789502656795595,-23.08870451725077,-18.160033270896715,-22.83378534227799,-22.49040085392203,-11.817725967824794,-11.090442578680525,-16.776392704605662,-14.360064564807484,-17.692598380734346,-30.556421366289666,-31.916902395282214,-25.58726512755311,-26.772846507408403,-22.49078043019731,-8.835061524429141,-6.268141316165318,-11.989159002608217,-11.315215237389719,-14.988202696488147,-24.466077290077124,-19.7994488102164,-7.822028509132004,-8.104086268426835,-9.912408242515536,-5.198984691037396,-7.9320659000816125,-12.993471780485148,-8.72722060025803,-11.551817463157079,-25.45711069308751,-26.400916663779746,-15.223801267799072,-9.64734369451216,-2.554309266304613,6.7543953976673325,-0.1665100568726241,-13.302711383039918,-11.626471283207794,-7.400740340415227,-8.332968779249493,0.6171720200033857,10.665957459205389,4.708606553123032,-1.5216279053140378,1.5121106054164875,-1.84375031632028,-6.459437451472072,0.9810005109446114,4.3915168867198195,-3.3972865357563493,-3.5098267409926263,1.339011915779086,-3.2147700405657873,-3.6154818854226196,6.893776511033583,9.698379691055232,7.104683317702049,12.532269863846508,11.094788194606442,-2.822328955547187,-6.216464247153031,0.862341791387824,1.1670726181032753,3.3716717255595965,11.596103691121455,7.889373820360566,-1.359598795486951,2.3811079198228033,5.056029211475154,-3.9931430124715357,-7.242024644145681,-4.8158182172650275,-9.18121646150608,-6.964090620578547,7.370572986908927,13.265224675065278,11.385640317775232,16.621892369016646,17.44279047998829,7.566308996561839,5.905878099679827,10.582189462330058,5.557815970996854,3.31374480941896,12.767147233176557,15.713658640377819,12.539132194859524,17.092377417546633,15.589221525760365,0.45446637769355736,-6.870211963896193,-5.064810362578111,-9.60408333901027,-8.915763094181548,3.9198963414323194,8.452290370623057,5.342830999807082,10.422491606505483,11.99189639945093,3.894670888766724,4.867656770137223,11.156983941916662,6.511866008279956,4.294846963528583,11.9795447246235,11.643370169165571,7.751492345774805,16.47204933825154,23.74758782981999,20.128321160180157,20.01910991130497,17.495352409513742,0.4873336959597667,-9.342857298677345,0.015288964522996551,6.77950299146395,7.559606376230604,13.976810951215842,12.462528676499144,-1.5508872284317858,-5.675980398973689,-1.33385145415559,-4.911369719285489,-3.567138943677927,8.269141123866076,7.502074771928477,-3.79407650520169,-3.924053315709383,0.16865595287591706,1.4548334428955114,12.926551600303391,24.463279808500353,17.54567903814055,8.80335317832757,11.364099205222976,9.411453938982469,4.022333655898784,8.715860272739128,10.426151212027998,0.9603173600770014,-1.7070328507861592,2.0767495393400304,-1.7044307651483668,-1.2221355322306882,8.865474212619796,7.430541899125892,-3.8833564174506043,-6.005623159275221,-7.644680834268338,-15.883104853894416,-13.168143555137938,-2.5074356176347083,-0.574484610794648,5.024814065662578,20.329298566809435,23.110650105354207,14.42196178205096,13.338339711052743,11.190810261397871,1.3529681623281897,0.7890635401747019,4.863327619496888,-3.580759128903712,-10.059900636880963,-2.7803351200087274,0.9838221497003058,0.09230007006715879,7.194523407893273,8.687517197846601,-2.702771536001305,-5.709523738748024,-0.6225073261678715,-4.676762871849353,-6.145268650939686,3.6885582980508373,6.324051902298424,2.894785716340303,8.844187974736137,11.404918588101678,2.5663043463828923,1.6550111403143934,7.274765742116178,3.0369794677611637,1.8576863232085252,13.565974107718425,20.48530074302999,22.461809716122414,33.722646906148064,44.57062850581718,51.13047634098231,73.19394136839928,106.71999270535716,129.82671838303122,148.39582869167157,167.6467925012774,169.6331247213152,158.3210808559301,153.1688900910122,144.88460436944598,125.16140791570794,110.23482435227933,97.10447527639323,70.52007207116547,46.502508102362256,36.713486969497175,20.456635484588297,-5.542113482998709,-24.72783021104955,-43.35637071774717,-65.25854320885396,-73.07918286736546,-73.89450846735325,-89.18621741731062,-106.39223669221494,-112.09874621030998,-120.87177164574639,-130.7024784138889,-127.88170822112782,-128.07221910424545,-141.10190705703587,-147.43881105290538,-146.58349658124547,-153.17896771946369,-154.68466396910975,-143.32894860003327,-139.35179461997143,-142.98419172858894,-136.85202279963272,-131.25962996367014,-135.87414150978142,-133.50016224474587,-124.50028090159782,-124.3923630122852,-121.46089822579215,-107.21447066877366,-99.40300464712304,-96.73268052651758,-84.28575920421149,-74.9892972225492,-77.90043641049346,-75.04466502914886,-66.9070297635997,-68.4535277792856,-66.57034755809205,-51.127696663842464,-39.91772684947742,-33.06805780733792,-16.843866363278135,-6.706694109771613,-13.564531322977395,-16.581018833766123,-11.346303052385718,-10.997710467411165,-5.072752867310035,12.51187911469376,21.26933819753689,19.698311609573,23.998457642981492,25.9206893277675,19.599530142021855,23.621668117376622,35.7782180090926,37.06131232178912,36.95694757344705,45.3529162189238,47.02145371264939,45.0071121783176,54.89994405375203,61.520428175009556,53.62121776937416,51.00936539616931,55.82755424806976,52.74280545962908,52.52639230026366,62.52749961566333,62.841348306279144,54.457823428981555,56.845509187969796,61.26231780177305,58.15562455004962,62.78268700690072,70.85243434066571,63.68684278733282,54.99015439313834,59.30367945228668,61.903316918005316,61.80257258069476,69.76811842793889,70.1142128420019,54.94404438843434,46.98302478028602,49.64771108475401,46.41798514438146,45.516047034559776,54.27643130700835,54.46547564664345,47.3028150481746,50.693461100627836,53.475681435764464,45.30183798504141,44.59074196727547,51.39897281895715,46.89811517371547,41.24455154476428,47.29524628322297,49.621048693989025,47.586787603330485,55.68135739877231,59.02222793938675,45.17120572611806,34.94025643936717,34.1850704488518,28.584505036943302,26.317538689790318,33.02045520837429,28.531776112616008,13.607167019161906,8.848789015821755,7.242777473483047,0.06669480345380796,4.805952360874572,20.996114324776265,29.078533089436018,34.078361144446575,41.93087792715663,36.060624101245644,20.602271228671388,18.135806506154537,21.452334200994592,17.705698506219,20.031970381731995,27.620913309441974,24.450202108820847,20.781980243917946,24.68463643685442,18.160637590874664,4.440917264537501,4.370262408500845,8.341028856711812,3.2671236380557724,1.5969996039448644,2.1599129035127986,-7.49233614828734,-11.999710246923913,-0.8629432296709796,4.121114601025821,-2.2045438921804927,-3.016490163133161,-4.763842529051739,-14.845511775444924,-15.574683826571434,-8.131076687247722,-12.322106738215657,-18.213931043766486,-12.139250797564477,-10.119445646014224,-15.130971102579476,-12.481667026670488,-13.6156208657125,-28.726143646768612,-36.207630358426,-30.059709596626696,-27.57778436870387,-23.81357243758567,-12.291217354751051,-12.020134207882712,-23.457558123130262,-25.40513975411151,-22.914341045647117,-26.67205783050463,-22.61269587915517,-11.423491620305972,-11.553757358691007,-14.926890285661717,-10.231488278504344,-12.724803574559783,-22.434849720064786,-20.83570000996046,-15.817944081137838,-18.94919596207353,-16.672128197864275,-10.585709404935718,-17.577231537980257,-25.527992026697063,-21.08663570853357,-20.62638520048113,-25.82047569097052,-20.48950102348354,-15.419293840618469,-21.710098616372488,-22.043131790049895,-15.580180857061613,-19.26275241526989,-22.77356909409098,-16.100701325909505,-17.257033327926777,-25.399713157892908,-20.195038131664877,-10.32651001638872,-8.77662887496459,-2.6342422544192963,5.391658542516209,-3.0781845217920356,-15.34498089145669,-14.933859840135217,-16.286315995338384,-21.523776508679802,-15.54369871500609,-12.236870374683203,-25.27581121213732,-32.71169462665911,-26.28039242995833,-22.475663699169893,-16.40973848408804,-3.522261522658062,-5.84008772405869,-22.658205524151008,-28.156912669559592,-26.181832821034668,-29.89267001733312,-27.30737364414974,-19.90406929852368,-24.220317804819423,-28.069203275666837,-18.42985885567478,-13.002209888575145,-16.521656326825344,-13.871865880947375,-12.400359605321572,-20.838964449992257,-21.919581885094125,-13.732707395353263,-13.59004216356038,-13.62542806226152,-3.9960712629823947,-2.3242724809717075,-10.315244892106618,-9.877197718452749,-8.8316379383346,-17.35283721878347,-18.228523097585903,-10.138554380852591,-11.644691398786122,-14.287941180877805,-5.091530112043675,-0.09723453909115432,-3.184812658936626,1.7826712217564706,5.664037709713119,-3.776881035222853,-7.946287563921164,-1.122360559932614,-0.5027239892828683,0.10731710323953929,10.179743730113197,11.158424891151066,-0.01753806277910197,-4.153710162818472,-6.8865301890393535,-18.31664006703134,-21.867480859476995,-15.591361839950094,-17.151333206263203,-17.262520793874767,-3.940631269480697,2.4364073419151273,-5.404339584618879,-9.743305708647775,-13.817391226481758,-23.856383746562237,-21.167497731132205,-6.217546033109764,-2.4767171221202298,-4.908774617809047,0.8939390462160994,2.9280709331920627,-0.23388420938181187,7.092329383000361,13.95950168257519,5.4219315414701565,-2.831663663309729,-5.1720613847810455,-15.129122395660957,-21.148613319117114,-9.585602282017742,0.8773164891548499,2.8251142516040053,10.097992752026425,13.443738503239475,3.1913063178612644,-0.13289329845736647,8.59753459888585,10.729424407256408,10.586904753580779,17.16175315193644,14.604084411804749,3.174913910724165,3.5322183120160924,8.993917701297026,6.424550515841839,9.71022468983563,19.417400338811813,16.83972877677388,10.465676116125191,14.084411855147211,12.762185628273675,4.104968676437647,6.026534309515126,10.875394013559239,7.010668954882387,11.169826205417031,24.375807815215683,25.299361122951094,19.91582168173338,21.27464048973786,16.09533838959855,5.3913142476188245,8.75079756179405,16.625733191225788,13.469901386128491,12.911497114833928,16.83112666066487,8.622219904876733,-0.7068858099133131,4.403660050813945,8.277448631372256,4.945711562967141,8.662276657906702,10.984629722485009,1.6109691128523376,0.07522499045337505,11.708859792408557,15.980992899455611,14.59334770748974,18.43205888014856,15.304424323847005,5.913517874883784,9.62875690373749,17.505614004660945,12.834588573100973,10.052991911636697,15.465211889496434,13.312036904480857,10.355992676983657,18.058360059319565,18.4751134980738,6.908319944485602,3.5026557372966765,4.703263844552678,-0.2696217284169653,3.894524147459433,17.272793161573343,17.48833650069473,10.685712005323303,13.642672458681384,15.118813155139609,12.233981121395034,20.125791176058545,27.704321356930173,19.782848329650108,13.591941619409138,15.844044052583765,9.90650388163111,2.2956511744795915,5.031296297533165,2.2229410924743935,-8.547656269915626,-7.5250652760360275,-1.59362911218253,-5.92370132242083,-6.957193603917959,-0.3985201248706822,-1.8307917604685264,-2.932868687706452,7.979803559711524,11.61837855291202,2.396909011058692,1.2097931311517771,5.244980006845649,3.00607043687235,8.255280796982527,20.700159745739327,19.89798054494883,13.884155994596677,19.670854637638485,26.99147045529428,34.812691662210426,58.81775648492313,87.89313511603132,104.87559397985193,121.6461142798336,140.7762314837161,144.64904342052856,140.52683055982476,143.007084322065,138.2813135629313,123.14180691676864,114.55961564731183,103.82410905972964,78.1960515875096,56.86060845734674,47.51213878654452,31.66956628757695,12.090930401443737,0.2365994161901317,-18.34755693560305,-45.57733315634253,-60.25053078253337,-68.98003250510004,-89.06214673813818,-106.15259711338751,-112.3123783301732,-121.72577641817571,-127.43417504615452,-119.91888067260646,-120.36399732105039,-135.63308637977727,-143.61893715489612,-143.47215295582936,-146.2981386269403,-140.23201074981304,-125.26169974281893,-123.4045116006667,-129.62926992134243,-127.56311874799269,-129.61236646174004,-139.07968117613981,-135.88821233884332,-124.27186132552853,-120.34687342401926,-114.32886629716407,-103.22574153466489,-103.11898868063747,-105.53767501690278,-93.83194804082326,-82.47639119669572,-79.92449564690527,-70.81202124527213,-60.28763903079411,-61.70364910314879,-60.44381484164148,-50.12902143774819,-46.29251665146065,-41.55559618215349,-22.150487632190092,-6.742219424614662,-6.534561200816402,-5.8034099563782044,-5.8092974997486895,-12.974180334708999,-7.957183909911484,11.87637174509803,21.215688968262675,19.898235917528687,21.531294050191704,15.48577518394669,2.2072450321252814,3.660411193209282,14.463442692666094,18.384284307583464,27.719451435763713,44.2686496550247,46.778278726004714,40.85974378360398,44.045133811800625,45.70462066271082,42.27618809402997,50.66471775818983,62.38283590846201,59.822821381764506,56.87369666297754,61.855575071121194,60.0930874660241,57.56274162968542,66.9069484730302,71.20782818221178,62.39066810639221,57.96655301845567,55.95700147665013,46.39515227648769,45.56489172424699,57.54595722586899,60.03396350626899,53.622186244601465,52.5581675635843,47.124268451729705,36.26718451092751,39.334842649477956,48.87747810952406,45.683620258227315,41.90706304687406,46.50394090019336,44.47177220770918,39.91429030465113,46.403100573571514,49.98781705345418,44.75301021431755,48.75529869144459,56.52840134112899,51.0089808218727,44.387352055712626,44.19439092779206,36.72779573929458,29.902278338158805,38.102211451336295,44.47291307443405,39.02215578626204,36.58652083907681,33.17543636539031,18.54710590895236,10.839097901791947,17.584230168552377,20.390021489777833,21.68037311127498,33.08667315052973,38.49939735208916,30.22842184479773,25.623960892686007,22.815895610344963,12.648191191784257,12.656926426504315,26.486260161943168,30.106784538156116,24.75717686890229,26.00160093230362,22.433287494590992,10.628357530859551,8.999654486607968,10.766374061890637,0.6864112145713799,-4.596636526247002,3.1554113009378484,4.8667610509191706,2.6456426309079024,9.827664727314893,11.568018053111151,1.3126796248924695,-0.8562248226848923,4.210526505005762,3.212160038461292,8.176051608575229,21.216617769439583,19.53777972571617,6.500190222159797,2.316133786854513,0.2488878898729091,-3.9232426115234382,3.5561009911044024,12.085037528639702,3.176047365715267,-8.292237059219943,-10.88829055143982,-17.024442769088147,-19.953086978983652,-7.337579799875131,1.0103111507743907,-5.67028377591895,-9.06606058617216,-9.951273951223495,-19.068411789033114,-20.40209389697128,-8.815606457511564,-5.973192986434024,-10.553870826237269,-7.587530498129855,-9.766498272310091,-23.54826807654917,-28.934427931758382,-25.743800092188273,-27.40386283932201,-22.175061716326663,-6.51037310120741,-2.9362910520859464,-10.737836047191424,-11.963603130517606,-13.774732698022719,-20.530285851570497,-17.028729578229004,-10.342188497177974,-17.00978273949132,-23.0145983815074,-18.9263924885269,-21.247542416930813,-27.82683132748565,-24.323638026019214,-22.13727641580662,-26.93853074154081,-22.804347388663032,-16.411828478641915,-23.736261566477072,-29.30942714381396,-23.210232936357052,-22.37811724696558,-24.354663665160388,-16.36245774215827,-14.18583122724805,-23.888618375092886,-23.82707432159163,-16.720282502332843,-19.886138887322954,-20.826660130985886,-12.425571974362803,-13.524091548635234,-20.513231702249257,-16.845115461670584,-16.64538679815285,-28.170657316190365,-30.744984788340425,-24.989730258126542,-27.359922175484606,-27.073946125916667,-18.815621767977945,-21.777471194626198,-30.959977744712198,-26.555315785621282,-19.610478931276525,-20.720639488261632,-16.566566583138076,-11.767205505472045,-20.078775792651744,-24.107169992381998,-12.358996833487069,-5.577232429611594,-7.9366242915240015,-6.137270256378702,-9.466661616204602,-21.016791452669434,-20.426590067616125,-12.060285189686219,-15.688540756306415,-21.077224773341833,-19.15290871467098,-23.6770471068657,-28.46649499538379,-18.274416506471997,-9.212914984351855,-11.04176274850673,-5.75014377181115,3.5078116292181316,1.2069861024385227,0.8336741560126112,8.730570283587404,5.724604734728794,-3.410528587288243,-0.48235115389286554,1.517157053680113,-6.772968280772213,-7.144113492041637,-0.7882029311774623,-4.3226056547723815,-7.492136121506125,-2.7625684010645997,-6.929531362274993,-15.355820844084741,-8.838537064323578,0.27995763040656874,-1.2757391669785116,-0.8356094187737151,-0.533847574845323,-11.048952088687045,-14.779780760472688,-2.791616113856335,3.8373904904114546,3.0068625720118893,7.691318096935612,6.5278861982426175,-4.9165585279939386,-7.291398105914891,-3.9982207242702312,-11.045045740279278,-14.852258975064,-6.469600853645875,-4.094520729355692,-7.225801691237185,-1.3008363357484685,1.603839112441891,-6.4368708934007834,-6.341710678906427,2.059011574890952,2.422167524982699,4.74969803249052,16.232539497955813,18.01971269598126,12.29102721750142,18.194990886886178,24.936268764203355,20.491601867621114,18.764902054709108,17.29182533374972,2.5419799910505008,-8.701219749489969,-4.422148908032885,-3.375100127222527,-6.918418955159708,0.04617859517286815,5.523942067146401,-0.33014334827405456,0.7719599367577161,9.1547171122361,8.55816769373974,10.549953464215838,23.571857314265067,27.25344350076883,21.257976354555524,23.243125268470756,23.338110230962922,13.387902047393418,11.775129883628619,17.463028914600603,13.223262925496702,9.707421483724074,15.277337557047426,11.355104374965604,-0.9595046824210032,-2.8997542797530196,-1.9751249444515164,-5.279462419531782,3.339560165813403,18.7277403811245,19.35146290957125,14.656574498667997,16.70988945710019,11.139747295519562,0.8107070192681429,4.575392525066941,11.653795173052773,10.011741393538372,14.750602925506211,23.368508139417326,18.070280159541987,11.562222716168364,16.175126197230966,15.168568385303674,7.635491134673748,8.924098889383286,9.703011721666478,2.231025339319407,2.95332897122828,10.403275956291509,7.828499198779907,5.018928433026994,11.403297310920584,10.814075499846357,4.557988490838714,9.978926501499146,16.23215086357646,12.228590555194375,13.479923615250565,18.12569447558455,10.028064788934552,2.4005301874769223,6.990562824580778,7.150641840898722,2.5795102162612724,8.538342345044327,12.788505952571647,4.022493954911209,-0.6022333523627518,1.268217379237592,-3.9927926437141803,-5.624937660119744,4.5626501275836375,7.84821616378991,2.437878202753665,4.387759407771946,5.207919255028065,-3.584115549535051,-4.750928228402797,2.72685036652802,2.805646623174308,4.177700087756061,14.98722077158444,17.392703342707485,10.837857161390726,13.445580426006789,18.241602938220733,16.809225821326812,26.393431977817784,48.34992199614639,66.76815020034645,90.5262088140789,126.16456402566757,150.66097648744636,157.23604922582,159.71265683907822,150.61809281335863,125.95821168683827,108.61454462252212,101.91565501068604,89.0587422690069,76.92057045196321,70.33567431685354,49.82001838575373,17.175874534791422,-6.953851713119548,-28.14504526868311,-54.228227866743204,-70.41071500814604,-78.52279311025269,-94.69867494737741,-107.83468727004608,-105.42172668479671,-102.6443585242549,-104.11266402204616,-99.31800891724137,-99.92271519169408,-114.62110605335076,-123.13712317563646,-120.48477127723052,-122.96108726839148,-125.19842737211849,-118.48437722583218,-115.99376238007568,-116.15219069051115,-104.2053275240824,-93.95526070099872,-99.57441147359296,-104.15564569380665,-102.27746141275362,-106.32545674202103,-105.79127799437954,-91.83946052294843,-83.57378770579577,-83.00648176067327,-73.03649349223656,-63.44966791171245,-65.3807406149203,-61.53785202050444,-50.022252735293215,-46.98722903715121,-42.19198106802161,-26.116943567347477,-19.246736820931027,-24.54617215396869,-22.403913235437685,-18.436101248675765,-21.82060833405042,-16.95366272665285,-5.742928350623856,-7.869033772566249,-13.029771378238188,-5.880296332725157,-0.5944793255045457,-0.2789852122259391,9.641631722427485,18.173838725547995,13.179838759012899,12.416865797415142,20.118129952630518,21.324417235777233,25.219664826114506,40.88616397828476,48.35030405975572,42.93984604229474,41.05784755131974,35.63085043189993,19.263811419006664,13.404056021334048,22.484705574561783,27.051308758793844,31.388012584394694,43.447866328459504,45.217612053019415,35.9825727156735,36.38425689881395,40.50043797858294,36.63488761553761,39.11252472074246,48.37790212797501,45.87633644798824,40.17718869390199,44.86846691005092,45.254882825754166,39.886625924808754,45.1514334626512,49.470238024395044,39.556549159517544,33.8129005391826,36.99503986880602,32.44502033936137,29.329030241282716,39.35551712977897,43.95913977511637,39.527705332443055,43.71036955481914,47.70647319758854,39.21310836486701,35.57554847961223,41.17149098883829,39.49828706202177,37.60323948456322,44.6947368471516,43.15242822190107,32.600215092819596,34.063847067441564,40.46344467784232,37.434596019812695,37.720030019177386,42.15242482643477,34.70373780655094,27.547129467525306,34.79432166615527,37.648199571604785,30.709972991231286,31.2672613051635,30.814698219206157,16.75211904725651,7.4230363901966525,9.701264719403497,8.244117185502512,9.119483344967868,19.945271243708074,20.626246168451722,8.624294031087588,6.075226473255906,8.405079719231637,2.0389997793179795,0.502930621138968,7.226189530688693,7.1081084085240285,8.095090955620915,19.159481893018803,20.093102103571756,6.40485819061006,-0.34674996694157245,-1.1928123231237637,-5.948117296758478,-1.4174500248040398,11.813421837268383,13.24848485826822,7.926023350252622,8.64216565096233,3.107178030244078,-9.622338485158878,-10.896265198794957,-6.602852810948761,-10.670229894513119,-10.826223369303891,-4.3377780052830275,-7.7248926181131505,-13.543836577770849,-9.040275871181946,-9.354467403719486,-17.259900493630084,-14.196137220651703,-7.263964895708983,-10.813004905211235,-11.300881665784956,-5.58395037427359,-9.701062648810643,-14.260763655683176,-5.680994874698324,-1.58818703461791,-8.482555123498406,-8.888169769288828,-8.012151496686736,-17.969578002547554,-23.07662704476061,-18.832922063515195,-22.915337600539523,-28.208798009564987,-20.160717042796435,-13.616444756001773,-14.13119327323739,-6.649795997298105,-0.1728330497529933,-7.916755780518824,-12.612545771424521,-8.281572941058892,-11.145455973715944,-13.477304403101062,-3.3906785135056023,0.7275931037904083,-7.414511955653105,-11.399458390225439,-17.102322232638436,-32.80037343221618,-37.520573034352594,-25.71233200138389,-19.408473666040848,-18.424987360701262,-11.91286499485686,-12.828511723903773,-22.110673931883856,-19.704354161950103,-12.409201657545891,-15.874583359901996,-15.630866448535926,-6.930895431557295,-8.702156415448677,-15.802237785655501,-13.922431869563749,-15.26415449068298,-22.02182561223182,-18.166776173111316,-13.945493490128834,-24.42558155356794,-32.353135756061285,-29.184479961309247,-31.061613894082903,-33.3927761822179,-24.106999531596962,-18.90593502299985,-22.727568324977554,-17.275734168073306,-8.988881621898091,-11.880964829306722,-9.471826173493794,3.3006947489445313,5.317967508300358,-0.4995673261222726,1.0452171602956593,0.05739003287134925,-4.936768180748314,2.48088253716645,11.695798077163076,4.366324862181957,-5.05266696155878,-6.391436768486129,-12.222949530828188,-17.258969943719055,-10.922814642234398,-8.324325282236174,-13.130562451454587,-7.083679309347206,3.9322353950100295,3.460045412732069,2.1903935227026596,6.02844462182028,2.285839149107427,-0.9050483046764984,8.620185906263277,13.563339968761554,7.13325168863911,7.4207903576126055,11.083902532645673,5.990985768772763,6.58324166949299,16.73770671726032,17.11203427338903,12.36198739447007,15.926338533802744,12.438207824845186,-1.630362596633776,-3.927374117730886,2.3544330437006638,1.8095072196281308,5.775305518594419,15.134411126277474,9.965288375629346,-0.7962991226867215,2.1222155877608295,5.457408214391675,0.9304095335730067,3.2947253302744404,6.646373313798724,-1.9892260575116798,-6.6094882460935205,-0.2344319227894469,0.2655761960210883,0.06538091365256893,11.606166060545412,16.296769841755143,4.12102223786308,-6.0915450098481525,-12.820913252691035,-24.185146838368656,-23.965805067222824,-9.542804687592275,-4.005942121979163,-4.544607861334222,3.471461567699045,4.521115128738291,-8.49875345034586,-15.179891114909568,-16.31797375749978,-24.086176036257044,-23.391553067293355,-10.02263654208646,-5.864729149069153,-7.734035054327258,-0.7375544589641763,0.0003785166082651559,-11.540232153574593,-14.490997102532482,-11.611185524380367,-17.68771674324664,-18.099980484909693,-7.014994609226136,-4.108540620648975,-4.9795978162020935,4.462832108281222,7.357222584540188,-3.5648859841852536,-7.842778130602313,-6.976333131048033,-13.024644796195656,-9.562916888100979,8.49582221438138,17.989806760716892,18.868324202048516,24.336225182795225,21.046161554369103,5.542090100482515,0.27894868125319544,2.6529154078911916,-3.587468940583107,-4.018289705208083,8.33915281974926,12.033372464961671,8.44039236915983,12.23450994322859,9.90179276692869,-2.793456669933952,-4.450432722605504,1.3638337208568085,-2.2248609979125593,-3.5370461377038867,2.9088205216908416,0.0841584299964846,-5.476451829283073,2.6739800076499387,10.253122911273087,7.560154971549001,7.9925661005407775,5.872341985661804,-9.800684200671371,-18.61845300958399,-9.13471221034397,0.10581553507771613,7.359105814627197,21.556955616833548,26.200934414875903,14.608576602113377,7.97573414654175,6.910227048190091,-1.937615083994363,-5.281798790205402,4.0128930241621665,7.6555515827022145,7.3633697606918025,16.892929855203047,23.159128011591996,18.24895713290148,18.232398750812937,20.241686509447828,10.989827453887827,4.957258990362391,11.067975486364194,12.161140687455479,8.532443706172149,11.977418003377567,9.819682343705956,-2.284575024271608,-3.9390170694891244,2.448007007264037,-0.05397645439388299,-0.8310720386457044,6.590451200634202,4.896644601046508,-1.8323889421438815,2.51510483849214,5.26953270575069,-0.17119690319719272,4.629815320897491,15.064513087815074,13.174029185659073,10.32249933239008,13.861232142249237,7.79330837333173,-1.1302908948372257,4.883413175221181,10.87445344280843,5.723304861114696,5.154815251449296,5.41728312856154,-6.376837502992148,-12.989995231132223,-6.469432234331668,-6.619540765645039,-11.277842873758692,-5.4482502321520805,-1.5878948050201758,-6.5993415066723395,-3.442834427259502,3.8141641422400765,-2.4347482713305904,-10.167243262152661,-6.359451323440574,-3.3688017773220036,0.26091782211984604,15.58552062603963,24.030922145946697,13.39613901319031,6.099305423420876,9.851048501185504,13.743312097059658,27.378582798765805,54.598006661174175,76.57839360784118,95.72512649727213,126.22669384199834,152.6377438851439,162.4714081867785,169.71988528071478,173.3426835520694,161.78631779018966,148.16022123871952,139.5072516667043,119.33895973563125,91.6698974895451,73.94476910273005,55.879939367673856,29.458582443444783,10.276405840847321,-5.153292517706582,-29.899946690221697,-47.501396855058914,-49.91407976012731,-58.578118633936626,-74.7432213320711,-84.59515576260247,-98.59802340642005,-118.76185249875618,-123.74147178331118,-118.24278527669678,-121.49951712917161,-123.34221711008787,-117.588136770202,-122.08342022202314,-133.0784943277539,-133.54163352957886,-134.01059178106323,-140.92212852428315,-136.74157570793173,-124.70967388473875,-121.74474824134339,-116.78489758158457,-101.8571664318114,-94.484029132117,-93.10342630042533,-82.60326937012879,-76.47028570626142,-84.47910367930834,-86.63145538080693,-79.38339580976077,-76.44595217149843,-68.12643066006125,-49.74712151081639,-42.929866451020985,-47.704961464695074,-45.71797423077223,-45.968885363869575,-55.99235183040175,-55.13206529513262,-41.044791157862456,-30.734193470979818,-17.42961682275277,1.7778790186446605,5.115181496868932,-3.937912705883597,-2.3605333925653937,2.1174986206324387,-0.6538651917075513,4.3161428857964115,14.449170150583356,13.966024360497189,15.831900385481203,29.21493946988917,34.35827596995489,29.93621128317283,31.457637532886956,28.705978906631223,16.269085097002453,15.819663932418498,26.970096874690306,30.819736232279336,35.083233584604145,45.423028432527175,43.68401808773907,33.8398501334771,35.42392286503423,37.93662321797744,31.75192689444987,34.597828833914605,45.88738142466569,48.472359919759405,51.40429582177936,60.819476497573184,58.30572541189396,47.700311901609396,48.62653653122109,50.83475224986371,44.34726139871953,44.22659963314866,47.12719816671445,37.2837361133536,29.425755661646345,35.88112196642023,39.03420428839144,36.65921814351873,42.19822733697573,43.297483289439114,31.220291126594645,26.617103470708617,32.32883194225528,31.61664274057799,33.016491744948574,44.38438079840315,46.621307988044514,39.020804198878395,39.329230818030176,39.60281836244302,32.44566790325944,34.59770120866939,42.961905470711244,38.91778780053396,32.95062789694306,35.95444113813545,32.18149347831836,21.796968804038002,20.59024147041893,19.293699324175506,10.698521497304776,13.040776541021566,24.2227440505443,22.846918710521546,16.231216015705176,16.987190592872732,13.412687786599488,7.706711691443221,14.509772487637353,20.020848901265026,12.290712209553964,10.503493403002352,18.342826726423553,17.399939270659036,13.587087623410277,17.234821012436345,13.979259532310783,5.143218266554969,8.518723041901074,12.75662321333876,4.453655063328084,0.6417630072595341,4.6890168354261705,0.42787655572453653,-3.5936876900994537,2.8596167756011424,3.568395189265658,-2.572407006347553,0.8783603952956192,5.3422883346762875,1.455869600443288,5.4921024114619605,16.125343857625353,13.749369147135361,6.627852387547848,7.092755302591001,2.557749935811018,-4.5254507505142305,2.448612196385573,10.197228381403056,3.507684466675656,-2.803813323268054,-5.243924391538302,-15.59616466326087,-20.889127664696794,-11.592918193638624,-8.026636632878422,-13.1483096148459,-9.56167963230877,-4.973013044589756,-9.726756868116102,-10.239809075452454,-7.988590131743575,-17.268188597838833,-23.772164215240608,-14.686720734859744,-8.282987891355665,-8.972987782631758,-2.8306442078980143,-0.18802150679282498,-9.870933321491524,-13.129717830841736,-9.192966708957616,-15.375684876317575,-20.993446085050213,-13.961214178327236,-11.206965552483226,-16.245937697689143,-14.74365347100617,-15.613344803549241,-26.077523536389577,-26.318302831235787,-15.43340965637048,-13.97190171748936,-16.439281111374488,-12.27846495666055,-14.955457469912247,-22.74555102660383,-18.57839412432889,-14.045149039526418,-20.90564831525804,-20.062435051419968,-8.770294101031723,-6.3278140536561205,-6.031831766433787,2.0793162070375906,0.26595967499737894,-11.997079728981666,-13.67860815438932,-12.474560845569508,-21.470967034672867,-23.7764462853412,-16.22879493095194,-17.373958766558356,-20.84389803057376,-16.152218884714486,-18.294739069646216,-26.197595968901915,-20.609273708821327,-11.094353420017654,-12.531110986287477,-11.46664622198842,-5.820481130311142,-10.22116383968065,-14.046861900462341,-6.9172642456677895,-6.309738162336643,-13.169646359378348,-10.668449535487404,-8.63471158403235,-17.25235792197008,-17.85935851820437,-7.789884230261544,-7.1407824431666285,-12.26739622502312,-13.600030016408562,-23.956259445121873,-37.742203327002116,-31.852989185441498,-17.646160683858373,-14.413273744619332,-9.060328573631129,1.8928752791537056,1.6452684528211892,-1.4724007744872487,5.323197433394419,5.8843158720838495,-2.2236858969177278,0.20519558883266065,4.166791546695096,-6.4239351507379165,-15.099296560578907,-13.816693830626896,-16.595391415402894,-16.55416914939633,-5.631345240556321,-3.681886729324682,-14.217222727384383,-17.345325882390814,-17.020232465860563,-23.51085564184192,-22.730251164986484,-13.656081859944107,-13.023697586173078,-12.534382155407874,-1.1731824190829556,3.5457485731143197,-2.8144441849827544,-2.898874496375954,-1.4950807889145084,-6.7939876773805175,-1.6699359656838157,13.294247413388085,15.109090735714556,8.836939146508751,8.395876419139645,2.7970467789781557,-5.954610696368986,0.15495236071896246,9.378443161645889,5.040326381730849,1.0784561062913793,1.1682292470967024,-9.44294356039245,-19.077367725485256,-11.907619772478128,-3.655999330945783,-0.9532794701851743,9.293817871093092,16.510160546686024,8.112799878086959,3.193222918677902,9.478731316552542,11.137206359743676,13.731498163246913,27.58383439964638,35.38242697413026,31.140084555864348,31.415767099363467,31.623571363414666,21.46821534234993,16.68637786720565,20.33548349636326,13.339773844372287,1.1006083817177696,-1.7837998166814162,-5.9634931103372235,-13.1427716933381,-8.310353923598832,-1.6888184647649278,-7.853420902426909,-10.72769334526538,-3.683772362011387,-2.8784037618071303,-2.530534003039978,9.985608852625907,19.65688352804045,20.547113333837395,26.684487371055358,29.05363859446152,15.563786928771666,6.367896094078176,10.710222589056695,11.009413753393927,9.98084075688367,17.795748601155914,18.003705636212832,6.861748549807644,3.811185744068879,3.145603671551682,-7.598753936780455,-11.148078206399752,-2.9327887120032976,-3.0614456715370264,-6.825559615522011,-0.836875668738247,0.3651526201688623,-6.813842698092402,-3.8320969185879514,3.64251373888707,2.77229806962924,7.321665561301436,18.038429976466748,15.085365248077448,6.5904204607263175,9.076567480807197,8.9951043710236,1.6299941299695577,3.0742683268653836,5.0325436936085035,-5.275852602458221,-9.577529035708146,-1.986092947209385,-1.641088269809854,-3.362181466858946,5.656553881391185,8.01190960393825,-2.173625144418374,-4.055235308600695,-0.008096626823339115,-2.7672838062685,2.1937513231164263,17.93609167123436,22.823321282879316,19.631734229087378,21.766217784871834,16.12447738375392,-0.5135910382553766,-8.709123019076122,-10.466614139340384,-16.602084547168687,-14.256259005125449,-2.218659261639137,-1.5784430675409054,-9.563034746080124,-11.445986491913827,-15.774203611678015,-22.89610104833042,-16.385958230067143,-5.481167956874815,-6.704478713730335,-6.4018267374135664,2.478328454317832,4.378449074669928,4.345051928081893,14.244991936441115,17.51712920836578,7.933271724545371,4.660914640268129,5.17145211259965,-3.354237644855042,-6.704401006043976,0.9547451144848846,2.2486475360092824,0.8678549427404227,6.986007571064876,5.349799426506715,-4.868422890556443,-1.7782281844077734,11.608607463082663,21.804540804123274,38.93734908054919,62.79103093730004,76.65741807923838,92.95147787270032,128.59685606626505,164.2232378237195,185.9934426063644,201.40902285395245,198.4100165656179,166.3254625757054,130.99502125673115,109.86831559667664,89.96530606654068,72.47847275888029,64.64440236043335,47.76567216868712,17.304189460085013,-3.223238444707889,-14.108158811802578,-30.01379943040575,-41.30611880241255,-46.57434327192743,-63.726406988208865,-84.36817745649499,-90.92695016325156,-96.92306112095015,-109.5993565640875,-112.96467285894337,-112.86442631105025,-124.34232378962062,-133.74212660443567,-133.53770155119952,-138.86765542391254,-143.79188298934636,-133.8986983198987,-125.18555672799124,-127.13969732774812,-123.81109242564571,-120.0569999582235,-129.22061516021918,-133.77643996114188,-123.88511184512303,-115.43585244281635,-105.33388215373107,-85.1738128162464,-75.230059536624,-82.37361063179628,-83.66432400211455,-77.57703759190417,-76.9116594935463,-69.71892932977013,-53.25624744055921,-49.03705062238793,-52.12463493657274,-42.771386203441295,-31.938342984974472,-28.337131846912122,-18.680614301800155,-10.098663344363136,-16.359416046767983,-19.315718456161182,-7.615311222325102,1.305753294750994,6.7097108379912305,19.593291736253978,26.458459492580385,20.899343869092668,20.12330213537523,21.279078693697926,11.955521818868997,8.502073184744257,20.29389272412346,28.48537572816126,30.850497526688567,37.32723674455222,35.64628743489073,23.754712247604996,23.78978866201043,34.44872971045006,38.91008468476964,44.2470161346503,52.97634352435252,49.71508563030838,43.19042208035212,51.101343926329555,60.11595535933187,60.137932551613915,63.503174961492,63.91594854105626,49.231608256379104,37.90967520715283,40.56631932907723,41.429126367569424,43.68620570912843,57.938240193936494,64.35683103663547,52.1832520331714,42.70709587247437,41.1699867982618,38.08379507822474,44.46475632741972,59.684390790472705,58.79771653240816,44.25418246642447,37.5654438857386,34.732962056780835,31.544746140109922,39.48553677268459,47.80014740782935,39.43463540310911,29.9914030333429,31.06831280122323,29.114953256732868,26.980039901555095,33.99211901142789,33.33875603509106,20.647683711556596,18.391934546579755,25.3596267417279,25.219608724487962,27.45101135289289,36.22604779343503,33.62242603947941,24.771448222521002,27.207880791763564,28.67967817013806,20.536178009096048,19.634793514330436,23.55403047885066,17.302705951229242,13.647557467382052,20.53895649858444,19.791581778914,13.211193522943812,16.676643778461408,18.575985671596886,11.52329101593596,13.061367221375937,19.286025411061416,13.108637694219858,8.674678631117532,16.573625774872436,17.931176727108777,12.238116921869317,13.815884292269459,10.762014957169814,-1.485786018992842,-0.6243466706859881,10.776454322564966,10.666382714459413,6.089525714336849,6.044013889991194,-3.150461280586953,-15.172212947030504,-11.276178586717684,-5.587639526081406,-11.959072039671263,-14.955523816021389,-14.357314641433895,-23.236723194384858,-27.091682994964238,-16.085129283541292,-8.837143600749247,-6.696059367494904,2.8222001583136067,7.140561827758345,-0.08421669020841671,0.3735648516674168,6.586705696154839,0.5590482832472019,-8.262630154717325,-9.859195570273357,-15.87788208015972,-20.011142738364125,-8.111977667844084,1.0641594355538222,-6.9812753732040855,-15.039817191188554,-19.822631572784083,-30.767687367899157,-32.622277985678735,-18.906486483673422,-12.087473249749838,-14.603209173337802,-12.41190863817311,-14.85867499600652,-24.295618100844727,-19.478856518946145,-4.7055356350161555,-2.646253483765675,-6.945370718682855,-7.890141086572854,-16.031459791504666,-23.720836901547038,-15.05132614883021,-7.52829148958226,-15.218651158668404,-19.899364825912087,-17.52354797627201,-19.56965673157899,-15.229142503944168,-1.1597511865894576,0.044382734678375835,-10.95485531899453,-14.206022637023914,-16.32793035738849,-23.384609646103424,-18.127732410024976,-5.29235693315257,-5.190377772132433,-7.4498790373317965,-1.7283009733432044,-3.660620171207845,-11.392806929629213,-11.089272955203292,-16.05201342618126,-31.704457163645184,-35.133908423545606,-25.787329582249356,-22.52728936165422,-19.62955770645503,-12.464579518716878,-16.38198511947412,-23.98678608953292,-16.341641411774823,-7.836620359211384,-11.449330430603126,-10.651451932631675,-4.684814621968268,-7.429505168057787,-7.249205417060295,2.9509004340071394,4.2523532720905814,-2.5386500152709814,-1.1277738058036002,-2.278115928331432,-14.895902471159888,-20.987749014256913,-19.09175203531278,-24.15495234317991,-26.43355948032485,-18.185463610775464,-16.48964185743341,-19.21365956387835,-10.003882168755155,-2.5316663406728868,-8.721518171159762,-10.576625472316135,-5.981560072744449,-9.431683041941975,-9.706666834128665,1.3631682199508752,4.087648819094616,-2.4877972878008516,-0.7129049863683257,1.0054146036956213,-6.233632017928847,-5.3779366327215445,2.9758362250819688,-0.17759424118249,-6.323969106665705,-3.990525676006914,-8.011560092208663,-17.49532645092332,-15.023821365483988,-10.630231253260668,-15.666461467725465,-15.614207470397975,-11.929778882001795,-19.37510364649261,-23.179242544839838,-11.315706905462026,-3.7221119409844134,-5.106882831359285,-1.5523167115210816,-2.3122914637692915,-12.812018157589373,-12.290870339412253,-1.2866793795476177,0.8987272924973807,3.303867156357325,15.331157331159465,