-50.176367824575145,-53.598648156398085,-55.374593194960426,-47.257269158655944,-43.81499127322781,-42.72679761939925,-32.414167876318906,-25.36793362486157,-28.015304531532095,-24.83761919748838,-19.072540394766218,-22.674704984312896,-20.361252335236458,-4.02078609724528,8.054691759805774,13.215388490670616,20.2889311445091,19.072495298442195,8.490256096684424,7.2890734729030715,11.423151548603094,7.217083832213014,10.956712544355232,31.183539181290858,46.31764502650925,50.72534394911227,50.97321410909583,35.59381663832654,9.247062903640792,0.1643393351917732,8.478734249616444,15.790072626669977,25.630690530134096,36.334228981077274,30.15637860112718,14.781374237335204,7.041149028078287,-1.8097443154369595,-12.679800617141735,-10.590655522388378,-4.291278705532988,-8.727506028448108,-11.420352986238536,-3.8840068444077613,1.61892880534732,6.5705886694203866,18.37049387283301,22.462921814852443,13.505871881637358,10.592320242570597,15.612671804795163,13.497208656828878,8.531340840488259,6.85285728004212,-0.11663878851311482,-5.2485179323126365,2.401794888663581,8.412410276350503,6.381624857639216,10.350779016767675,17.51336939699112,17.280442255921216,16.976522619865676,17.170729929855696,8.351786873518458,2.332697412843973,9.870798382153378,13.299729559333604,5.1305129423439535,-0.27436447761786953,-4.185603512270654,-12.072869353642334,-10.4467111011325,-0.04986830457238112,1.5470737324946484,2.3832993116324706,15.225603955702248,22.873763067573847,16.37788492690679,8.07124487658276,-4.937972776734784,-24.564828459332148,-31.732598614566626,-23.575158074088144,-17.083950960682536,-12.550883440979554,-6.0865405438397975,-11.370992789305772,-28.7235816659965,-38.26033173818508,-38.31271448043185,-37.254144368984626,-27.40522492766135,-13.535935359931365,-15.360792180969485,-22.398687668972443,-14.782788276326675,-5.05293774617392,-3.105264571950493,-0.6880623027455017,-7.2066467091829445,-29.116786023927816,-40.898602107084514,-30.910384081205628,-19.403625122678868,-11.741219864739644,-2.2390648877860784,-3.325714076044917,-14.223401834318604,-14.62060487471613,-9.606256127517671,-13.301485406377656,-12.191748857520395,-1.8598431206511958,-1.0126264600304902,-6.066767175821865,-4.843391524488113,-9.567248372081316,-20.39098473376184,-19.063996749138216,-11.330793941879953,-8.322066775177372,1.4461744780525176,15.5740791793108,12.264211531512537,-4.325355938814992,-15.011317576778541,-20.696877013217904,-20.963291444509373,-8.755337906303128,-1.3524782095762498,-15.003487050351232,-30.339645385738383,-31.892769178386445,-29.25345369442995,-20.302910246146094,-0.3462294715629728,11.079226206594788,7.188605299928065,6.470134549707131,7.106982989561182,-2.400812931325651,-6.755094931749259,-0.11893756559905411,-1.4061014072316282,-7.851959191497146,-7.54047579207997,-12.94128742872759,-24.703199291365426,-22.94972835766876,-13.666526159893552,-14.046206038597255,-15.579111842735927,-15.583598972660537,-25.891167015681372,-33.78263790941565,-23.18415856018825,-8.428088550584436,-0.017211044866302427,7.266937969608977,3.166199321751772,-16.412494689683385,-25.967798591081326,-13.407606993994982,7.575240313270321,31.870283594820318,53.0867771106031,51.962526789550964,33.74735044110295,25.35821189110244,27.264061620520632,25.901910222934966,25.155690994395435,20.063352754298343,-1.0289277032985469,-17.80667072832545,-10.156348291095663,3.7145848112348236,9.556347410452316,13.360348194604832,7.45256434464624,-9.450661897282824,-14.101998430783894,-6.246012771139509,-9.261333525195798,-19.69282027549992,-23.399193025293446,-26.805840318049196,-28.708332635930486,-18.552719280663368,-9.42654188303472,-14.751319438085899,-20.15010587119359,-19.382038186236272,-24.339180691685137,-27.070968004006772,-16.343391648424138,-7.650172086316342,-7.260609899005383,-3.725261171345763,-5.85893501444539,-20.645703794690235,-26.88578571028909,-18.448605334395115,-11.326348609639961,-3.7834045295008574,6.031338233278028,1.0864094881441342,-14.665531667307357,-17.570553541470243,-10.999107759434882,-9.76047081931233,-6.832313026939699,-2.014737746720641,-7.479743835823315,-9.913076163695754,4.912177753150206,17.835308556077248,18.637945928893743,19.716100599087802,14.411377219998172,-4.861839355135291,-17.37326621001065,-15.033516983021398,-11.399183284181097,-2.778661028148571,14.714036896308967,22.909392937504666,18.40474538731251,17.284663635768272,16.26034558890401,7.7633656796131945,5.323043229029175,11.025432172039016,11.035165726511572,10.644658002529182,15.309997504137296,9.524018881944059,-4.316975526367219,-5.201385453902079,2.3185823205190927,5.579207555615067,11.85285945878735,15.593884408248915,0.6620001312407844,-17.429774153058165,-19.332338687492943,-15.847089941197453,-12.421471325738604,-3.241436946491712,-1.4599608677310283,-14.133403670301014,-19.165333157371407,-7.33564549805506,4.7016077486013845,13.879216186830002,22.755423086695302,18.942551635980514,8.502238728541055,11.963316724525123,19.227202965568516,12.472154610562445,1.362951225363069,-8.69983476457048,-23.51635650802184,-27.85831494620677,-12.97476838939123,-1.5849083753053421,-1.9440851901053955,-0.7112214586007699,-1.3703625826568333,-5.869593346110169,1.9341490385279445,16.076025467960758,14.678582924430398,5.9137920490581894,4.957246504187409,5.338837097632781,11.086137384477812,31.490655853507675,46.023774495000474,39.17522467137482,27.576404592162866,16.47741396618716,-2.104716496445234,-13.471494434699835,-7.955544330287102,-2.6045334461277383,-0.21364017486580156,11.0926903753096,19.877932653281036,14.788937309232415,9.54880361340833,5.799192483311755,-7.065123139046275,-15.98652332714229,-9.511773310048506,-1.3719278820781193,3.4653740298322817,12.711153858223396,17.886878661224358,13.380863221510664,15.643099955615106,26.113230019103415,27.268714377571676,22.0275202995808,19.372340059724205,12.633016185886166,8.119170332542545,18.51227538747105,27.783294792110887,20.722451285442,12.049101061428495,10.363817490641456,9.989754346035314,18.38074745436479,34.97265203970635,37.5113001502547,25.578528227860104,20.177313782252494,19.788663663243355,16.9950212895532,21.622138839572802,27.668455483625273,18.16449063698521,6.169900033926636,6.199645819324459,4.612571748500857,1.022266055557387,8.154450846768286,11.493289107235707,0.7312752008691881,-4.396937863592568,-1.6462444983486102,-6.02396501701619,-6.046494171254006,7.671495527693003,16.468673759173498,16.519979817541813,20.238573082206635,18.765283292390983,5.7654046740968585,-0.18179103329254415,3.843579166030553,0.5553048179074156,-5.122213201924686,-2.7102468336921657,-4.58305851127104,-10.097972491814467,-2.97258071746874,8.092218386821282,11.982277103709821,19.57036383141593,26.234731024124834,15.010774586707436,-2.1337106827881716,-7.620600836955891,-8.717001674816741,-7.934600682899547,0.0839524746112561,-0.24329489635371448,-16.465814155228493,-25.708790351889157,-20.925610374796086,-17.17967728306281,-12.456598579269412,-4.635260428864135,-8.498358074302423,-18.188230852690545,-14.431786173583472,-7.836306045209897,-10.63794379884928,-8.925022445462222,-2.8222500379860493,-5.5203584593318515,-7.104998275689609,-2.143887691345197,-6.461328692417734,-14.102108572422297,-6.8945822141521935,2.451674193846496,0.7055706074398285,-0.5887464033214586,-2.2764848717722637,-12.124071009389723,-13.036550720310943,1.2557151382063374,7.977236803296509,4.509735261250253,4.304180906694823,-1.8797398234938103,-16.354765083019622,-19.59397024614495,-12.531234816372661,-9.036396539584949,-1.860326929345538,10.99653235418932,11.878534549574148,3.5913657719906036,2.194726641543767-2.0894724038234727,-16.516697504058566,-24.766600475134197,-27.372764089312724,-35.59730495075833,-37.0187642238301,-27.784311963556867,-26.42230195407473,-28.309114576072872,-16.519618500812467,-2.866601062760407,0.11101799626270492,0.01854114690256925,-7.918521562912057,-28.726091654783854,-38.1207376501368,-24.828287098331405,-10.09686181028048,0.4959498545288348,13.477621746412124,15.493969598742328,3.6600790566412176,-4.352902296626363,-10.329988969710364,-20.615990602056662,-16.843551026591374,3.034566738881894,10.962706240759228,0.11040426283597782,-13.974295517305508,-29.031720971281928,-40.538212655514904,-34.00299545288696,-20.182367924949748,-20.877454726241957,-25.759028728293565,-20.288841043298127,-16.93183278201002,-17.76579449823302,-10.105192989765655,-4.176856434617868,-8.160649775395886,-6.1182449743903575,-0.2904552929613855,-4.751793255382648,-5.879585558033952,4.1326113002437666,7.532582597988064,5.170016481730786,10.231249460931133,13.294619950375784,9.181868337129437,9.01060566159627,5.599823146665498,-9.54523939817116,-16.764081642848993,-6.387544404431689,5.107162269033313,13.441858179764155,22.481259232672567,20.799995670511272,9.30236995405455,7.121982791343081,10.138839121706923,3.8852415928907442,1.5304093638437497,12.93537163739552,22.122112996693858,25.064573073011065,29.02162935739107,23.414650875512073,8.23406673044172,6.016897387233,14.363363207285227,12.49633269270301,6.184552360226483,4.403577389406456,-1.1109549714092704,-2.0342843842709804,12.47982231071855,23.191627062647964,18.850092913229766,13.674058764962304,7.323480869611609,-6.422332648812353,-11.632878671967793,-4.052552358432287,-1.5981520011419352,-2.0575408108906394,6.004337245899496,11.358370386639688,8.841707825519054,10.257048927116823,9.523077006872473,-3.4843557234123423,-12.066793067145806,-5.25097703856081,3.4406043360543905,12.442719870379124,27.060066347386382,30.751919602472498,17.545022615047653,7.360090761150571,4.035978017652647,-0.30691951848819166,4.104216338386459,17.137756419515483,18.308822076691555,7.900897335607885,1.3280010747503321,-4.4874086913334645,-9.808351403804215,-2.9538559722213575,5.770458413762601,-0.46841408551480024,-11.564482572739465,-17.601902951854793,-24.000512815759365,-23.247121843923416,-7.29517487624008,6.432224244895439,8.261951876095319,12.208035242662737,17.114295181640767,13.364959928869656,12.802787699495262,17.999613463436308,13.103857126403426,5.347602457834574,9.187405445325602,11.316870502009202,4.171521745907143,0.0331720707434357,-5.798256497587976,-21.87235313522499,-32.96032193736731,-33.462595584031405,-37.14251635837878,-38.32880349808987,-25.8699324625035,-15.046763765858852,-14.014134521020138,-9.397451590086261,-5.049379741116711,-10.168504221840207,-9.3825778161059,2.3220123333494582,7.682271601770967,9.331345815281862,19.50753275624665,27.171955757663348,26.671983133860998,30.022229386267306,29.994012542586024,14.213454602540672,-0.23104303175948093,-1.8219186444638105,-3.981197153028585,-4.978624219184903,3.2273340764631637,5.855675574151277,1.3449432274575495,7.8698631850541805,16.322644677480817,10.57741406666489,6.350655168358422,13.978832970410915,24.57014650873043,46.644409231709446,87.5133905445827,127.21872365571237,157.44370618285572,190.20423059760412,216.4251817830763,221.37954153476255,217.57108389344876,211.26837080776826,192.04998394803656,170.7779305854687,158.7151461883689,136.7307243481591,98.05301659630027,60.465976199006256,23.133714004003803,-18.21296290409998,-44.21530640966969,-53.084560927288116,-67.7568048158325,-86.6848328440903,-98.43109028707437,-115.2579757384652,-137.85527323540578,-149.06271802970866,-154.38351841968532,-163.4082757337349,-164.6798943659747,-160.16296219510465,-166.1694112368246,-174.50568571174747,-171.83121024192403,-168.897559117264,-169.43487307770823,-162.2093491450203,-155.1705202158427,-156.91798351280963,-148.84733561058718,-128.37991192822474,-118.7334848771554,-115.96296821447498,-107.88670111852018,-110.8168876589317,-123.94872606691949,-123.09199782059622,-112.89400557519821,-108.10967936022517,-98.79393146648836,-85.20153643515533,-84.34581942269516,-86.98254063684865,-75.15748785786424,-58.62314052228231,-44.656885617434156,-25.022487956249243,-9.398078531942355,-10.67099597671125,-15.64696547331226,-15.250785615162059,-16.547471276248814,-12.24084715693158,3.3701394003948613,12.831101564164685,13.060197825436823,20.006026792723418,27.95963028240549,27.170324807508216,29.42074850397497,32.29520120631631,19.899197811450954,4.799603634231178,5.3555291623677235,13.31364343570166,23.191193234079652,38.69643907450872,44.97446445812435,32.83226286618394,23.184735790082463,26.7463671255617,30.43429950756685,34.81245577108608,48.45896193400396,62.47481396636366,72.44249171517063,84.50915762972616,85.6227531788891,65.5770636937174,47.99966391927309,47.96870229548629,53.7620514641224,65.47176399881793,82.50459296144075,84.19592622131745,70.28186720362098,61.494500047611794,56.86849918914753,50.17761306475619,52.3068333586394,57.90894078290502,48.895773035392864,36.26588246739294,36.572362111004,40.232488175647646,43.920543371656365,54.32856412742139,58.01927990011272,49.00273871353405,49.09098271207457,60.88405574393063,63.80140633625548,61.227535351406274,63.53225501303698,60.52136228178749,55.23525580145181,60.511697478986896,60.65878400396123,44.00498797892142,33.9253121427119,40.67604998902537,46.38779890877287,48.068212807660046,48.571681044130074,35.45064658726209,16.12158033005654,14.709716513092305,23.046527157972164,21.77502626651311,19.566824571415804,20.168463476784286,13.660697143037645,13.134978401528087,27.987832687483458,36.839472012157444,34.729267823648186,37.692270948905424,39.5279081378859,32.81882622302949,29.719607216643332,25.24147267191222,6.15190932272586,-9.987770746463248,-4.851372774852587,10.477396356962641,26.5841431215381,42.478314632387836,42.84058360859252,22.6716718658659,4.9395631195332825,-1.5754498125530254,-8.730374910280187,-12.20575370305854,-7.796563002174962,-8.052919298894576,-7.89049063549514,6.012547903711581,19.105616566864697,17.80613031279672,12.628087312657188,3.7845021271050903,-17.760625090723494,-37.72083953904035,-43.592659692365466,-46.40024429282669,-43.14983230962152,-22.081696328435555,-2.104583035043955,0.04863279944632981,-2.7525198144140335,-8.454784045615273,-23.18288262666879,-30.11420935428177,-23.859757756501857,-25.89810322799796,-37.39585003118227,-42.34952209478078,-45.09794331000356,-48.575353437032504,-40.133303751212864,-28.10681694449805,-29.689773505164936,-30.731672059573853,-18.34222890971077,-8.251658418639353,-5.22255485281523,0.0635521140874693,-1.6822732697073872,-14.687350728232964,-19.333019188460934,-15.149386921687334,-19.722480121378457,-23.800767194255947,-17.156291481692946,-15.303789005176991,-16.6169723140463,-6.6695665163750455,-0.4015727104137947,-9.92238881227484,-18.61206583511312,-23.593700705536072,-34.36612062752103,-35.7895272397198,-19.031266640146836,-6.838729692711956,-6.3444825178144955,-2.9625116123188246,-4.632486769128387,-20.174145076966276,-31.2753115629972,-34.98241989790583,-44.86751823311997,-47.72773616822482,-32.784482154858395,-19.959721615412917,-15.378662980586068,-8.413429394430805,-8.355536810132387,-17.639633828851334,-14.352864064539544,1.3051999633893887,8.779188574673269,11.394869517414353,14.454750815377176,3.9481649130547196,-12.582458703240318,-14.591458615195549,-12.418499594640124,-17.74679321017168,-19.37891578513545,-20.732114938920176,-32.96566850084764,-38.59477933821055,-25.85220782962778-14.86065964399221,-11.765430612135887,-4.876238988316235,-1.624235260593474,-3.3224536159552427,7.9416448137028475,21.611033528890648,12.45892547315734,-7.627956052163118,-19.268999946933775,-27.45579926298852,-28.358186648451866,-13.194959569213012,-0.7072082720500679,-2.7448298572886376,-1.1565721776405806,5.625736451573863,2.979699576550617,0.9355436789760849,7.59205905748458,6.5504151061301945,-2.6039580767067663,-5.701488675408065,-10.892952334043965,-22.382293774705886,-21.779567914134372,-11.82328907649291,-10.085661874239348,-7.342006643678606,3.435334301623545,5.56016565470591,-0.23999784204642616,-0.6974587519056606,-5.975821428681335,-17.678912291738108,-12.51729682152731,6.687930805292155,16.425937933381864,18.456867433690277,17.461938206276486,4.002206069451876,-8.98768189150879,-2.859129256496927,4.294436214598954,-3.274416173111518,-10.829045045527787,-16.96973866957073,-29.673864843518857,-33.8199412508335,-26.118576122445248,-26.424740351187044,-29.141278513578396,-17.575947660135146,-6.094897365777177,-5.2131177616806,-1.3248133784460792,1.9373556653846498,-6.457217815115102,-9.60360512118875,0.7764575071159836,4.518086765199874,1.1517972050942877,5.453897051210135,7.446353524923213,1.899634837114942,4.322121722922107,7.897549061601353,-3.1273031137514806,-13.343313084933182,-10.587927265025407,-8.153685146796443,-6.325626740780862,1.4173196774765953,0.4361962541310611,-9.546161044617692,-4.470547836629363,10.728708664598768,12.593672065789258,8.503379374201547,8.712320170099842,4.035021945924742,3.397174980759222,18.250890239557382,26.10840783329069,16.587814622412182,12.732052199961009,15.373089375565634,9.803795088859403,9.21742397803667,20.03119429151508,22.49785636617264,16.0303028153306,11.058840090177156,-3.285323399075974,-23.086451829491086,-20.770771899458865,0.017695746169972715,12.54539309917102,15.291735903747105,13.324342202838785,2.056817638295984,-4.070275557393513,8.41717001925226,17.989102023934763,10.296216626352523,3.5096869121873118,2.2328768322822494,-2.79011978825325,-1.2233639076238056,7.263712757701479,2.880916493484517,-6.391813418722256,0.3221946467237422,10.789571991800436,13.539759444279676,20.12208132715015,23.124560835497036,9.877748403526358,-0.6726113073165199,2.395833709392728,3.2169696200723443,3.2627075051915635,13.632141940031163,20.938927345273413,18.946769983204526,23.648948314003622,30.73223000189374,25.656524355900714,20.289326147797894,21.527673830510416,15.752208134795584,8.894151926293492,14.303765678229862,18.072782111737613,12.25088468229769,12.016001176103927,16.167366787221226,14.820806865159575,19.34988496886524,29.88289737989029,26.285564334618115,14.928292950397982,13.456371294772087,9.837913355258522,-1.2882138771378235,-2.3783874241910246,0.36647902076136707,-7.121061336985839,-10.14536387573095,-6.044200386297081,-12.273351297877678,-17.022995335573867,-1.7836821351212464,15.675780725436464,19.97786462012243,20.714926762694432,14.827976911960887,-2.702360910376436,-10.931114225594126,-3.1776951256632655,-0.06873167979286843,-1.7720088087052805,4.841437798884581,11.303199064034006,12.343973712799038,16.63410401713596,14.189899715797969,-4.75597914682999,-18.803624118196606,-15.383690932349527,-8.324071062427654,0.8235157333688692,13.403657762454534,12.267984614789581,-1.3717065167950526,-5.141294637011651,-1.3996524720216774,-3.289671957819859,-2.013666181427278,4.00781115831235,0.11197214654600796,-7.235617815512076,-4.4276287169362565,-3.8573333741239133,-11.978936119846372,-13.430983786926262,-10.880370967918243,-15.315173412946576,-13.43151580870724,-0.0960239565023624,7.908955029528756,11.030560803381764,17.716722729110266,17.1402328003776,8.524969834361457,7.098637765069344,6.2194724993465,-6.09291129465617,-15.279571450809925,-12.983004942108058,-10.180940164999388,-2.3746798167044254,14.239883370509329,19.540464252010874,10.398080479357994,5.835335310604384,3.8726797191500797,-3.8162241919328785,-4.754882775544569,1.98905947623921,0.6461556939387934,-1.4291494014717723,7.889610597891478,14.326190853015767,11.483333403662627,10.7350821614238,6.280289670325414,-8.604800578557352,-16.604692934811478,-14.005803454973421,-18.452935712827404,-24.38679105427387,-17.120662895609748,-8.221398169104337,-5.749941257586669,-1.060816629931965,-1.753706325081075,-14.22713949242772,-17.08230735175632,-3.957910036035412,3.259117953566608,0.8116741200930444,-1.5187700853327732,-7.901080244696333,-13.560357194077863,-3.3705921485567885,11.347939760829847,12.815523693887922,12.120946912916986,15.151509471792068,10.114062079119254,5.131873233700837,9.419408840805149,6.733700474765991,-3.949559650344784,-4.595697445510043,-2.5162613122677344,-9.141363037909246,-10.280418598991137,-4.616222681520199,-7.590925062786787,-10.200795299250018,-2.052924235060511,0.5448734219348419,-3.61741300229677,2.4033000421204194,9.171078489799884,4.598679709420938,3.2622307425098183,6.431908291102702,-0.3352372477984371,-6.411013797712051,-0.37908431971014345,2.6783791525074023,0.900316681876669,8.413109221034567,14.209323409403861,5.358773525663821,-2.254836226655934,-3.747547953504183,-14.530573237707905,-27.648151488903412,-29.62039043464996,-28.940179197496224,-24.95724646977185,-8.376983527201553,3.83673628927109,-3.5432919781204206,-12.314431480748755,-10.881199168668854,-10.771583207072986,-10.006509565062483,-2.945476328542521,-1.9629327590336476,-5.0527739015503865,3.328209092024887,10.814814148599654,1.435510086513625,-8.154882862287542,-8.718069775600128,-14.396340035538467,-20.375008719356035,-15.264101149201007,-11.75572776653949,-12.907885969140056,-6.217404292035743,-4.868361457125308,-23.052867135871665,-38.61010762429737,-36.91648779785271,-31.091378300082752,-21.626272879290465,-7.778672416962674,-9.212624029010756,-23.95858517194623,-26.693904562912028,-17.713303247144786,-8.65200672665448,4.880999863710894,15.48439663582453,7.787443826077183,-5.3120778842942,-6.326536734258761,-3.8089357215626984,-2.0819168603454066,5.861656401866927,8.296245072914443,-2.3757276321176306,-7.454724507351045,-2.369110238957365,-1.4746347481628708,0.23656518491610562,8.713726976892096,8.623112863395386,1.6880476379085667,5.814658336745463,11.621098355271622,7.096337567155182,6.592527326082767,9.92282294515487,2.6308852543514227,-1.6533423469161623,8.261019478891761,13.69494499413749,11.089856334963951,13.571036432892678,11.733150714042056,0.07868905403640358,-1.3447286177561226,7.1732149877720435,5.987615892663767,3.6784262666907654,12.499321877345585,16.987114024419533,13.778497120255103,14.71909003589473,8.473782516578215,-9.387140727004784,-13.286385695173113,-0.8361340721622073,4.99363636281602,7.146974376550685,15.666681527693962,19.10781005861287,17.391129734549644,22.376626409317005,23.737537739734307,13.159794024554735,9.269971327105207,17.925124145626633,22.555147734729836,22.522881311887776,22.89242169328822,14.184781200518172,2.65036950259602,6.083181883479609,15.351939689896462,18.58206780045311,25.71764272097871,32.66725424299133,25.467780332117318,15.879393056113713,12.060041473882137,-0.31437849967436104,-15.73593178629925,-15.442390890592943,-9.062913196744784,-7.719940788625201,-0.07088525893650965,8.115695570612882,-0.5218627735764674,-11.498413305889313,-8.105762782713692,-1.1052047149794806,8.289099287772089,25.708907533059275,29.549796917884812,7.957279792923365,-13.036208570449412,-18.32296906159545,-15.139644946480999,-1.1270073569362742,16.24268849857164,12.953178667424474,-4.853008396096402,-10.981457809826127,-7.7269687111888725,-3.6263162784906253,8.565575451465918,19.23269715635957813.354326229808963,3.304145063823218,-1.6790591820364507,-12.608294494207268,-23.608900472199174,-18.10593756805557,-4.88414681671062,5.028905691395395,16.79934927265727,20.585349648744042,3.303770854333675,-16.74841004335179,-21.203101424109352,-17.388454829391705,-6.718961346845264,12.25957388453731,18.292384238855757,3.936525801634222,-6.873026471652707,-9.499843069489408,-17.053361010098527,-18.463103204845353,-8.131933509876486,-6.865263532673544,-12.274979729298705,-5.834760006045451,-1.6712418599076164,-11.076895047753009,-13.269353115441916,-5.2962625590071895,-3.5546512087119013,-1.7673632791471943,4.308119432593527,-1.601440014348912,-13.349219504189788,-9.542804273602211,-0.3716329052407228,-1.7708899870436274,-4.40522554356147,-7.819162783779531,-18.313200497913424,-18.325979273273838,-2.4995136695490903,5.847357879858862,4.782588457493498,7.861482503328967,4.041489886214801,-9.774524518709745,-11.069834730506901,-1.3629733911914181,2.144738396037286,8.307150578358508,18.485211081788496,12.844450114170465,-1.3306772922266523,-4.842219033667693,-7.76938563093001,-13.866014957425648,-6.031678272905043,9.072123302867132,14.65884832124365,19.49219625553785,26.874729432539596,22.21457029067559,9.798111011663178,1.9673410303368692,-8.443845935123987,-19.69406870114657,-15.631590451912798,-5.287897641515427,-8.374958384505812,-17.431312813450976,-22.24305729519879,-28.444660757478037,-28.639696241608092,-14.35884632207146,-4.964380408794655,-9.804179334146205,-9.987697700523253,-4.729428092740024,-6.495630957224237,-4.5741164353283335,4.316326981040774,3.00613473608194,-2.9612881383908176,-0.9852910838854023,-5.645092737456659,-21.17093691601946,-29.063260587573083,-29.641203736648016,-31.303834957456793,-23.174071002729505,-6.18447870882669,0.2994554084041329,-0.5996883886451336,4.4765109878789975,5.97961559467258,-0.48605618328973055,-1.3366064609415338,-0.42766100209784397,-7.54351297737636,-9.236473649553853,-1.1750730684282145,0.8094111466186991,1.3943291257184525,12.671910577798045,23.06987074041538,30.083922437614895,48.057634180060006,69.00089903835348,80.62309458021656,99.19514411226753,132.17122454933693,159.8888129306048,178.23678952904814,193.51072427285095,190.54103159438085,167.17168684398905,147.23370118285365,129.44089067304532,97.62376004505956,65.7523648927638,47.05672419384439,29.96368590498345,13.662002570237679,2.7147046395465644,-19.552890790816463,-56.194902381037465,-82.21691726449355,-93.25218499304995,-105.27875738923598,-116.5282967104792,-124.85171959861556,-138.33314938696208,-145.98453445405517,-135.9374071691046,-125.80189819564194,-128.8834699405761,-134.3822937808366,-138.45087127299797,-142.01176074270717,-133.30968838643236,-116.51956691673155,-112.60804290914008,-117.04406551017962,-115.46266372697227,-116.11463050342067,-120.85174540488326,-117.33636894122972,-112.7469268451162,-115.95562957892044,-110.7197366658525,-91.85761742307346,-75.3961313106386,-59.17499662080316,-38.47166830808828,-33.797172132423114,-48.60076822914807,-56.769287920583686,-51.580473747184854,-41.1401286824959,-20.556521766496928,1.0596682707835106,3.542175521949217,-1.9004524583852973,2.9181813713912623,5.856881078766412,-0.4788355975047658,-1.9366173180406012,0.19270997995650418,-1.1395597821084142,6.804280607558999,21.498074801559966,22.860640407729857,20.85830426186029,33.28541683477406,44.90794379686942,45.48352541093618,48.316291558452335,50.71295606896338,45.88560031226157,50.86639755138614,66.21894084453086,66.79004696476477,55.083745192562276,50.420186841517804,47.38784493533393,45.60900653571137,59.295824791679294,73.88648293138952,68.3198467633195,55.71943212980451,46.70632803374873,33.910878654969984,29.3262267432185,45.348828119233026,62.29553034858437,68.90408317701464,77.44911237983807,80.42441142105329,65.37497188820782,50.281429064084925,46.660090177040615,43.96428252215071,47.44855398836702,61.49736925020008,64.33757489484873,51.05829712386695,42.90933877662671,41.827689657150685,39.753121505911324,44.979632672993446,52.21761822995566,43.906306204105555,32.3795102973556,34.26735903643221,36.16017401763857,33.40041082527396,38.177746460752346,41.4442225297506,36.06736078186388,41.06710179788479,56.89832304556593,62.92183245710872,62.00110058080344,60.045205831015494,42.93660546662811,17.08382990435849,8.16252247465095,13.917255659846134,20.34166460207495,31.349165695752138,38.781450974010156,25.548645540337283,9.498483449111076,12.669928173714629,19.956239834278126,19.648662683235415,18.77374013708527,9.754949580131537,-9.39720452776222,-15.511017580621576,-5.563324850630729,-1.7491139143328,-2.449988647807247,4.945958180412848,10.220723975986406,9.258917232931813,11.1853988048497,6.035094856279567,-12.005745499713269,-21.6596564537843,-16.930072995249198,-12.470207945029442,-5.006056308311372,8.4833484211187,10.331503851963939,-0.20863492369406877,-4.856831004042579,-5.832591389596308,-10.610899382375784,-8.942729738064553,-6.059453818749547,-20.587334836193023,-40.031997737855434,-42.789769839777094,-35.411824146499676,-23.19130382239853,-1.8025211026262191,10.895167323274693,0.3164074276672544,-13.24979983727193,-17.178374909026196,-22.083366616728473,-23.056254550374863,-15.517461731719987,-18.10360708692175,-30.37823892373028,-29.599447131494443,-20.356629275774917,-19.475658845784267,-18.6788191804098,-13.873534747285639,-15.813207928314041,-14.619732114229091,-1.2731635317844994,2.7467084872189345,-10.339756698844276,-21.745343434709135,-28.108891180636736,-30.84247632201974,-18.756513212019208,-1.8835579771705078,-2.110556383704143,-10.302684143110572,-12.419437569629892,-18.471390017596296,-28.188719027076704,-30.12448445299156,-33.921496566905596,-42.92197360189029,-36.881842570977746,-19.561525239412656,-15.768954115394855,-22.17610203071651,-26.21975599184158,-32.90838387477217,-35.42257180173237,-21.188840187141768,-6.893941623704221,-7.633585049825207,-7.320067714916279,-0.6657517300457165,-2.9211283619324497,-10.240787754674324,-15.843093666538296,-30.360158804875823,-43.29030697453972,-32.676938577715966,-14.0710005180132,-9.62431258205342,-11.516399847962251,-15.995430725789996,-26.605955565961153,-26.6251324676485,-10.755411070832723,-3.173756799347094,-8.175678358889249,-7.09678325449558,-3.648129047977242,-6.722359067646588,-4.8455198020953265,-1.264331019404759,-11.622545785311289,-22.76932183828972,-20.111710502527224,-17.641059555705276,-18.436218974912983,-10.332912127557638,-4.2813002417181805,-10.21858313205847,-11.224999761390007,-5.571043294285758,-9.168529694247757,-13.30097315530666,-7.662166208995979,-4.596259907858389,-2.442757769707979,8.322249174401914,10.572668892235445,-5.338912832184738,-17.582828186076632,-15.83783912793543,-9.62381649885823,2.701705760866932,17.403095532098604,12.687533512895214,-7.819989581611912,-17.899026376061677,-18.954893158370133,-20.825589251944535,-13.093067434562524,0.054711012412901994,2.4534241215730397,3.4664773579283166,11.524048189255577,12.163722644436817,8.067998801023563,15.343370327759516,20.75020750155275,9.163820995842482,-5.438580729424026,-16.156623688939682,-26.161917514592105,-21.33153711133405,-0.7763071827062733,8.452055781048356,0.12069075406200902,-7.188011675724922,-10.756356565982543,-11.926169799550056,-1.3088147614552232,11.511361415991454,9.429979528012971,3.519333520309755,4.7478038111274605,2.017167026899167,-1.8053861216342135,6.485968075539401,16.88566324447248,19.684956378641857,22.292598391755533,18.827960004884734,0.8632153573631847,-12.251973335502631,-8.737109091119967,-7.120282393862414,-12.199425808995397,-11.276667600781241,-8.392508748632345-5.372452778374868,8.707368581398534,20.721299513234005,9.546734038885846,-9.658320850687769,-16.34844935761779,-16.262334677064132,-9.282024407838117,10.820237511362611,25.390654008753156,19.96281819819773,10.771898153727456,3.4588989994405237,-11.735864854829888,-18.84836113349851,-4.657146408606504,10.286445659961256,17.778984483926056,26.221271173972408,23.618275206513225,7.522438896947536,0.5738377023054171,3.711576087081267,1.0838364085950292,-0.9703093674714355,4.298157092344225,6.062584114448068,8.854983913345492,24.925469369702256,39.606719838295184,39.71068002724151,35.93456263089241,28.31991991295247,10.883872240549922,0.9427833501148937,7.9214482209687445,14.889338513060006,17.455371104702902,24.158686014528453,25.270611041457,15.35391175535706,10.810664362956185,9.893467784850998,-4.2404817364277205,-20.05315628026582,-21.399899938573753,-16.725649900141246,-5.464941847452084,19.92200783366619,37.840150468763696,30.230269430326196,13.567358024039805,-2.9888876628090175,-24.37865440866056,-34.68754709464747,-24.718962387328993,-15.675703249500177,-13.560679902263605,-6.556191487084842,-4.405253215517092,-12.94132003031508,-14.731412353227205,-10.60824718413215,-13.882633364362958,-12.327466210836679,3.636743636921529,17.926712483652416,25.663570926446155,33.4855073689671,29.983169229138895,13.240759820910467,6.00469178336095,11.06827340211837,13.601124015284942,17.701756482393368,23.09891264369739,13.54927385702668,-3.3723353200466297,-7.918551101049621,-6.449771891278643,-4.313700100712,8.18579175723518,18.41701295663842,8.898306742399592,-4.681338687312995,-9.042427985617548,-14.534295191664139,-16.381445598086458,-4.337063022851642,3.522161221144624,-0.4572120097886132,4.370479330252868,15.04585020817587,12.942638981501723,8.354410789476498,10.35367065522601,7.373333877245775,5.826036183563761,16.278610734523518,20.485754393389627,10.741531634251334,6.585010766090767,8.928235058861457,3.1957367486918877,-6.068390351779758,-14.356003364243477,-28.437290140566777,-35.61917881345637,-19.839429313111175,1.1461222274910448,8.313689788423051,10.102491848804402,8.770162590362851,-1.867832561805573,-7.456034879616535,-0.28908204625076905,1.9890888770999253,-0.559860712018643,6.632527526892934,12.4537065691316,8.254503471806252,8.836238701552828,12.485497806269123,7.237036716965007,3.2551098702448646,3.307676807333105,-8.531393022598017,-24.145811302346786,-22.12113796573231,-9.971791036021823,0.04564919202835327,12.16042236279596,16.903556577507903,4.359767445855088,-4.816777652140569,1.6367614186646735,6.5984706884061195,7.346113870532118,13.334558678686097,14.230589666161158,7.432842303785094,8.755603500308991,12.33164049739496,4.076122627179801,-3.1088376640245388,-1.8865141065446605,-6.520864904356614,-12.31545359619688,-6.395905256348951,-2.21668206394201,-6.456902093092108,-4.598203011226041,-1.6762771789023487,-8.014859359892146,-6.3054400851943235,7.381163890981604,8.221748634409513,-4.0325274867388075,-9.23910040395636,-9.489154979004832,-6.254846888189786,10.849324026791804,23.872139346755585,9.791308642294819,-12.372363998023143,-21.846767748176227,-27.62993831597835,-29.77635708252166,-21.134594995799493,-15.45010737784264,-15.825285066971905,-6.265337883069871,4.24450946465198,-0.5786537067475175,-5.166005952921674,1.3857475109098996,6.441358241634957,11.221102386744404,18.818320016587816,11.51429892732035,-8.557102572807016,-15.314490169593773,-10.263271772288867,-9.999193925230678,-6.811685760002942,2.279516852583062,1.0791444212141927,-5.549128715382301,-2.2611644347182365,1.9226686593422506,3.1175124643702485,13.326519375224965,21.25960624078957,10.60788353965393,-3.2364032662651945,-7.069565627313319,-8.010005173455548,-2.773104632165861,9.275687902247231,8.95627669270232,-4.072935553986917,-9.071186637262455,-8.579777609610625,-14.922845614448494,-16.85598271534281,-8.957897816661399,-4.213876097361116,2.8451487299797753,19.42573464867554,23.216274745523496,8.32718649412824,-0.003076818185130281,-1.0366368066922431,-8.571881715495591,-12.41716487967976,-11.307218396100687,-19.570871788149866,-25.447770275132896,-15.392829019532822,-7.5293932850582905,-8.295705755085795,-0.685166193969406,10.374202977785966,11.094965911001971,8.279870394743565,2.357499575461687,-12.576097579017746,-20.238323386331103,-10.620538320431471,-4.149147279775667,-10.72703776535846,-16.812361682157515,-21.347852451857417,-26.981467708455575,-19.93017345385573,-4.017415577464661,-1.1404208204190274,-6.366754459213377,-6.951743674392512,-13.523407997478122,-23.262167855276463,-15.80342034673814,0.5373022735304156,7.734403383918195,14.887159407847857,24.042871884597456,19.643486486119542,10.324399153990377,11.120608501955703,9.562618338532754,3.5751661649487265,10.741503994427049,20.992090886403595,14.48581611338352,2.694507569461786,-4.4742488594906265,-14.125419703886188,-16.738391111881302,-4.565424866023932,1.6321036878976583,-7.953439360192546,-17.922604657811338,-25.701572832017114,-33.212178761550454,-25.46685204031502,-5.493677232076687,4.527833208897587,7.734058446755777,13.966993032219802,11.851457429495309,3.966552970543432,5.669018012265797,6.705285282317266,-0.6060631559857161,2.018512769904679,12.389063098472908,9.072263420439214,1.2628329409558035,4.804391626392468,7.863654962639745,7.971478963493125,15.934501619935086,16.250761793078492,-3.701501693921875,-19.50262286211431,-17.042431363512605,-8.862906549168596,6.08579245231102,26.31120167304873,27.82237385911307,9.880828069096099,-1.8806403137849064,-4.820216750747396,-6.4584338130012755,2.758017435141004,17.175926891389466,16.805862169293164,10.830974659382013,14.728569767385729,15.174278305156783,9.103102807844335,14.3610794813247,24.950697184292814,27.164280871203157,29.826089237599938,29.202899051980452,8.950609302108024,-15.723733086993994,-22.505008939414655,-19.136225552493492,-11.969074246693571,3.8610333330385496,13.555477427813603,5.751672316263022,-1.0330200628405286,0.2322145029623659,-1.0146066118386607,6.5635772609536,28.188488221707885,37.54263639445989,28.502358878590847,19.989767397196104,8.80222955535355,-8.863867550756892,-15.300392733482145,-13.539723631762762,-20.0790268822518,-19.844436817682922,-1.2570210419615213,10.031080373711463,2.855672027434931,-6.579317058003455,-18.718531398751978,-32.58583584941451,-26.569972160651307,-6.018085036018116,1.0326595459721433,-1.8397208419691535,-1.3333757396313208,-6.998115051914766,-14.744462247014958,-6.617293003385039,6.079004511965156,7.370614424205681,8.31295584166484,10.227684867385264,2.6070096403955816,-0.9533737736079507,8.182394507421634,10.791242708701585,3.893860159758752,2.400835634990804,-0.14837720006888422,-9.785852033162179,-11.41879266265586,-6.516536273719763,-8.209763666198162,-3.649373211105614,14.666990228396362,24.142127307602465,20.270125420639573,21.588267606446227,24.380644983941778,21.008236772073577,22.432160427620104,21.636915216272172,1.8790761778586944,-20.91211244337942,-27.369187137198143,-26.93984016690328,-24.215417698987693,-12.698242174963543,-4.238671971015096,-6.135968507739349,-2.8731078638125083,4.1309895024425645,-1.3332733499195717,-9.981746380201324,-9.819907827005796,-10.939312109896376,-11.201951734921627,0.3848014213094766,8.636137516407587,2.3838906723747884,-1.2520361469364067,1.4151887815937707,-2.7443113831316595,-5.316686626328934,3.145219891778278,6.901837759303685,2.0758860308589053,2.559525222717519,1.4184335645758805,-8.665338098665355,-11.50950360453388,-7.403733762575294,-11.934814132407029,-15.85640838825712,-9.76875345998566,-6.79528157308639-7.193151873178271,-1.0223719494314571,0.5065919358179479,-8.709589199362288,-11.294633695392648,-5.157200708646474,-3.7774634470732793,-0.9907235215134915,7.612265506863448,5.190275636078054,-6.472333497263476,-7.0459716202128835,-1.787810647259836,-2.7668358657280563,-0.4861746398393556,1.9200361897726064,-9.619704001037428,-20.411496670765374,-17.0408137633883,-14.8493321245119,-15.675921450429527,-6.580381130304657,2.506452343888923,1.9524799950156058,3.794798705454035,5.811577914847416,-4.987486677765046,-14.004718459944087,-6.739805407367498,1.9293712057651677,6.424545623560171,14.856720813935274,13.702218340950104,-4.206147191894557,-15.820060407645197,-14.62701766647919,-13.758010465021098,-5.141048944825522,13.811948824930807,18.48813377381304,4.995013839868626,-6.224130965367428,-12.044084436794131,-11.942639087736682,5.764102603614689,26.76899840635508,22.927935672102297,3.816328537440547,-7.72701817938592,-14.765311218056134,-15.605541537299462,-0.909356881481842,11.624607676041423,8.827787334867686,8.149297215926794,10.476022386537078,-0.6416996156259245,-14.199774803612119,-16.344249970416367,-17.404793159049,-16.79827213794431,-3.7879207346534347,7.779519558797853,5.424134676897791,3.7348363500612325,5.296052616880035,-1.8181828209071922,-5.7344315829436665,2.7603156894431082,7.445735576783214,9.205307951373886,20.761979950011906,27.588535401116154,20.442277542258285,17.24831317279925,19.281556332061342,15.334995763409102,18.684425727436523,36.08061416445658,49.77611318714634,62.75810067429761,90.55957109232867,120.47270315043872,142.85422646426056,169.71658095362108,193.52145668343886,198.62092345723076,196.57842879004568,192.48900424042452,169.99193228346775,135.3988076620077,108.88590124858503,84.06269356633811,53.81081248820422,28.17603684854383,-2.124788405070136,-49.80275222193888,-90.45558026896988,-104.40223761295266,-108.8256367952312,-114.56671868114327,-120.47108402079301,-139.8213944843908,-171.8439789915908,-191.3861931919823,-196.9127049468064,-205.18623661941456,-206.8998242436114,-192.57869558509182,-177.5252332914692,-164.37955713553137,-144.84938524959242,-129.38830560839608,-119.9523477362298,-99.54127327135427,-76.95548127607435,-75.7972077765116,-85.42121578395026,-88.1212978668704,-89.11191224642886,-81.76134580317544,-58.38024579359173,-45.39143643904149,-56.28581010328533,-67.29632358412535,-71.54166866910452,-76.41818586940046,-66.9637419118323,-41.198499747337195,-24.712460859225036,-19.895905064864913,-13.577464153256486,-16.224959706640465,-29.198929222629456,-29.865983219406722,-18.697509402137655,-9.829292185025173,6.688646515267072,31.838997634248635,43.89599528352359,44.523611105615274,48.61839086905041,48.094894709229955,40.4256765671467,40.36729935417699,42.27209777441324,33.73498055631005,30.174928475697875,40.725873636495564,47.87991244954311,48.611382069088386,51.38283936589351,45.95655863057662,33.002436254945074,33.616573157534276,43.96310207641113,46.68937796286503,50.27723520849581,60.16903565009507,61.26246448209537,56.388520775946816,58.868511929654325,58.905244547138274,52.3122720763215,54.64964566356423,61.06488869206619,57.250132402987205,54.27025746672668,57.618300842712706,53.13564296623041,45.006073330768636,44.11353917856529,38.78200835759276,28.375690031029528,33.54707998354156,50.141984214101655,58.34278109710667,62.069249723024136,62.54626149724312,45.83671370809372,26.130462106485417,28.883699330015062,42.49094448649909,51.584239169855095,64.26652672380492,71.50128984135347,56.22717092807811,36.03188351811109,27.914168110483697,19.81048307471773,14.288735817253421,23.643459614401404,30.906560580755304,26.102929370330017,24.753453345686246,22.849255934556556,10.481618040016853,4.98603186356239,12.7324217514005,16.522614848152923,16.879510773733706,21.6741450170798,19.78877572402687,11.414386422759986,12.628685776139587,17.022533926525835,11.62709907874233,7.950054587978915,11.406797899742148,8.614021714741288,3.3913105219520485,6.350483353798608,5.318626486968623,-2.7043757217010516,-1.1669790321622737,2.6016775592703048,-6.9539323131350415,-15.75549830698402,-15.675461792478401,-19.609596289012742,-20.343019690358016,-7.784422396781435,-3.1036295698264476,-14.17085000419201,-17.95147757213576,-13.192759611813965,-14.409473193200537,-12.705666004626082,-4.227539259378283,-2.8054348492591994,-1.1555520055372854,12.426350580970414,20.67451785828066,15.257592040323736,12.210146723251503,9.277146764295416,-3.8587312572966113,-13.663931394747838,-15.060502867154911,-20.42571602334925,-20.924680934829347,-8.705443661126301,-6.112240140798116,-17.8921008533868,-20.86342620329162,-16.19437346772755,-16.495644813227287,-11.20711627527646,-0.7356672981652781,-3.1226995973234066,-10.493574194397043,-8.203828349032392,-8.797103188103076,-15.764530096747782,-13.35792769099746,-7.1288061350882685,-9.601850369196486,-11.106004275818808,-10.206735195392547,-18.071949216892595,-22.668501511093137,-12.129511119846978,-4.306231255372082,-8.122335590682011,-12.784515189371838,-21.85234842535127,-36.49714515139988,-38.181593337980225,-28.43675089748858,-28.170712181272037,-32.50183007423111,-28.827383007890607,-28.63892954737736,-34.00285736542415,-29.789127391744543,-22.09722245559843,-21.94366777783195,-16.970099273991185,-5.187369659421966,-4.239125776344266,-10.093625329440394,-8.15212019622971,-7.17298346961956,-9.852765274519395,-0.5079480481559671,12.910666719338815,10.315289077880749,-0.9933720635573251,-12.294439432965344,-27.26795933169412,-31.31915478993619,-14.679037228450728,-0.44785569296999794,1.2270721132686047,6.297916068383534,10.646406127853309,2.29072127114002,-7.198452932735425,-15.342400605928153,-33.59032248643034,-46.43288301194882,-36.6599448873247,-22.432321865970735,-14.755736103580823,-3.190427736570268,1.9545990868596612,-10.259695670652896,-22.363630100824466,-28.395837412991916,-39.294829772315545,-44.84165053457633,-33.79763279683864,-20.364667567479554,-11.111311518712508,0.5491619523509081,2.8942628196305242,-11.301217437918242,-21.188365098343933,-18.878659061214822,-18.367340565157658,-14.978422922829036,-1.5433568132730215,4.387555222684704,0.41914588227504135,2.544261521204782,0.5352616255654259,-14.280733607569735,-19.43884518116783,-10.341950347435413,-6.1208164553012185,-3.3928776446137707,4.53506322720229,3.202343643775217,-4.413542822739288,-1.0854619266999022,1.1848533895979023,-11.135281329492173,-20.045252544099323,-16.823531727691453,-13.546643148110135,-5.491680752746754,11.647921513305137,18.554010719043283,13.146268189737754,14.255959476168137,15.160164958146302,2.9306277056384453,-6.243746979502566,-4.763166841570576,-6.0108262057317825,-4.316445005650923,6.089383012749487,5.452790677539522,-6.02772261663153,-5.128545560382573,2.9307383539707916,3.3605341771776027,6.566577581632772,12.24710041236435,5.252377275805348,-1.1320130598596256,7.270922317762965,12.74786897530414,10.76569708152648,16.21533631250754,21.039495776457336,14.22782205455013,8.539225451480489,6.209558031431831,-4.865533214013766,-13.43826665060455,-6.997360381952338,-2.406418269358581,-5.529740907520328,-1.53815011845165,2.9715377630702045,0.12236749114347001,6.937429782055322,21.14309248803999,20.881451760438214,13.99319188554321,13.554498449326225,4.969803265467208,-10.83971412124443,-11.6519844596884,-3.637644602270691,-1.0935064703771857,8.693470648328955,24.29992842453496,24.010205661873286,14.766753230959937,11.478861374674107,4.128145257957381,-2.998810006378404,8.340010412414317,23.851180065771096,24.51156993650632,20.019642896895775,13.074033381280685,-1.7925199939466978-7.767443113490852,4.008874375269174,14.168630149567676,18.100208623770705,28.491428528380148,36.24315927690871,31.51126213036656,29.438164330782396,32.33713499160935,25.163995672038162,14.853992696245708,12.006771361588138,5.703332516667235,-3.102538904114353,-0.268846394090394,5.229974051365242,0.873570376743303,-3.7075399305562833,-6.0156368828452065,-14.63579122385455,-20.04290185667899,-14.21888999216214,-9.973728373980096,-6.903038929308344,5.8472339683747,15.69395331151253,13.960965060154264,13.277446304120136,9.904235998564689,-5.1047802205624455,-13.497293863521165,-6.200471316035148,-2.023153175088207,-2.7945512507661543,3.552810288615412,5.705014517422867,-3.529652184325647,-7.368953794884451,-5.573464929348534,-11.03534422551696,-12.293346676712076,-0.007494301517970037,7.563329526773118,5.072259678252046,7.704425047133863,11.29105974224035,7.917908801526321,10.362714538185035,16.756705396391126,10.062565674270894,-0.3394659731605243,-0.3667866333742611,-1.8141990632785774,-6.551721666442142,-2.020013052151467,1.3769095653423007,-4.449160987724782,-2.1831686479727503,6.908405378362239,4.444747048052081,-1.682074825697928,-0.9898899330418146,-3.2984209075217397,-3.2220782642205092,10.67694332005599,20.96825585713277,16.49769523267807,14.193029785785972,15.56455803542461,6.688614825947836,-4.219787173485751,-8.827330948978336,-18.434599517470808,-26.817539697659164,-16.993249442656612,-1.6943773789247456,3.543737490192064,7.969530854419279,12.011574942233882,5.498347869196821,-0.4194535637875185,3.3505034040714214,2.833868832834323,-2.507865464030906,0.7180465369899793,4.414952368691933,0.7796274754071637,3.640307584748238,10.343305596515068,3.726943433872225,-7.041690887659403,-11.231801186095543,-20.0669633859401,-27.36033394647102,-15.759616095350488,0.15904314523897334,5.690981008288612,15.19023307149158,26.243828978729532,21.167069919150094,13.287898201903555,15.203456727948073,10.905673217902383,2.9927943835502795,6.793359119678665,6.207217492500787,-8.468506947563405,-15.27194576653259,-11.669710991009007,-12.514179800756084,-8.945779408875572,2.953534124568065,3.8403244356834674,-4.401006606858051,-1.9643989352291256,5.559136452853048,6.984129066992546,10.047211753010346,8.089904386224177,-12.821990054195737,-32.47853016640392,-29.970716459309482,-17.123118893103747,-1.4367094580275959,17.402734143200092,21.58553716825911,7.411538493538393,0.5297185186735655,6.291843206412138,7.584620778916982,7.066041334618387,8.121331962519214,-3.6029030943597564,-20.1637177919282,-20.323856805404297,-13.926446539028206,-12.907684897189842,-6.540622503229065,0.9185376714256668,-3.1771649216288615,-5.685090031065958,1.2398169392792595,2.083432170124394,-2.0008513408032504,2.307947457635928,7.021059314661389,6.920210472071078,13.045967315150865,16.425671400383084,2.7522892002725587,-9.135898732672135,-4.231830406049256,1.4566516028011838,1.8717052958886995,2.3051579718482422,-8.757972044000356,-27.025882622571864,-24.64021194711342,-5.929690623050327,4.4830372108793926,9.48846960421632,12.683100099673316,3.803079333216918,-6.537849552001047,-3.4267027198578788,0.5173949234381702,-2.925426076948144,-0.6510450928499123,5.053146943065674,2.85516219431711,5.260571777616258,17.544706009810437,18.14970525248869,3.8099444926574484,-9.502755759564577,-23.115123954211924,-34.09216331861487,-24.869685979734335,-6.121333696687887,-1.492141770828899,-1.4168143321269506,4.061049620846701,2.4016085217699827,0.06764033618562859,10.558849222798298,20.344356670988816,24.000494027329882,32.21636036200981,32.29989203061528,12.684761034035855,-3.5858326190534426,-4.21922751587968,-7.278946691980887,-13.934237568179059,-11.989398691866523,-10.876826754984332,-14.180534396562097,-8.904294066070536,-7.8734280844014375,-26.070791049426205,-35.532270237041516,-17.953239157011524,0.8465321005287132,8.109024757969246,12.73730878395949,7.327139583350487,-5.26037950401334,-1.756403596876655,9.105992462886695,4.170781929510835,-0.4899595502382996,9.337914519608647,13.557171592549253,7.219339113644534,2.9361862852444176,-5.229277862544802,-15.705403292891168,-8.720979462477015,6.920050658163566,8.517176543695747,7.10315911200655,11.894476845238367,6.795414099326042,-4.575314472685671,-8.49199211760894,-14.748602937462403,-22.13451643008517,-12.724228529072938,2.097541558031205,2.245666463034427,0.3286265796571239,6.393181910672371,7.764058162119117,7.354720648672254,12.672968309604759,7.788653017704745,-6.771909185545963,-6.404060171637268,3.6515636566039347,2.0023529265739457,-2.8750795289316797,-2.0420049409765686,-5.272252448467664,-5.710200256906848,5.457039659493692,7.908303187900868,-6.194231040960448,-12.863019977877794,-6.88611124026669,-2.767336799217714,3.3947446548902587,11.180625543571269,3.66252023520634,-9.937632740223622,-8.646261083171499,-2.6355141524221883,-0.5451322112366996,7.818417375659335,11.302408572360308,-3.7298011028271185,-16.381248666185385,-14.313027294614821,-12.716776532543063,-8.489110601869422,6.746139745187429,14.116593717848986,8.913121081616955,11.43553587559723,16.266521792376484,6.5061635631673305,-3.638817344749148,-3.5766317776548266,-8.35182113858239,-15.30029251411994,-10.602508823610155,-6.1386629092277545,-7.019765932906164,2.7382249804656835,14.364980529546054,8.336691151474318,-2.6139589361429323,-5.102488998294351,-7.1247394978373535,-3.605964959099726,11.406864104784264,17.516525844385754,9.057486701943912,6.400525040644735,8.092838742863107,0.919810743460586,-6.095967281790714,-9.728359022283838,-21.387173317480496,-28.70225768299072,-14.59532674591738,3.1575124819786637,8.02926040946592,7.690341131478367,-0.5844683596140499,-18.400657800341534,-23.02410677829927,-9.857252273065068,-2.8044924141702445,-4.106721025714061,0.8135810588807524,7.3805012461838615,13.12688527013932,25.52919669327997,28.51416188158916,8.345215519573987,-10.610681171532557,-12.717426131251464,-11.812831382445019,-7.715070779931148,3.901742756762451,5.3614246714155565,-5.115903024957049,-7.770407065007566,-7.778564295553597,-16.561324467776945,-16.845463246770056,-3.8588300921280174,2.8360932742756972,5.26014755561321,11.925007766292435,8.829551706119796,-3.640216414872182,-6.012283457234258,-2.140516493068981,-2.986261774747584,2.3781894219412374,13.190277927761047,10.838638310239759,0.9922339377711289,-1.3784786935989342,-4.607790537979113,-10.618748137855283,-6.361137798862896,-0.6563197263766325,-6.434176699292131,-8.284324989010244,0.42220004981407033,3.977826275979243,6.189077041251127,16.368689912533277,18.79509623276034,9.693375727739802,7.390388403304701,8.675200906829708,2.456855077475549,1.2376151917661202,6.4604567338771455,0.8697704946393179,-8.70990871983219,-7.483738694250846,-6.511172456099814,-10.6328262431912,-5.703955143780625,3.188838719130494,4.137555364849286,8.648515872340514,17.228121331060276,10.961902916178335,-3.4494140014661654,-8.494627162213172,-12.173970261030739,-16.50517563352813,-7.322265356568741,4.883079669108735,4.471657538621621,5.653981300696925,12.503520376027982,8.081755499312045,0.16166732280964213,2.5623181749806676,0.7269729561625213,-8.902943151647836,-8.538057821751119,-3.159365402103499,-4.449924260347106,1.4588374565768296,14.80546738701711,12.408048075263649,-0.2652320469118896,-3.4870639067085496,-4.099246901014045,-2.719161412838567,12.696194652332672,25.691738796133613,19.40665574170179,11.349893862774318,9.912392794046811,3.2955081691108754,-1.724841992827135,1.9244186750947214,-0.20551369469908365,-7.152741363980581,-1.9971602303849625,7.126900837276744,5.7667893208394174.614451970440399,7.417146357231151,2.144845172193121,-2.0881323538827257,5.944861646894847,10.008281340954746,5.448675311875668,8.678432793271076,14.145650390357853,9.09906368997981,5.404503336925621,7.781171607858471,4.41410600497078,3.5664472935970633,13.916531698548466,14.311842310472489,-2.093963259788394,-12.722180228906533,-14.453997863032988,-16.12489443314993,-8.417642051276763,4.33221078857612,2.4476537576520174,-6.128733890383101,-7.103933646452541,-12.650183122137008,-26.040219485702895,-30.85632610262724,-28.758438072284484,-27.40756810200252,-16.426061371790347,0.7694083731933103,5.12308786365983,1.9237020501347384,3.3811492088725856,0.4854357364401334,-5.092755852897391,1.7797152986812814,10.519620055713391,5.610118366986008,-1.5635687018674111,-5.330675337397958,-13.662892728140818,-14.963138685106347,-0.11818036278803401,10.345393421663534,6.4660003298063184,1.8952753972691092,-3.335790356095571,-12.01798832971084,-9.866708374916719,0.5797031261805219,0.4843319611262966,-3.148126893258564,2.7318875128974414,5.11901240301762,0.5946695183363244,3.2401231653848552,4.760577324344304,-3.96903410700346,-6.416239628958428,-2.7208520910763694,-10.073093114007143,-16.002759703023237,-5.257920615365995,5.204366818961562,9.042757886276867,17.34478351357196,17.1459091106141,0.13587421896883178,-9.406932425657264,-3.877696120529747,-1.150667313577142,-0.8769532452398597,1.7547713313227158,-5.653715334382983,-17.046205231629916,-9.806023255561755,6.982793536952911,10.613708288085878,7.4044866172615365,6.017308332653123,0.011712480644628709,-2.4541812366925497,4.79202186780528,2.5782666356835984,-9.381825439878261,-6.166551564781718,8.973786914398925,17.251209095191374,21.300491167417185,19.754649635214744,5.876577285671875,-2.251493430315069,5.900851612345211,9.472831522214731,3.906453181448474,5.487191197201847,7.045407883063576,-2.335093154950566,-9.465474646746951,-12.023674586092186,-19.11743276527193,-16.66236945848268,1.4052278101716933,11.41017661680187,10.523231520950013,17.465255525486977,25.732465093132845,23.76883128829713,20.31790761497485,13.511339225706301,-3.6294092990312503,-9.94213381793936,9.930300816043125,37.4580397329766,64.55162942403108,99.08447122522992,128.05146596865166,144.08328456895902,164.19901217294301,184.71627141311234,187.82131221451402,184.3631604660377,184.39323440605392,172.47738772574723,148.21503717595914,125.329567498527,96.59244043260603,60.25690872951006,36.05062113932587,21.80080538147089,-1.2544641278103246,-26.497665288225285,-43.870161386232894,-63.84502879733452,-85.72801930358331,-99.02458222628364,-114.70505547960482,-138.03561535091808,-149.09734152867736,-147.24357964410848,-151.84125316892602,-159.23192789112662,-161.33012926555116,-168.82430346070402,-178.260119741503,-175.24777141814033,-169.8778778558672,-171.64067378850558,-166.3384937097058,-154.26117858455098,-152.59698283597206,-155.22079100582357,-149.97533040087603,-145.0465237624324,-137.66601821112877,-116.31822029227651,-98.37040294394491,-100.35621274136702,-106.01298818086346,-105.93071883663158,-106.57128487310716,-96.65090894421117,-71.37403588689568,-54.800379548823145,-52.739840083458006,-45.85416166818595,-36.92517253448731,-35.91634276411382,-30.825531871382452,-22.220430678823135,-24.369113850731125,-24.819807520178028,-10.690611853785994,1.839560321057665,6.852365441493908,15.34003020374577,20.386033411878458,15.222084323717992,14.878843519055929,21.540344725370932,21.347591332274526,22.415773730756634,34.73986372429909,44.13692999212428,49.0787930372845,61.004896727263386,68.4831800730498,64.58507320527164,66.52935838928543,74.37838629636857,73.568756295248,71.54970804041403,75.74236561055883,74.3350991510076,68.18644598156497,68.06880349421526,65.27551957907578,54.090781523812225,49.139868703112,51.73005698455778,49.84430964751676,50.39455544493,60.588398661711544,66.7869934179306,65.5873800598131,66.98762054730207,63.38751884794019,50.47115663289779,46.56144414272639,52.25932927484702,50.47890092463306,49.35092945718427,59.01362817698658,62.30857791328886,56.08462259695881,56.713350903377666,57.64684244184694,51.683206473477696,54.98850095728304,64.6957531384921,61.83543389626659,54.529949448030834,52.714262419391986,44.6189988661694,33.901435854758006,35.373445307961425,39.697053793514925,39.20395384070182,46.13659537593572,55.81422991218873,52.21890264275316,43.802647890990556,39.3222965948599,28.598070047432554,18.295029384978026,24.88025051358587,33.67121359640977,27.557580756639247,19.900082979740247,18.673389046049948,18.20157396252798,27.11784080663138,44.1221431650263,45.7748849445266,33.45354267467424,29.432536421137108,30.95425744886882,28.266274154771942,28.271784131701835,25.933863012034646,12.052204784358418,4.412559741751759,13.137546463799747,19.364296434421707,18.55670447469341,19.61349459328693,13.392804102200964,0.25560377846541105,0.5572368976462507,11.115204913799486,12.942587030276481,9.582728204017064,6.764953058720818,-3.3269179864241796,-12.05575780254701,-6.576174363110198,-2.743722763406871,-11.383482397312767,-17.523413329496215,-19.989036176893975,-25.83676464479714,-21.55864990762818,-6.753071080402294,-3.156213758598127,-8.498918382840426,-9.431587099463531,-15.54944057733563,-27.264089095235516,-27.59580950286776,-22.45295959239467,-24.589727146402883,-21.13310593725659,-8.983019030163703,-7.429262506504266,-12.955561509602653,-10.823134426284264,-10.96983348664215,-16.29091212155271,-12.808407808246276,-10.132339265087461,-22.560393729859413,-33.532164438129925,-30.675472919323752,-24.40672673797014,-14.930290274884243,-0.09758617759087151,1.7143810234903611,-13.128479666065976,-21.238397588991422,-19.726878606254147,-22.060136053861353,-21.648009946855495,-16.58453246718171,-19.967639290542067,-23.121393246384745,-13.003730660486266,-6.221554409262781,-13.666171409401052,-21.843012738613766,-30.58117101665635,-47.050049817601334,-54.99302871135187,-45.54791627345205,-36.791354691049115,-32.50954836210845,-24.73244453527078,-27.101106187422417,-41.924290417075326,-43.49191145066116,-29.727863750369625,-20.47354847509553,-13.863999173870434,-8.578731488971584,-18.783947747308055,-32.33014684641117,-26.6399307028695,-15.058009748006127,-12.09341494416507,-8.23179091076345,-7.764089015352094,-19.17901910488251,-26.526788531790658,-23.32713785473029,-23.967623862172474,-25.81812988017994,-20.02714092673887,-19.59820961056615,-29.07910876012238,-32.010890755666956,-29.454859467273423,-33.89331470041557,-36.721050178737116,-33.22140170568719,-34.66758118258272,-32.855462413342494,-17.647592035667973,-9.319537854050163,-17.04864294315368,-20.929088312920626,-18.243982607618015,-18.700470834394487,-14.049622549491648,-6.68977883065088,-12.119654647252663,-17.153253588357256,-5.065087204016819,4.6221681312098255,-1.9753419257133653,-9.789012648561197,-17.276932485667942,-30.71694888984417,-33.738964024323785,-22.719945762003725,-18.235288874739986,-16.558083364218867,-3.4142407184995314,4.9664976979451065,-1.501851185515084,-6.130442903971001,-7.063813530477521,-10.735415962009482,-4.925860069387344,8.521661852798994,7.777173036967933,-2.151617146555824,-1.8413504708724338,0.7410519357670535,-1.2258125551802463,5.25722042269093,14.498853282835388,15.019876550214153,20.49642402393764,30.132436909435608,21.211379547744443,0.4567528585892662,-8.993670722878008,-10.468684644987917,-10.311930538148196,-1.5844447195899827,4.785615706130921,-3.2510296568079107,-6.674451085555467,3.225042433836094,7.429133562161409,6.2479269686893755,10.127283309041493,7.131790215447898,-3.2657318796526558-2.218110442106023,5.452469200879962,6.815902787373275,11.418453546439947,18.172464841062823,13.181172372473464,9.260087257299817,20.51732665065948,30.298155686557656,28.421312790425798,23.983778281177052,12.911690339466318,-6.611461566028775,-14.090796916218151,-6.573303220606175,-1.2925021427108736,6.470752630687443,22.513297338001305,28.893881589687382,22.804800097521145,19.308325291340566,12.715416332459085,-2.6188247191176686,-7.666588396371603,0.3455113709536941,2.591553427749287,3.2474852272296064,11.927085599535822,13.678543621117608,6.40075024245155,8.438206997958254,14.320735304815797,9.175557209845884,5.093832608423167,8.52143693321603,4.580637515211795,-0.2017955338948696,10.033140992116493,22.02900157247894,25.136913998228653,27.881595827489015,23.23858491539505,4.305121868079251,-6.781185766273897,1.0242411617846185,10.117228058736028,17.93909195511265,30.465506916743184,31.578176421619197,19.31696960400774,14.95004740639401,13.375329523619104,1.0915315704381667,-5.855646486082243,-1.8433130641918276,-2.628565578163907,-1.2770795049398342,11.633360788000957,15.017864414542721,2.0952368137986044,-4.474253653172033,-2.334916921753243,-1.0438987536077122,8.645908936280591,20.81710617074853,12.730976831751331,-5.933666299649225,-12.417448668585513,-13.837967464477586,-16.75563857212061,-9.817001999207328,-0.6828247771728204,-2.772225133290088,-3.4193248115788024,-0.2857214961972927,-10.411113696410556,-23.029474182331228,-17.377070951329948,-3.8952503654154027,7.345604830889248,20.552922231074863,21.688295584098906,3.638538304536981,-7.183597388934714,-1.5366793907938354,1.5928776892321537,3.0553825577453213,9.655781010800776,7.129314504260769,-3.0765482806412128,-1.7877224232515305,2.229622486145605,-5.402611359215476,-7.845817444720209,1.135099706817988,2.951502040261442,0.9369902297937391,6.61103629583201,6.946445459851487,0.7133515778290302,6.625316415443656,19.066908770866547,22.18895723738744,23.560839573895393,24.49994479201824,11.450662176562812,-3.8260358797184777,-1.5917142417633985,8.228971483653304,16.693854064567166,28.325255895086514,29.44090541736559,10.879861713057963,-4.833562965135183,-6.382642738432966,-6.552194609065458,-1.6479392278337393,13.444490473766773,19.393077278907562,13.040258169153958,11.714478464552432,9.1818766298952,-2.731914535382918,-8.216655227418297,-6.978870978326528,-13.590464674393502,-18.029881894135073,-9.501145146504308,-1.3476410131137497,4.058452118284995,15.708354950545525,18.875349104777875,1.6218598484485574,-17.396255922136472,-27.04685318599793,-31.738625520930405,-22.85864063897872,-1.8984196627671555,6.435021285215117,-0.8980370879950148,-4.802705677402481,-6.266819915045418,-10.990758517665075,-6.724473641808397,3.7093464497835718,3.1229039866961728,-0.8481890814930264,2.2859748900171635,-0.24259674996487668,-7.801356409834484,-5.284145686206303,-2.0596290435694384,-8.770326331287297,-10.317423094584717,-4.30227504462069,-6.615870549428412,-10.688285285708119,-4.301122561265673,2.035065756995183,7.136506418086299,20.92895197105822,28.198318807360728,16.976773174020362,6.675938739988938,5.04268375407448,1.4424589951281388,3.5981856155975795,15.96344688957293,19.742694521563195,13.526549582445556,12.103077441259073,7.583201565273642,-5.749646517435586,-10.58872860144595,-7.692236658490213,-12.774540268843413,-15.980975969422946,-8.169771607798765,-6.693253656579744,-14.00015726636965,-13.241419415884353,-9.729244395638203,-12.419885474198654,-8.144281615909138,0.922175357225218,-3.401870648363536,-11.071207067699692,-7.507700878623527,-5.861418536203935,-7.5218124420568335,3.3826801367033617,16.44204816934157,16.335096277747333,13.90153919421443,10.185779524749421,-4.9650834128989025,-15.521484928691924,-7.894556533524415,0.5020265549908882,1.7418996862270855,5.648333318078254,4.0111559658294205,-9.637628436488493,-16.50273050286914,-12.440951052003586,-12.50466419770094,-11.175767864870645,-2.081692315355471,-0.8355971454055183,-6.372638414340865,-2.565827291029862,0.4771517960849623,-7.756703695401185,-11.415869737812045,-8.22075897831618,-10.98641822528781,-9.925563306511064,1.5477554296803477,4.553143026575883,-1.349357689929786,1.2610965012245798,3.897101935749283,-2.686841206551111,-2.8101574130752494,2.674107025589694,-2.0863311684213666,-6.635404727769611,-0.946398102875611,-1.2734911893263887,-8.512445243891701,-6.256798863948756,-2.5337404915504704,-7.518567379022859,-7.243971264773474,-2.9115265474684624,-10.822365749020738,-19.55002657517237,-15.564024762008824,-11.806910814139156,-9.111141382102801,4.123767543459142,14.047068747445357,8.826605746894268,4.02980220335011,2.0766385311540576,-7.96394594712074,-12.692768792758013,-1.4519042413595074,9.054790116390949,14.347788600721733,23.86076489553271,25.71295204686456,13.634854861507453,8.386971659764564,13.175184694415863,12.363649541621285,10.564143538434209,10.840778865626358,-0.10099728549847509,-12.274149148131883,-5.979811142244065,5.582407719625452,7.275905258870699,7.015507457423572,1.8645484268879136,-14.295471953329798,-20.71262389983804,-7.340490014821973,4.475501214057627,8.582846377556747,14.279102822691922,12.55404594795594,2.1374193017881766,2.7918372253297825,11.819763288229067,10.331880925991324,6.060815600475742,8.666364330627273,5.120382623246287,-1.9242403672953996,3.4326004913899126,10.27034447530594,7.233805898540417,8.119261698857883,11.55935192894913,1.821055139303839,-9.359145470211113,-9.295864139403687,-12.12584316555275,-17.912497541949026,-11.662556323606918,-3.532929302537525,-3.50870324770083,1.7964832842706528,9.232233323577855,4.2584537114342815,-0.3589733732501703,4.209270915356591,1.4327130471530376,-7.127497231691631,-6.604002139574433,-6.0823050564727605,-10.052514847523197,-2.8314956286323243,8.910791269186577,6.259999861203669,-1.094145758735458,-3.6353275851933673,-11.501659344251376,-16.359877703500153,-3.806453168750196,8.751745822818059,7.717281243936165,6.285105816586499,3.909566902182347,-7.361825877608784,-11.28670049661378,-1.7425220622740074,1.6139504786507977,-2.3785866286074864,-0.5187424813986496,-1.2302072954129013,-10.195064268485599,-12.579410077770508,-10.78554363766715,-18.64650808013167,-23.967424786051225,-16.749102396453935,-11.720755033047809,-9.429796478366683,1.7462494445468622,9.931610497243526,5.622913942597329,3.2887235161084982,2.6808296891546646,-8.213684144138092,-15.309105701401656,-8.063326648429182,-4.272776996917923,-6.4675885430667135,-1.395141335102192,1.0254498351000318,-5.913822682970527,-6.491519242477008,-3.6680915439444886,-11.272750964403233,-16.40942765063474,-10.216114183249898,-7.909624143464185,-8.630163248672298,0.12464319202246887,7.78072641652888,7.391787956086727,12.629611495242095,18.54289170897015,10.28938297541789,1.7240648235639737,4.1416630807609796,3.7844930131261716,1.9437429520027805,9.269348605574667,11.75328498748921,3.4476012851577,2.3032039416356334,5.291885942549009,-2.11077424755561,-7.3871656427279175,-2.5226861523374966,-1.1927536819235665,0.811940163314702,13.322175309437986,19.97362768173388,13.895202936255686,11.240681214002683,10.351907432143493,1.606814622915702,-1.160808421695017,8.681757788273375,15.111554394474211,17.763670849694815,24.521727071752952,22.009746332687296,7.320266124647275,-0.8460706005923981,-4.081005635607027,-13.136132040832868,-15.295041770053027,-6.768185005590852,-4.536352485582153,-4.49237587616063,5.013654646053946,9.709612645443643,4.194518942902243,4.128778025575605,5.296096017255336,-2.275902959100599,-2.9145997961865318,8.41726578672142,13.121919409802121,12.84027245852404419.346038048951854,19.71482180377538,8.340529551215282,2.202896380360767,-0.622610102601537,-11.344330429211665,-16.897625980965795,-12.306854287882793,-14.18626291057715,-18.120014958349735,-10.381342745710556,-4.045430703526129,-6.585443654410193,-4.709105081915684,-2.3722348063976764,-8.101549673190236,-7.207691459676509,3.2704133460674663,5.967878983174826,5.024147941579823,12.864600053514334,17.688387480319374,14.217473241996471,14.857831284835697,13.196032975849713,0.5937183451918271,-4.728004455694864,2.389040101947193,1.8129132371796857,-4.818191911733429,-3.734910417153614,-3.558261603078213,-5.818661504475747,3.1014686451480338,11.25376362569975,1.6157761175885725,-8.988785231699882,-8.643409333689927,-9.830692059655457,-8.579744813622296,4.261282106116926,12.648811559075721,9.626317245961303,10.48147696842869,12.768953840690916,4.840454684033777,-1.2654353474693893,0.9563873577158246,-2.7546539027354884,-7.787974042091634,-1.866385928817902,-0.13276714567159154,-10.687122181944137,-17.42646118826302,-20.47364840800202,-27.041191544801794,-23.39791257527767,-9.183217834278622,-4.6057234421124855,-4.9417250989301404,4.354628213457694,10.401365632013722,6.979979235031074,8.836808115603862,10.035183399385494,-0.593686801751728,-5.882238414711139,0.23949867645098033,0.670292714628868,0.00981780825274936,7.7838395277837025,7.1301819310751995,-3.9257746704632828,-4.092428441802941,4.036137557426137,9.86299544861714,26.919881897117612,58.02604338542429,86.85339531843925,117.33656195447662,156.47254867850762,183.27884940278705,187.88602758772043,187.91344389455628,183.84127976293934,166.11175825252542,147.5139922939763,130.71637516142616,99.74732164711082,64.53663536173383,42.90391148626119,22.978356641385147,-2.5349557635813635,-21.867423497596203,-40.688750018682406,-67.98498974419702,-88.71296110277403,-99.52230813004994,-116.37678222663556,-132.19190970411535,-134.24792186158098,-136.5814654573243,-144.527176293075,-144.5706239634473,-143.15372163931855,-150.27771710269565,-150.59215263400708,-140.6822811858268,-138.40468855832523,-139.3314825022331,-132.01752635255752,-130.6474632547205,-138.24505396446818,-135.43452313016562,-125.10892562244602,-120.53214031769676,-112.17840207682183,-100.08823393437774,-101.77482828240181,-107.59465429335646,-98.68602098716735,-86.20229480451897,-77.9136536835396,-64.10078659184589,-53.844634141080874,-57.25478990761605,-56.649464685497065,-45.166743977300094,-37.80966519692269,-30.551217944203685,-13.923796350319268,-2.9711671916426665,-3.593814635569684,-0.7725008134354312,2.4093665832491524,-2.7917472023590273,-1.3028051654731216,9.708112874543428,12.038619104814668,13.2310731548097,27.316286851347122,36.010386086858844,31.357452441484874,30.818467603981638,30.55062243441182,22.76194730388052,28.000337576300236,48.72717556956988,58.762101431396445,59.070994367385666,63.6063350465508,59.63120337415492,46.43507315395908,45.39418233675032,51.110563917991,49.50931611988969,52.12869728617848,58.948121763198884,53.235570739114884,45.602449707283995,51.509896559971196,56.52284746446453,55.97453426370373,61.88538528540911,62.46925690339313,49.86580914590058,45.26674331953091,50.86512966698755,48.26926660119861,44.357805652237325,49.533216296599896,49.46960259713212,44.222797464496196,51.000095179591106,60.1989393179331,58.61515758944915,60.22100121820844,66.18719573608573,60.616051553313014,52.1509877867979,51.85099887341939,46.09734109567876,35.51445091042653,36.9857972679183,42.03328167837972,39.041957896263035,40.89139414302634,47.300721156182014,42.76451789470838,36.55604997255037,38.97367909518594,35.42689365959164,27.866707459641553,35.21672839405621,46.818481758460194,45.377087828711595,41.78336727768033,39.65549304326795,28.688904794730924,21.58240002919772,28.331750588504686,28.685854630588267,18.145744743242076,16.031892465402088,18.797103754574636,15.813151688589588,18.92315501956618,26.6866605141162,21.53601774156364,11.705434530404524,9.733572160660879,4.32615660847576,-3.504638871865244,2.0188985860642585,11.232344805322038,9.146609918926089,6.971582829671449,8.389220840613428,0.9682228473262224,-6.200078607272418,-2.1474091150460595,-1.8399932282895175,-8.025684184487135,-6.336030931966862,-5.047191777179147,-13.435905915309814,-14.746027598316257,-7.267753536982181,-10.000550242427511,-17.597275850484795,-18.1699623773334,-22.016382807292526,-25.73717225470172,-14.828136940566257,-5.267431022146289,-12.073377875676897,-18.104781206768767,-16.81768951700394,-18.756953705235716,-15.407115591385377,-2.596387971786333,-0.018307666298549408,-7.907353552787191,-9.221576551875154,-12.095583853140067,-23.729268950560833,-27.39721493794087,-24.871461937548343,-30.902940693235212,-31.942697702862244,-18.399751090144733,-9.566315848679011,-8.859707053312599,-4.119095834715437,-5.437741188226568,-17.89261233660371,-21.97130778100658,-16.9538262135117,-18.97196365060959,-20.3818084450792,-13.710561732725498,-14.52990182823513,-22.164863475377096,-20.175325346573377,-15.854924226336085,-19.075310773098742,-18.62810442476868,-16.770883893893846,-26.286559941604736,-32.12435764848626,-21.029227422437025,-10.871167228819289,-8.234312602852182,-2.926984326732474,-4.6127468467240345,-18.410530879645783,-23.545283418203283,-16.781020170023712,-15.748896589262095,-15.724692546230381,-7.083430307212541,-3.557921057569554,-7.3124814357518675,-4.313480072184938,-4.769657443239112,-20.56589450634894,-33.4373974928815,-35.853895589295,-40.69545792924169,-41.42402397250642,-31.417855015127905,-26.11266959664668,-23.426639486245513,-9.192439396842856,2.1417857843782024,-1.0752323896474127,-3.8118207781650293,-5.536574074703959,-15.17533158546358,-16.944519565009774,-4.013824745353212,3.466264982551348,3.7475722013351023,7.984245426798779,4.02176251573042,-11.755835314063384,-17.656699558764814,-13.946696417641114,-18.527907028252123,-24.409718934051117,-24.161779297868947,-30.41921470709301,-36.41904216257694,-24.486325768844214,-7.899103907497993,-0.9307694322195741,5.724156260381064,7.967684142913946,-5.030974887205132,-16.180369656701274,-11.915436177707457,-6.12097701172701,-1.6200739990903856,9.963724781893436,14.61304961661573,4.9486351229335215,0.10730463135847051,0.10143822976868466,-10.90852624325605,-21.874168913654056,-21.595070616279347,-22.912541642107882,-21.897519549778924,-4.032107559055865,11.106169582443513,6.094030365997428,-1.1779236863339875,-5.6995568213244105,-16.605613142971478,-17.52987527780052,-0.9715926873550513,10.332023824014485,12.400185551619476,18.096025696617215,17.125386685544857,3.1543405663928974,-4.680133912887488,-3.655131763214867,-7.490119344757164,-8.26492161935195,-0.9461806253455638,-3.3342108444291805,-12.630629743545894,-10.346441665781661,-5.3882093142889,-6.08576342264708,0.4787067839130912,8.365718800095172,3.7159852184362494,0.5432714960951012,6.3573815968804155,5.113306108145611,-0.9826279867565937,1.2825993923961487,2.531571380503812,-1.122776858695976,4.579416571425412,12.855038067132668,8.689244584881386,4.1617131833924645,7.303084650907928,5.722428069416452,2.938552678255347,9.22529415832205,12.104622338938984,7.984149054296395,14.657506396685147,26.752755267157625,25.324940049702576,17.61689716676023,10.56703837142912,-3.675393132833158,-12.946835992958064,-2.9543235970483486,7.569731831927376,5.536666457107697,3.9584607715674824,0.33953494631238745,-14.20133071117192,-22.04746322725854,-14.364152032090105,-7.0151701424361015,2.2565644188391163,21.945990684798225,31.86760124679615,22.51666472300457,12.969958416380669,3.2144397746240663,-16.410175609415713,-25.883021616267484-13.735807130048247,-1.379062480148125,6.072011338063111,17.646606355119292,17.365944687869007,0.8403014514606744,-6.17125412196804,-3.465715664902051,-8.18454521761111,-8.904800167291228,-1.13187493487658,-4.107573229972475,-12.006295352175238,-8.490761777699856,-5.797168143530204,-8.87081035034702,-2.93382820987518,4.173970441682845,-1.334314556263596,-3.752134291511223,5.567744270808602,9.814325865897715,9.568982152072108,17.13168027766298,20.796131570652605,14.236518458800951,14.132617343668716,18.105888473245685,11.105775985917289,3.9705752171418096,5.531101327094961,2.3207894830271223,-2.2887467170964273,5.561100238889837,13.391320653934452,11.768801201919349,13.784150758555814,15.797467759698058,5.820820979084979,-2.6055713010109933,-2.7760158285735517,-8.612309128858286,-12.910563663132308,-1.4197156727086062,11.67240847249888,18.361193456996602,29.64217696441353,35.51515690181477,23.13827518088212,9.368361787621275,4.622038001041712,1.1888981832578125,6.407246581538684,23.000172391011404,27.949773292985128,15.81866403217774,6.714465631311748,3.0596084442468,-2.083741202946152,-0.31642880701697607,5.804063632496906,1.2745493664753618,-4.518492193448215,2.881001538399325,10.126088041165964,9.785487257445046,15.325059363827089,21.86072214452816,15.315281243614018,6.5325615355198945,3.334822507750728,-4.401829880943038,-9.502827032598603,-0.5344647591468892,7.133178379068645,4.685747404802797,4.985214405839311,5.753666274404085,-2.126562284477248,-6.122476174246515,0.31222287534468673,5.59154739320005,14.651563011689237,34.81450423276656,45.74958394694016,38.342388423325055,28.752318121041085,16.429867614254356,-1.5426445981926395,-6.199467525090072,1.035675464097181,-2.4828135699699283,-10.369358733074883,-7.54537320016063,-4.917749623343155,-4.709698205899989,4.1959955533212305,8.554060360301566,-2.287174635884342,-7.628824695775101,-1.1529996093057329,-0.6046077779433181,-2.3962359477891195,4.7841146763252,9.193402641286866,7.782451899868775,14.381955775124318,20.02996731689322,10.554065102775176,1.7671354952293523,1.8022434147092286,-4.180746726400612,-11.014490397192372,-6.889520282791759,-5.450088076803852,-10.74021584118939,-7.948711087534647,-4.728555692074888,-13.803524782766004,-21.04874270125152,-20.193674441636425,-21.127868023914832,-14.837831609439995,5.032510835470978,16.503908439107555,11.044030580192311,5.640782758929687,1.8985814267808099,-3.4857223361924867,2.9866466320649026,15.221422909476107,10.659525154251865,-2.587804370749258,-8.973435504084984,-18.832067653901802,-31.7826256588268,-31.88218835880576,-28.302869711754052,-33.24981810284405,-32.403569314715405,-24.39308637195266,-26.05513195126094,-28.56106422901317,-18.2171036432929,-9.114022681292138,-6.456678460684497,1.979999787073821,6.632274763528525,-4.984337442408544,-16.02800926085521,-17.556656378767386,-22.90375555456059,-26.48604161015083,-17.312007589064635,-10.439588610311027,-10.028148762179175,-1.5918213985169696,4.546059752444927,-4.108070532573468,-8.3019678927347,-0.7161461672572136,1.96662464150945,3.9948659078188378,12.24882424819288,8.593191342777242,-5.94190235150806,-10.194875812446089,-11.943673067742807,-22.190936927371965,-22.63227289720696,-10.076862914197685,-5.179563750063243,-6.399049314508695,-3.5884914442969604,-5.852809259529183,-10.13866235040052,-1.549817323755133,8.376037416105158,5.309122250443956,2.377989209731235,5.394680400590435,2.2009734685196447,-3.0654322346821066,-3.2200791221787544,-8.274154875262846,-12.77255961879608,-1.298061577476477,11.422215291675165,9.460486292481331,6.080228180215955,5.050687559966357,-3.195216018054911,-5.487635612926351,8.205335022804903,18.50576147755045,18.276924090131853,20.227591095253953,16.255760621677126,-1.3672456849527075,-11.49315645798637,-7.731238615214327,-4.854488033903745,3.102958365987009,19.462066819000338,21.99983916615607,9.53935931169816,3.534302617084505,0.959334129956082,-5.877760668014818,-3.876420684928127,3.2544298847543516,-0.23891771924371952,-2.455930034252602,6.569716593262576,9.663308524948935,2.8853657002252238,1.1249924285074078,1.8993730507208022,-0.5313201255704108,5.651695523018882,18.04717746270836,21.644217880877143,24.65522882431124,32.739629429926254,29.10874822603596,16.69578427765854,13.132109360589144,10.359363011003936,1.0044895706856667,-0.20058417433513365,5.248169314562511,4.188020791136391,8.100522283151697,22.116552298376224,24.343131513544744,14.287812916346168,11.856593623394174,11.819400820856021,4.561038634640985,1.2853475893664716,0.38680516380601127,-10.67771965845658,-18.893319535172978,-12.488794030923227,-7.783644906809283,-9.368863510081463,-5.947700794250638,-6.99280462308233,-17.47488618893124,-15.548671818393434,-0.18107022689664465,6.5756224678376,8.499227337247962,14.464528659234986,10.4219686937854,0.44724918347293663,5.246735969369613,12.806785576722584,5.581128451931099,-1.5306348374054313,-5.068637892045694,-20.242761504754835,-32.582689476043214,-23.48156856011499,-6.390583673385319,10.852874550032876,30.164461961911474,31.107295739352125,5.929300484672013,-14.675568147327553,-14.145316882252118,-4.647314136078983,9.583791547860777,20.252375774413395,8.151446555479112,-14.510170375629306,-17.321113436321752,-4.5651122309308665,4.718071658192684,10.166051320248043,6.22677414558493,-14.28136891907036,-29.79399016236895,-23.633271464342634,-13.66827654128743,-8.43383972406863,3.9782940665241977,16.21826814871697,18.695120817051272,24.835832609063214,32.71001379589155,24.95937466680649,12.427716450599211,8.16911263261291,-1.6179983390669483,-15.859863026931011,-16.006125765323404,-10.175513217738743,-12.702322364505306,-14.684878261024725,-16.816327390706533,-28.101444483162922,-31.085400637475125,-14.031242856133003,1.85589531550314,6.70005964714499,10.344199689396133,7.834743315507009,-1.9571558848065544,-2.1921264069512696,3.5150370178537775,-1.24116786485454,-7.016964539352937,-4.81524445029746,-6.660871732867412,-8.942442324020824,-0.7027090852105684,3.1026994253099733,-3.3707330104545683,-2.5690485570984336,1.1908566902335898,-6.499840988417232,-12.788524641430707,-9.907086213259502,-13.15605769246534,-18.725202969314566,-11.266421550649337,-3.6918765760373766,-7.002630424641686,-6.964552678015538,-4.800560812155007,-13.755498874785637,-20.40921385754167,-12.554243498855232,-5.492572383247004,-4.58751736396072,-0.800354787942068,-2.0026649828826306,-11.832641563512357,-13.41894335317635,-7.870551609309499,-10.746684300746155,-13.824307060089806,-8.091570638751255,-5.333396954641158,-4.499573849691517,4.097233611478668,7.283746241994065,-1.4633960112684692,-4.4512528029694876,-3.1541386259832116,-12.267828694970966,-19.02527391683261,-12.712790325844924,-7.156519284879382,-2.200070133699916,9.549779716154147,10.927877533738698,-4.941679907016492,-15.170422819346227,-13.746468828109252,-13.59069806122838,-8.954955994715359,2.1196460751247725,1.2719178539698306,-8.826552698843283,-10.065085809468199,-8.96120232263998,-12.0747474737643,-6.091822091383872,3.636948322616869,-1.4718496977043398,-11.02195543655801,-9.446755197873198,-5.095985939227718,2.243832463058974,20.247825539576745,31.49109491197596,25.24207418018505,18.962431598589987,14.462297044949544,-1.0431086011505766,-15.878154457714263,-17.37932894932722,-14.870234385705848,-7.07804543524003,10.753858194315427,18.238882578110566,8.318066671585278,3.383844734725942,6.674508087783524,5.624494881034651,7.335966740860469,14.515061610763684,12.295208229148798,5.835431175443907,10.3267276085899,14.256435640124183,9.809067800032508,11.20636792149171213.52430356901342,2.7478932341160176,-5.596671500932203,-0.16693651839883472,3.7284784194080562,5.533525746553848,13.185531903709402,11.958340937816779,0.7788075129511363,1.4794335858667933,8.95164227744183,5.790449624492921,2.489062662154326,6.457705900970969,5.686016258888462,4.19230459295578,11.512772122790745,13.27908560948418,5.401399190686584,7.7899973407544865,17.072795445166474,15.453963786629217,11.255257020439338,10.74213297370845,4.51309388150308,3.3450038946335425,18.621839622701305,29.223310052634414,22.449301086781787,13.897966155457652,4.839696124478001,-10.869719443925044,-15.857300865927145,-5.144711233380838,0.4063495020314633,1.9450689934816694,12.608657093276843,18.933276612471165,14.98018340127344,17.27258216770202,19.289315114156008,5.187053347281497,-9.803182899599857,-11.30833515290251,-8.069013133736608,0.024959963856340917,14.28556175357709,14.127095614774227,-4.89607978014239,-17.57858441469442,-17.434978236886572,-17.303606861418523,-13.977931754417586,-5.026025213799575,-1.9743903164855103,-0.37855994408480703,9.454683008242068,12.316449274175135,0.8956083853548176,-4.990709460287134,-2.118634739248507,-4.141717972690963,-4.3739592133138645,1.2423000666775912,0.07099287045641378,-0.5662703102201927,8.864177905137485,9.211176986650745,-4.761396940745871,-11.655817590510237,-10.483349106941253,-12.08128207728639,-7.76607576469711,2.4786410291992165,2.812663612578496,0.054434798846993315,7.6812215852471235,12.597313324355444,9.121136635264861,13.441973963948122,22.48466115421432,22.09353436703286,19.129926265173058,16.1087659862444,1.6812143620114046,-15.088063983618715,-18.415836923752675,-17.150447184510178,-17.00068483626574,-7.846758989486934,0.8416570992127048,-6.357985777999677,-14.845405286142721,-14.832670652729032,-20.90771640623765,-28.1703889901711,-22.209639378571204,-14.363596929333262,-8.579839405973745,7.469298356899785,19.77463716668643,9.959809442128165,-4.182230666735935,-8.908885585002338,-14.985804064348802,-15.752346165212355,-1.1419206655003267,10.470790171273036,13.868045505143723,27.448795278209932,44.13781816328698,50.43820363693575,64.04555198867213,91.13235061968501,112.88350650000288,131.35684163166468,153.01058245546108,157.15312703545814,136.93011653786408,112.74738449588747,87.42023204651025,53.5279349701307,23.82462272473294,2.0326250672700317,-25.991748848425736,-50.868770132357795,-56.66578381595567,-58.68337615926275,-67.43314639594094,-71.16447865186524,-74.30936681512325,-86.88066297263987,-96.64819019448389,-100.56784949105071,-110.96487301060833,-116.46768804266077,-103.65356747007746,-90.98526109165233,-88.70859383269027,-83.25280370706685,-78.23695513911181,-83.2489403312935,-85.79345328190765,-83.96716903457951,-89.43679217736903,-87.76550303611062,-65.56092052645825,-45.060489958851356,-41.369789199066815,-44.574708625182424,-53.971011131751325,-67.46355826199459,-65.68887878236347,-49.329626313193316,-40.06605288823923,-34.72029739017678,-20.02756500068054,-8.321745593078644,-6.106462963080017,-0.9442192883838316,-0.17021501641329528,-13.187013284804525,-19.169390231586426,-10.325397456552636,-4.025980246166241,4.558788797131499,23.602769364468234,31.039158408141127,19.846656411349564,12.504003389530592,12.27126678602991,11.754639899153482,20.415590103958845,31.42429571168278,23.28494105526169,7.378751019532867,5.686665720833319,9.229143511757096,10.507167175401882,18.65123275508937,23.870794633747586,15.289330230903001,9.790690902700725,13.47354009605916,13.611508276418688,19.540509807772256,40.14888130948782,51.84194903184146,45.05651253908674,39.20832014355031,34.89210233162255,26.94178908557593,31.66926703375112,45.764873932500855,45.771424264284754,37.51920898373882,35.99954219595429,31.459341395126792,23.054383890912263,25.185802833474945,28.42284647700472,20.370981096770148,17.180535926440747,24.673782055336645,28.162253946463224,32.12048581774578,41.83982003568708,41.38243058491511,34.313967200310316,39.16164258862602,44.095903126530516,35.53685493774296,29.91117236399869,31.29562024493361,25.651325326738466,22.049071645260742,27.657315873172468,23.107944044365773,10.597629538057657,12.590770471039201,19.999739545934826,17.885685219547796,19.005734839993256,22.690368799786064,12.251095024085053,-1.0142371540823683,-2.2697295393668333,-3.3385248823073175,-4.743951378905354,6.896130979157515,20.015302301963953,20.8764522645758,20.12485146111741,17.790438917673857,2.394886853976055,-10.292453745936816,-2.2238185309435625,12.366854470885748,20.657208139810127,24.429312032231284,14.756465147929479,-5.444294781190192,-8.061064843952733,9.861365052184894,22.50154188555305,25.871902606225785,28.54213080345159,24.136562726003575,16.964970365023618,20.607136249894523,24.157153569088177,16.540801247830196,11.533550071843896,9.83644309693835,-3.696365953188293,-18.316936444111352,-18.170262458548727,-12.334906170416783,-2.2246908638780436,17.518281686722396,25.880675938114685,10.095591193688989,-7.228212033180034,-15.835718195731223,-25.354435621969095,-25.9413327110693,-12.932105079526178,-9.02345309636914,-14.33758194739467,-6.912211966618314,4.082423426158357,3.6626123202764895,3.593398118017479,1.935292163154961,-13.391030922466447,-24.051510015946,-16.70823277530343,-12.050485389012085,-16.75353520275249,-15.7933213427415,-14.605928343294803,-19.625501574497612,-16.082295444727258,-8.685291358800162,-15.770364437342348,-24.045806508270786,-18.500532915696944,-13.48205459536674,-12.301631110732195,-4.191523058906686,-0.9638102039795813,-10.787363355354472,-16.78482733937727,-18.20435909750127,-27.812832353238957,-33.59295133807723,-25.942921860420004,-21.425142012155586,-22.32505291295592,-16.324193382235798,-13.65526595658187,-21.072707523886137,-21.71311737848405,-16.08949835916055,-18.44407239301656,-19.97347594178227,-13.886984604732959,-14.759052265115974,-21.10224207850737,-17.762740519607092,-11.862090765691462,-11.431937330542814,-7.131618679530142,-4.451316939823466,-16.122597153239763,-27.33325790394336,-22.947296760378137,-14.771284662026082,-9.262072416089925,-3.2801795315048707,-8.969016175667633,-25.781387208117387,-28.366445334369885,-15.686971542615577,-8.796661969870422,-6.486683816144281,-3.398166272212149,-9.432208059137134,-17.912043279314744,-13.613447743460103,-7.320734068038088,-7.579399923854425,-0.42057984130463666,10.755913312617636,9.024129946623784,1.3724320163108115,-4.002828865739827,-14.881637862521075,-21.90241881667118,-9.686450558820386,5.267882638082275,6.827614765793999,5.65801194041384,-0.5518165034822327,-20.394811215523916,-31.643468790632816,-20.498638386198277,-7.275983440354245,1.9820545048641836,16.826298166616017,23.60059198955289,15.081823145251757,11.911404301779264,14.988743761081963,7.629260156906489,-2.074911919486933,-4.098318725546102,-5.896905327567226,-1.7352028113060658,17.192482229219546,31.80668817134092,27.015128827596552,16.819164121612136,7.5504395455498585,-6.048676684918381,-10.64109943209073,-0.4906632545138132,3.7669797177394178,-1.2304384283648173,-2.569151038262242,-10.831162986409867,-30.688995342208656,-36.4784870156089,-21.508159095202984,-4.114387217662654,13.163844543863396,25.693144823073368,16.466243374293676,-1.7969007995972426,-2.8051353557914642,6.358358542327402,12.511497380611011,20.962736313526232,23.111745856928504,6.824513663881817,-8.523948657081835,-9.825466257383194,-14.201219817500546,-20.509354081955568,-11.894250287193563,0.6372788200468178,5.53291874367843,14.391880865643065,21.301475137411355,7.6500679970428065,-12.065222452800455,-16.528821957715895,-14.404626370799296,-10.279704005605671,3.131814359038268811.25514248207074,3.4723152269366597,-1.5997067008108157,0.6051547827386101,-3.0205377818927674,-4.179880193623397,2.8869209936923705,2.5060371441026,-2.815617419844667,-0.010378581395327213,-0.6722475018052787,-11.199662058576386,-14.561720498487865,-8.732452035326148,-3.35427407929256,8.91735243292799,24.254469998750046,19.273040761771938,-0.8809867106370373,-10.79967010312936,-10.25034270520811,-5.1171947328399,10.3436226429214,23.678882294233738,18.464882866754245,9.337707746418092,7.967516218593857,1.3126537270443956,-5.767263831398173,4.4390473086552245,21.122911333398037,30.018966903622623,37.75770410463138,39.5633073623582,25.30249747047011,12.424696351256186,12.609220145132142,9.605327078113767,4.755422939401585,12.397124504265363,19.04078041648129,15.096872581232894,14.585503596336892,15.118929213905886,7.621051130010683,4.522148259513991,5.947859678856869,-7.103492412417475,-25.66916857135126,-26.15806983881393,-15.353493797860779,-4.196147065588825,11.470545466913382,17.80070462117032,1.6728006697820605,-14.340538927567229,-14.141670348559257,-11.884920199966427,-7.209287780951226,10.334855905897207,24.402869042532956,24.370935601423838,25.5517336999731,27.241890239702467,17.689678192060377,8.852089753938962,8.882071721108193,4.489367999158382,-2.139820211979176,0.7384044344040008,3.262400486911877,0.8231101165055148,7.326026552345548,18.153404698315576,17.995088796013416,12.956984325827742,6.566507289772429,-9.719586970952875,-21.894781295917916,-13.406950696672471,-0.39237922165574046,6.01859508509218,15.563821246921165,19.290153995035887,6.41126768591384,-4.713029596359213,-5.545230223720377,-8.833565526492377,-7.931256787194375,6.205871622581708,13.75172455670769,6.156301913106655,1.2250443027890983,-1.4262667472856763,-11.678084560146852,-16.325276603560628,-11.695460124568799,-15.467525168356653,-21.570015299347382,-14.087812806548751,-7.166901949051423,-9.648191745082416,-6.481945203984997,-1.6973677925292874,-8.039684302428027,-11.708001657611186,-6.78798701982005,-8.442330068111485,-8.767706529387612,6.63014974498441,20.114831910082938,19.94170596177373,18.671370111239323,12.400919896515758,-6.1191639131986015,-17.31520403519529,-13.006062716423372,-8.968906351178314,-4.360336028527023,6.481889220969046,7.381639801644478,-2.9559867915525366,-2.7490495342034804,6.00629062790455,9.242102146102958,13.144347994421667,13.888684171142257,-2.950355561960216,-21.73282177264131,-23.941185698763988,-20.828328543667133,-15.899689476266971,-1.0666108708142223,6.9854568601642155,-6.2355445069162245,-22.10920941841817,-26.815408447461774,-26.02179064344223,-14.026135053939916,9.097405249951846,17.092660312786467,5.2930352739948665,-1.1577067052238363,-0.03340402504895468,-1.2000414961415038,2.3214161440760526,3.844525209135621,-11.441216032429939,-26.53954017276304,-23.25977750923049,-16.223406926222346,-13.93910659998894,-6.069043335267767,1.214015879882307,0.5510646312763292,6.57061024716935,17.903178004194725,13.22507544009477,-0.23652806055504438,-2.25034050650925,-0.7758892068276416,-2.8680632965846082,0.8654724182080384,2.1363168602586238,-7.393355452878216,-7.095259591945815,8.52950169455311,16.382912892698613,15.798431658989426,18.950748123984628,15.976548170918218,6.201501503562056,4.255218738768736,1.6350085340568477,-11.232025033123318,-18.362418191082217,-17.337078126511017,-22.748954164720796,-26.091811475030564,-16.098070246825188,-7.481132736321815,-6.492131267132436,-2.7966726008637304,-3.709657256494529,-14.448126988039904,-14.323047358348923,0.3655243409563953,8.681384765077768,10.985631490636411,16.1293237787745,12.63083683834663,1.8815172420839104,3.136525358081931,9.879569193691538,4.966253172677371,-3.0177415256351265,-7.043394251092908,-13.611994126783673,-12.272258121956972,4.638312808206748,15.251068556351807,9.39811087529603,4.065442552797344,2.012210585606598,-2.222041752485521,2.3693733316594554,11.810110496112406,6.2514753314749845,-4.414279131385932,-2.351424053654748,0.6068517777330918,-0.5526460563250044,5.76418563833386,8.118823923139411,-4.696560433082324,-12.839480180931933,-9.02035342017128,-9.348801084503622,-9.18970523097984,1.170664583606376,7.0796915079574205,6.272242344639698,13.348532693998102,18.89116663474162,12.226717485721915,8.817456456331561,12.211742835080905,10.393461764036472,10.995528683875396,20.175165615703428,21.360893354372678,12.698649942992098,9.380568909847947,5.512720210634564,-5.232175935984506,-6.859457143635784,-1.2188513814472959,-6.79311247958924,-14.483898694048321,-9.869877788398089,-2.3395032694732407,6.731122302937635,24.018909406384484,33.759711138333735,26.38781299651187,19.77708950114929,17.919387432422326,8.177229746611953,-2.0134112793847394,-4.057246917554413,-7.377480353028571,-7.6128713390780876,6.054385146241148,17.113388904888843,11.991988298079907,5.370670109089808,0.824786588126473,-12.218454084307734,-20.90792026816482,-14.222580467951087,-9.956021909217833,-12.763203788245844,-9.328543832462032,-7.74544696252681,-14.749533064008725,-12.592800189674179,-1.7631715560937145,-2.4998056985069557,-8.890684023575817,-8.458134947276154,-11.69976844079527,-16.44496185270243,-7.860002844062544,1.0913011558613253,-2.7313102913885023,-5.206656151155648,-5.343634266617435,-14.060771705661024,-17.57395883998086,-7.912728117097077,-4.059987141390175,-6.449892292441552,1.2848019299824092,9.207782627146988,5.403917252493215,1.9078120642056535,-2.1147395790000103,-15.653882426431458,-18.252294599543063,1.8860810615085342,18.153922246262155,17.97303197437509,14.617451920502432,6.3511481157710765,-7.657784518922057,-9.238507885203148,-1.35861975630741,-2.803690094015419,-3.409436053820788,9.121642108987208,17.74679230540245,13.734218442753686,7.692673602976663,-1.726003526135281,-13.467418219085639,-10.168091315206672,2.9118981102679578,3.5854622704453836,-1.836510481629363,-0.6906589528892262,-2.349704118911824,-7.159294859957259,-5.264972132260183,-6.856323539335195,-16.8855388210642,-16.698126466395742,-6.966598839483594,-4.666824452309834,-2.276332595114986,6.9232446972373225,8.736442037975175,6.006611325657358,11.88337150545343,14.110234758036844,4.775907707433339,0.3246486050987665,0.2914193706677123,-8.228338954033543,-13.665114231964134,-9.465726759591554,-11.988766817684096,-17.136975282567285,-9.280626165662323,-1.2756038548270188,-3.0773123871512884,-0.9915374284565701,1.390559625673867,-8.84575858596978,-16.606364584539154,-10.941698340417613,-6.8409567900315125,-4.526476225889866,6.599308789773277,11.506805341128896,0.5192564497401282,-5.874121265846422,-1.9356305053375424,-0.5410318092235976,5.016651990716858,16.827350531224617,15.582731213929268,5.182981495276442,4.117989900558482,3.258497627987845,-3.798357132434701,-2.0594408966232676,3.528948789019815,-1.9974436370980468,-8.01287482896601,-8.428612403444006,-14.819886820993299,-17.319885828207987,-0.479139907688805,17.18632214466134,17.896429348244496,12.95884017115766,6.130090218028413,-7.04493215430029,-11.0633101382065,-1.4261945933613371,1.243546517739658,-2.843731683431019,2.4925352158277563,9.806309542905069,11.140209042893133,15.4792581046954,16.104932729895825,3.138305216625244,-5.338541373554433,0.6235940301706209,4.82540976841662,7.173297563862661,17.42372344102892,22.156773392550058,15.754588296154742,14.846116926512623,15.001064685704584,1.5171213566023019,-8.796017538595537,-2.5812880593089877,3.175167645090954,4.90941396172532,11.297731064878327,9.36883944987932,-4.16285609729971,-6.690435571331654,1.9318185032892168,2.6037039088619016,1.4227286343164536,6.1776995746068614.574379331278411,1.0129359872845216,8.856187682422975,14.817953905797587,9.683410353014802,8.61627009228335,11.056719905159913,5.468190364295719,3.3221124207142485,9.88651221578095,9.594770814841201,6.775942124036183,14.638104657710832,20.499501892129892,18.033511311901037,21.070258298382512,22.106394574796564,6.243793771556127,-10.890499158361408,-16.450454103824743,-20.234828636482526,-17.928687637700158,-0.4875416377618116,13.489114766992797,10.846550931542044,5.7311465414907135,-0.5521487403290669,-17.46265161293727,-28.77793943015355,-22.00812888771136,-12.817252137923948,-4.720157349851059,8.900196017683712,12.801798116976654,3.198909632484291,0.6470914747895434,2.051315528282523,-8.358916488213087,-18.270251437480713,-17.25799191241571,-15.09670378920378,-7.56716696079263,10.312937164791263,16.864513885939576,4.243615536396719,-4.323968849363408,-3.363107594926616,-5.263109874560878,-3.974160562056631,1.316262706488656,-4.833389493799376,-14.530662144230172,-11.579203253843207,-7.635762142602951,-10.402412948221974,-7.1304049915327425,-1.559130934553356,-5.590868595148049,-8.26366156563937,-3.025559591134872,-2.0890751090901296,-3.127736694857304,1.4768436819357902,-1.4299028081648768,-14.275168945446653,-17.587211575673503,-11.947758021538387,-11.471660955932283,-9.55347730414303,-4.3549488954152284,-10.405544542165991,-19.41655872892645,-16.07342576356393,-13.390877111764814,-16.365832021156415,-10.140362213797232,-3.273297049193667,-10.324629414782605,-15.886037971163526,-11.440613154842707,-10.588312803157002,-8.756227503461611,1.9305211168400964,3.9404001197411143,-5.342748936541302,-6.1787285226934765,-2.6710352479196566,-7.208936491791883,-8.412160009553439,-3.278624732302445,-5.481598967324149,-8.42380918893357,-0.580104043238058,5.279011199116935,4.377138603469775,11.88056726527626,25.957536516014965,38.56199913194091,64.50758647557822,108.52153587453263,149.28299186627618,180.24408147777987,205.7794682671251,212.9193316406018,201.95061635497123,192.15039537915624,176.84184260329192,141.29478307184667,99.79508462184734,63.41220070408838,26.56692454352632,-0.5737997424960861,-10.293463259972107,-25.12674222030317,-55.7343213822935,-83.12131723435353,-103.7351432731228,-124.24553561381055,-131.6098903535957,-126.46074047570846,-131.6154925612762,-143.5124192534058,-143.9986155242434,-139.89323852151426,-135.220585173568,-121.83294250296733,-113.81317351393913,-123.19591994278868,-130.84969756679791,-128.57350591530997,-130.84598935055442,-132.12642625035684,-120.14126599876596,-106.9168575543244,-95.68248154479268,-76.90265216116566,-67.83423163026225,-81.82757487000214,-93.77545738487109,-89.13886033424117,-79.74821745605,-62.12142098682886,-33.09535484761642,-13.680490649293882,-10.177160908038644,-8.740314935979708,-13.20500950362659,-27.17135378252401,-29.568892241382514,-13.165918589523653,4.685802096736207,21.236515058135648,38.41189027232374,39.34521932762571,23.23594870705554,12.126360397448106,7.070004322201745,-0.7866525803851947,0.05705760581742414,9.691812013302895,11.138002518293678,12.432317450987195,25.377619269727685,31.973586197734484,26.701408831268104,28.739637757213774,35.508101495197195,35.69660564876,40.07292548261952,47.11809890789827,39.957935376106626,30.096780077228026,34.27580425842154,38.29379515518731,35.3257634277004,39.57579949566097,45.37713036477045,41.82259786370813,42.55540860970075,48.932522068956196,44.244094197350364,37.91781989523961,43.25729995781319,44.93783768535831,40.8194213871488,47.482906088425544,56.02036530643695,55.08090673923748,58.379015556501734,64.7767425245913,59.418856405230315,53.82127282633637,57.92280834482765,56.34849007883912,50.264736733305405,53.68891917042497,52.84277842606606,35.67564194156,20.091903529606093,13.692858576622601,8.634231944116628,15.857351360741914,38.07567459052066,48.529588976581095,42.71497261185089,43.199806536027246,46.843365326672455,39.968862955717285,32.58922233020849,27.67889350739317,14.417555846653308,4.90862515524645,12.156928048466568,17.665988024174297,12.410055475278757,11.680933393085546,12.989083532407829,8.262591468244239,11.149575143644892,21.70734371431067,23.138230913192913,22.29802800906761,27.702101936736536,24.45603868010314,13.934382186742953,14.280126267616673,18.14336378659956,13.46404497629522,11.024692380857449,10.288670480226166,-1.578710022470645,-11.235025003175023,-4.662971330727687,2.124699328247598,2.5572874264740215,7.818111556571674,8.682350983976097,-2.6397733698742405,-7.066817747213397,-2.5552645106404004,-6.49531939446595,-10.170762936291421,-3.3479796879242447,-0.8475953175315349,-2.274607645061361,4.9855854778451985,7.654597315998946,-3.9615622054863513,-11.930166885275007,-11.51607918351075,-13.809556615445343,-12.028847210849122,-2.9532109533985516,-2.8303299779353517,-10.068081481267194,-8.289657325133003,-2.8893502863803366,-3.407970482977732,-3.00579927222061,-4.139723838506107,-15.612103549691655,-23.67746890763622,-16.578982804155164,-10.665531590050755,-14.266018021069684,-16.386320303597746,-20.9030178935692,-31.174795927664125,-29.041301241336022,-16.072888991876034,-15.499730120831401,-22.885478643024985,-23.917738462277136,-27.554403487391383,-32.422289007493106,-24.615258277308843,-17.22096170870809,-23.014771050182517,-25.35419092843051,-21.606551798703325,-26.577691778651502,-30.657185183051283,-23.244218318190903,-17.871634481718786,-15.3926837513094,-4.002949293260654,4.428229397602443,-1.3769194351891203,-5.988666825272911,-5.4265195455036945,-12.19997970794974,-17.425395164500003,-11.298533851316632,-8.092057157920166,-9.86767139722628,-4.0567137778156654,-0.3174255072682508,-8.20444010730838,-13.30259151406772,-14.088850561701786,-21.7090789629665,-25.271729003016567,-18.58683515514896,-18.89567166750689,-24.809380218627023,-20.919084283464443,-16.026178107751477,-16.385267583430153,-8.77039917218133,-0.9958207708707021,-9.951422800021065,-20.81689375781895,-21.06310701313742,-24.067077322889087,-27.587368450978026,-19.163780286853758,-12.030604676789478,-12.814427900350829,-4.728267870214946,4.992648064922654,-3.089286789386658,-14.871217486207271,-16.805337255224586,-19.551920959286246,-18.798551906001578,-6.151737748623235,0.30886569931736707,-5.439722337617642,-3.9539011077836643,2.394492345944089,-1.724328383008011,-6.016589034257492,-3.6337105098498714,-9.107771300089718,-18.149041388398174,-14.585652610227122,-8.234017192388832,-7.943637285327759,-1.1419680823498992,6.973655235023993,0.17665486658752272,-6.209380821705504,1.9972426806370636,7.226926389847311,5.2325636634077135,8.293252170620223,7.539869691721943,-1.2248930565313527,-1.577116591806141,1.824458646859979,-7.2563654814450995,-15.67165869717423,-9.917549003763106,-2.719403349820379,2.4682899466349757,11.5379645560695,10.976732821017704,-2.6345908063206167,-7.969225611414725,-2.933280710087569,-1.4533052449721044,2.3613172731088468,11.062969055898886,9.031660176595238,0.846865285090904,4.888186141295156,12.42492309772317,10.551696811790988,9.245164161843514,7.48526912855925,-5.457380056919214,-13.577669599842327,-5.702032514504881,-1.4780911988259797,-4.691923710907942,-1.1148902266131355,1.622408243301235,-0.8160785201760778,7.226001316654963,19.297406184312916,18.68219630674946,16.997413863899915,19.877028927474367,12.124389333828782,0.24795543700776523,-0.4419332009338022,0.8519463992858443,0.49905286617969535,9.841860251357282,16.651730802858328,2.8678317950349403,-15.41829354116499,-21.22243701394916,-21.279408510165215,-11.416455990932597,13.90119285642892,30.899772529754895,26.3765590577926,18.5395781837886,11.289424799379773-4.040102919042414,-14.022571216695997,-9.67047628021583,-5.152287449868283,-2.1969266264103355,6.027657104056718,6.260283813700067,-5.263760075627432,-8.313368544302833,-2.7724457385808083,-5.683812819331331,-11.469406007804068,-11.599085010591198,-12.848500832265428,-7.096010643344822,12.953279876153294,21.82146396150353,7.204165133138867,-7.169912836738833,-12.826212204828614,-16.56619092392838,-7.924094850527197,9.929291232813219,12.314772096825829,3.246660049175352,2.274622335768969,2.8713150444651903,2.3964376643440253,13.852557744637565,27.008214875561176,25.13633370800408,18.712927859289422,15.579639545537791,7.051674543885518,0.7371470896538574,9.817055304103418,22.277025404950876,27.530437303995402,31.15578301568366,24.94825972366987,2.518982927135288,-12.835190170116478,-7.63475745781689,0.9306545785239124,7.280891768033784,17.32744236216549,19.1458873190049,11.585425820471297,13.441813941199541,20.13046879053978,17.423983611850744,17.083980208186563,23.80586464036184,21.649742807096523,14.705311946248766,15.311111964307607,12.452638987730623,3.503617598249935,2.9533218904631893,3.519412487254615,-4.8118157527240975,-5.1744819553152706,6.101036487998943,11.451365230289124,15.345500299277361,26.225752765819042,26.931169679902162,13.941960284748486,5.743550687633157,-1.7516855750496543,-17.073079729935024,-20.66242574167952,-7.327492795264647,3.1222620001843113,11.95917385058921,24.83916761464877,22.682554004730093,2.1758127508594214,-14.8551633189421,-26.581760448077485,-39.96731705174943,-39.49738855009448,-21.901372860994307,-9.636659690567761,-6.905975734614329,-5.316790472090967,-12.036704143436491,-20.482667857851922,-9.67642290149153,8.885621185505494,10.740280520003456,0.8229748094070168,-10.643624501476424,-20.52400882262474,-12.966681480775051,12.226850475423806,23.468793834234898,12.676523833316647,4.456180614579444,3.7935847561037503,4.546263315608687,13.182493787701794,18.106621087665452,0.9336966880668571,-18.591811684482376,-16.796307418191166,-8.243843928916695,-5.31939464025227,-0.6481974383080389,-4.231914734872831,-23.451217310367202,-34.06656234350445,-28.05116838877217,-25.699356070710135,-24.235408344694424,-12.375485170141854,-5.796855158098278,-8.12560052735598,-2.1097103787769704,2.59942650634815,-7.957211107562962,-13.887416907628491,-7.480296338730354,-7.905362417711963,-11.132183687643396,-4.16299465076224,-0.10293461035550205,0.19737277725298275,15.844687258251481,35.41809300764869,35.66642756168376,27.00446453741511,20.217453058966672,7.365059590916711,0.3265806594822005,12.208746639669737,21.407414654196646,14.979180750012244,8.73058866040815,3.812217031958483,-6.04589825441735,-7.776671857760441,-2.057094161133352,-8.364627493852366,-19.6254124057108,-16.875828251457534,-8.710986525565085,-3.3499879820087317,6.079854896125758,9.782414814217336,0.07475754686345404,-4.071681771147043,1.8316491741838266,0.44193983155284133,-4.186318529536869,-0.27668533716125143,2.64963040291189,2.5125735660857558,8.396460562123828,8.464583413319579,-6.522442259829634,-17.33342738153117,-14.793104430979195,-11.07433845506689,-4.635016863780912,8.228396832164536,12.912993091762477,8.645306829149536,10.406225920084788,10.699022654222643,-1.822489906200536,-13.372014123793933,-17.706091401812593,-23.255321962865338,-21.187974934154376,-6.955535475172022,0.07815476322947879,-1.4092835505024839,5.0684705759716415,10.809114229309417,4.345275813780636,-0.9064021026449351,-1.0302661035588057,-4.434183488347564,-1.028359242435864,13.015585299083726,15.48925555445688,2.271828469012157,-5.160298282102509,-5.5919718786268495,-8.8732226610862,-6.584824659784932,-1.8491522845909167,-10.785709990285513,-20.208404686867155,-14.615967673763102,-11.701140025114722,-17.5304620634024,-16.22669002237627,-13.25334150981104,-15.027244546530952,-5.922590685751997,9.848646057216142,9.912173442686532,0.7580657925965992,-0.4147132163332161,-0.21875094609662815,-0.5654482168707318,8.628801203932852,14.480877035809243,4.378164334196595,-4.026771736562657,-3.3106815735362547,-6.061113599430887,-6.331928127810116,3.3091894140569704,7.581526633362172,4.432709320100824,6.917911416773037,6.286158725602338,-3.7328064616026615,-5.036218338451628,2.7382570737051783,1.8411619441993445,-2.1508756169364336,-0.49974012913076526,-4.829988334926632,-12.382450195162743,-8.052035819049545,-2.758406182341323,-8.587128589740775,-10.526595717719577,-3.948149277513778,-2.1792137865371064,-0.0010145891841320531,9.550698666006152,11.427042747848777,5.424526782809581,8.546264333302862,12.786386429017263,6.613399537050089,2.4643259181691963,1.295195103127914,-8.10064334410384,-14.65633071348076,-8.407970107152504,-3.4124534953479744,-1.1800658335627572,10.937307795933528,20.788094682281326,15.95135513970246,10.836762949228032,6.843922449536938,-7.0737597418290505,-16.118592248888394,-9.12823685393558,-3.7250505346324854,-4.210333926204526,0.11427181493678029,-0.3296524676982695,-8.958222909281625,-6.388002388424476,5.436035758751773,7.892822694620624,7.504907678535217,12.374601523216455,9.362306185490947,1.7862712025919594,6.222461581317608,11.427343119763114,5.296514663505895,1.6205651308630966,1.0721655788165294,-6.462783318441309,-6.2109385767681005,10.794926834088503,22.983083466002057,20.241801028050784,13.977959580923375,4.119414944687721,-7.563035247538227,-4.222015576044081,8.062204778879785,7.361784185440633,1.8652857751032372,6.891020418199822,13.73916742223641,20.85142741320626,33.90870541900246,36.681559760062214,23.183729815704403,14.303710290478975,10.255347229397282,-4.6849272788757865,-18.163597148648936,-15.456304318175931,-7.958974341707604,0.4651483615797072,13.759314579985983,15.652653796274294,2.556282609833352,-0.3484944930140602,8.974785057403007,9.050206114490685,3.320768068559609,1.6179816143206505,-6.345971946615242,-16.11355029306104,-13.414689073319519,-12.514552534603844,-22.777117476560107,-24.429787662876247,-15.867554842892272,-11.972018877954513,-2.9840243594736755,16.557918833294785,26.273748755532434,22.49208661244943,17.16537171934557,4.6094114164894275,-14.61973437288207,-21.023818552277305,-16.39487494789668,-17.422233420466398,-16.948468640063872,-8.734876607775787,-7.510014416497165,-11.310362492465403,-6.0515208348976595,-1.1338326046455618,-4.425333831141728,-3.790501777778749,-2.6507284613885442,-12.581959449832327,-18.73224167008451,-10.01969650391781,-2.0332342550099085,0.898497017850302,7.164794234166745,7.343782153136411,-1.4388041582375966,-1.5740803981694813,3.7549580429915155,-0.9151584499217997,-4.9612507757889865,-1.240973271848277,-4.297903273710833,-11.022400476982732,-7.672003148245233,-4.634167609336615,-8.600100113319318,-5.04416527472844,1.1465940859241615,-5.71917869298426,-10.876193036655485,-2.3239940002111314,2.998737192186194,1.515344262782222,2.770743955144416,-1.2646356492674184,-9.737801282806705,-5.211958491958828,5.1713790670625155,3.448329036227154,0.5018796922344402,7.6286019379636265,13.125405802965433,16.72538192893396,25.68049370475215,25.548786993659157,12.645231364530986,7.853792192927916,8.044033745553733,-5.595148432793291,-20.597498916532153,-23.57344493115945,-26.64391633691403,-26.143420435204842,-10.901588888146332,2.341969727079302,5.379199106468959,12.374727674764138,15.65530739080712,0.8441084600953941,-15.67620137186681,-20.695774064727047,-22.857238330224977,-18.267051407976417,-1.8436821725584656,5.934390913716536,-2.9124832134695784,-7.6910367827391575,-4.392935132360021,-2.870080957391658,4.763594747896882,17.999647508428684,19.33518616504661,13.5122371550058,14.699125178825701,12.3475528766085031.2957762177526484,-3.5161475005589695,-4.293350520220484,-10.77305501200071,-11.949243345765568,-5.9129418612091955,-7.885535640636449,-9.819640921755546,3.8078698597973606,17.082867404664864,16.150450822965947,12.71230950734979,7.832625237800366,-2.877153476826692,-2.7893490433735453,9.81478578945629,10.821218750314163,1.271366825406865,0.6344738552222629,4.477478889216449,6.133596487603953,12.243413932310363,12.186955825754524,-4.646188583731174,-16.147928777089074,-9.676408011250459,-5.467748060285892,-7.2606464935770765,-2.3818074734289887,0.11593587752951265,-3.280594540640829,2.4822399521026206,6.403007505162014,-10.439640726655538,-28.12238447898374,-28.221188217999483,-22.983861341244953,-12.98250182594563,5.553125666629974,11.736528276038886,2.8007163574374596,2.3313621656367967,6.199417581072963,-0.8504588803380972,-5.57437882818693,-2.263896667889502,-4.433794486382437,-4.819848402687056,6.281431535882414,11.58937643625987,6.529643126505749,10.564706071281375,21.99760099678911,26.086124351691122,28.938702934382775,31.709983557206662,20.551820521730885,3.9735439932243706,-2.278850146392137,-7.960037119528532,-16.493309485085764,-14.785435196019677,-9.96713687924533,-13.098399721707077,-12.49178748227699,-6.191406922481265,-6.219003718730493,-5.3305531261014725,3.711099387916629,5.855113987466761,-2.4361322531938225,-6.205558414743774,-7.408701702225558,-13.621086716291131,-12.194535186018928,-1.53293614771707,0.6086365012086337,-1.3955026716355323,5.254153187442543,9.111112545206813,6.481173257986386,10.844084557031307,14.151595941624983,4.069464021869408,-4.552026203840701,-5.73382965001642,-12.655031068571144,-16.119528630741826,-1.6474618006732662,14.737317551901532,20.036309294409815,20.882346803714928,10.544057044274254,-13.310216529759009,-21.634115774154644,-2.6747844218420296,20.06403431054368,40.440080449386045,65.33620700462252,82.94044481508362,96.61277867585463,127.65270702619334,164.75889812770416,185.4986522552331,197.83780541112975,204.17546519890232,190.12413159952084,165.5324002504488,144.49236055172946,114.22320133157457,75.3099331881774,49.5497863778273,33.11685883810173,10.472522724966172,-11.616255017511515,-31.299588357547943,-59.35906026059965,-86.2031088840235,-99.340305335319,-112.38831384225809,-131.3422542466923,-140.1009782920207,-139.2259258844363,-142.11709792045255,-144.00063273173342,-142.83582901894914,-149.86637868201117,-154.4090613205136,-141.07047449758423,-128.4081813553621,-130.3502745015559,-133.78973662336824,-138.92486558867634,-148.9525743934816,-144.16296438019754,-122.51346868422763,-106.72146235288687,-96.38293163268648,-82.84397696208023,-80.32669177992823,-87.02132777348126,-79.72283547054882,-63.40974345326174,-53.30420895546896,-41.956151223805165,-33.8208541249389,-42.79537980636178,-50.65549992931516,-39.97528143398383,-30.10542364389744,-32.27291527355039,-32.9720174640011,-33.40521612867297,-38.027695916805456,-32.10363988881551,-17.002807970502666,-12.042997371872989,-11.389330878138432,0.35847630448185974,13.680970527231203,20.078201184983914,27.393988700568446,31.498539103381127,25.956231753320026,24.731283287194177,30.58158401134038,28.210938129388854,24.744523505753534,34.14841801626295,44.05063074054287,48.08354306226009,56.27047200843794,58.428971709016025,44.73605850109013,34.50498068367699,33.72675580031322,27.24678837366082,24.731431726326583,40.99073344285932,59.7544617736815,68.50262298418667,73.03601930352308,66.48837032921367,46.81407491039998,37.94187263264463,45.928971701506924,49.04615300947346,46.218326620045076,48.758640851115736,50.09175537646204,51.34162066527455,61.71494671343718,68.33633051338191,61.1698703488436,55.61893475699978,57.67359250963728,57.19017050733529,58.05753616341261,63.01034520483833,57.445295246807454,43.51437608816106,37.74610145317853,36.035285965067885,33.76488295126735,39.35358672070099,42.01778171750903,26.66366106498741,10.09088826590175,9.109937483566648,12.456467908741901,15.354992976881583,24.74985274882546,29.632691878015866,24.928267874196685,29.69299256994156,41.90410232819782,39.06259182236959,27.65426283770325,24.0301107349129,22.807065386198005,26.621391103402996,43.011757330142935,50.427692850957115,31.901550114805136,5.778789953282454,-15.416878093216315,-33.28809492362841,-31.369371917637583,-3.755010468138334,21.0661238124921,29.00041976227217,31.035797258505724,23.399688983209806,3.8319027608041503,-6.085517944952191,-1.260235574788131,0.7556439115405715,2.716535776771191,12.533836078648301,15.167541260236865,7.6633149638077045,6.543617672850377,9.956627948999754,11.33199971206836,18.949680186332184,25.567622781575714,16.046904804110223,4.083386670536788,4.094335350841496,3.763961447700156,1.002781065790143,5.970522173918772,6.749472870118979,-2.961556152734137,-5.512097347968927,-4.295663541586993,-16.40518162611971,-28.087633493588143,-24.86594292961923,-20.5985945787105,-18.179566569931644,-7.302819246260486,-0.3894078966925132,-7.239139258052831,-11.083194545308114,-9.26023337520287,-15.259473209554773,-18.902098762871095,-11.127379508950623,-8.727977344990741,-13.117942000563824,-10.732878026081448,-10.81374405397502,-19.489277768431318,-20.426859294855987,-15.700052798723785,-22.035192402883027,-30.825507866388385,-30.95255256433935,-32.051919537113925,-31.64360342964353,-18.576300999041763,-7.736110501412286,-13.218655701554322,-20.291355521346617,-21.700416981879535,-26.56709752888477,-27.04658855726594,-16.765667786432157,-13.281453117447642,-18.26141055204638,-14.016623184699288,-8.071648115832266,-12.984384953978308,-15.244372940683665,-12.67865567228141,-17.875719556886846,-19.25755350946071,-8.473280583329572,-5.804480948378409,-15.206281844236203,-20.025912418178077,-24.525264184831556,-34.430049388779096,-34.05212794684543,-25.218678459383817,-24.27897282190613,-21.07998941197674,-7.641144692216712,-2.1956425509727002,-6.7447990558178486,-6.49098758535754,-7.406842193850112,-15.479745352035373,-17.418498259499735,-16.681403658643816,-28.607372416733625,-39.52939650349674,-32.83062454826612,-20.576296026829617,-9.685935455951775,5.255402248990647,11.64480068135117,1.2672435217350864,-7.852253578825937,-10.925695761909418,