60.612494331583214,60.15931068455325,59.188561991424415,62.60818520770131,61.90482765512554,64.80493905682384,78.22009902483325,88.0488031048152,90.9848596719915,96.46748454990643,94.04160166940386,72.86307183329339,46.45081872426852,25.078141245485135,8.661407316702286,7.090050426040034,20.409849126202154,25.9394879545751,15.391329042766051,0.38733079061382814,-18.91063893145239,-41.27289866546341,-49.3419685851093,-41.951794755087704,-35.49742916520636,-29.97918258128916,-22.567017255246924,-25.360348496117265,-35.20617518741768,-34.805872826166855,-29.493265060406856,-31.133843747096265,-31.156402909037105,-27.50667929868561,-30.652045347931185,-33.567251699644956,-28.275723380544104,-27.832413110566673,-34.77420889825586,-36.27545855909985,-37.472947428741456,-46.27830132239659,-50.82384269145072,-49.64655812393744,-55.70108741393065,-62.65484801582368,-61.69365997789116,-65.42070359210506,-75.87995036704592,-80.74576591238772,-86.45223220626718,-98.84122774406765,-103.1093572122708,-98.5633536771517,-99.25660599000923,-99.7668156829082,-93.04402269456111,-90.90194100192495,-94.09698682315393,-90.83278850184216,-87.56294849969952,-91.81402974302031,-93.52543053072183,-94.04381010428094,-103.2505450533075,-109.67497039426298,-103.19173537958916,-96.87071079566783,-96.28390921822684,-93.50114657098831,-93.17802744328523,-96.717175813589,-90.05002893202817,-78.14721277718627,-78.8514621302561,-83.43605432775894,-78.2786818525808,-72.07258357903368,-66.5660758391951,-54.13914237524605,-46.34832093285594,-50.570242792016494,-50.76153901381498,-44.84468589044998,-46.0956816750598,-47.449685007470784,-39.975378386718184,-34.80140127484018,-33.323967186058326,-26.589332365064237,-23.169813444924866,-28.270601431453386,-27.901762929091255,-21.39704723751965,-19.95549467536791,-16.493356215227585,-4.089360238806142,6.718102983555808,16.00598488854523,31.47004131497565,40.28759544445295,33.74030059864292,27.33211270721194,27.00097477517041,26.542436526469583,33.51353727725474,48.93076436526111,56.191491595245786,55.86704807189376,61.47478064707105,66.3982753706277,63.13897624571344,62.070745481971954,63.13778644588004,58.38794340496585,57.88494824933592,66.15363530365369,68.74018010289655,67.82560347204068,78.3569617108738,92.87287455080772,99.83541403076991,104.66030825134554,104.42029427004668,92.14066395025014,83.16980484886867,88.237518607393,93.53826746863533,95.44930378196179,102.8163058520508,107.28620066420446,102.388796419654,100.4500493994044,101.83903779039636,96.84725072785511,94.40334861182815,100.32252669400005,100.2730819131667,93.43622319982482,92.11455618355967,90.31366125590415,82.71186376792232,81.49673810708165,84.95249123508412,80.53664226519761,76.17763563211355,78.70837636487163,75.75706786634217,68.41655646309297,68.47534597178813,66.91601646572434,56.797680533951606,51.13815838166672,49.89519672372387,43.0171475589574,39.74199798446434,45.40369894612033,46.317181191792315,44.0811047438636,51.28449361888114,59.191724926099035,59.62502657198692,62.34818068884126,64.91815330453285,58.652272106205984,55.88592922186607,63.06481338110876,66.006366206557,65.70860526959227,73.9657977115206,82.57204562911772,85.68050852107517,93.5628343754286,100.96831346968492,96.46814748961268,91.72173391915258,94.21668505247679,92.35663121537642,88.25618557283747,90.94195393156105,89.52660308229913,79.33492213713524,74.78698171554869,74.86027278594446,67.91547907068073,60.45831295794961,55.53850992944162,41.541682680317095,25.539060089868883,23.593774826398402,26.013500116691613,21.611223351297472,18.252406389911535,13.453291415117825,-0.08167642839423106,-7.602214501639253,-1.5676812037018921,0.8849289958387496,-4.491800966377941,-8.023145467156702,-14.80731635552709,-24.799952637456194,-22.264852556666796,-11.983953488365657,-11.68956419634835,-16.03874114505367,-18.265818216924806,-27.325187901866492,-37.401914383977775,-36.8893763352537,-38.32383100523924,-49.96690267961541,-57.78883882822991,-59.01921601272031,-60.68399967259378,-55.46637730816099,-44.06185865333308,-42.783080116340926,-48.907239949043074,-48.00341495023601,-42.993497584746805,-35.25822072813343,-14.905542840815485,12.587070220773551,36.65141519748255,65.50851059165058,102.03424455098641,134.53466610272287,166.03709381701935,204.84329683931406,237.0477343743542,248.48264222271908,243.64278250257155,223.00993883581663,187.35415943042318,158.9792697941975,150.51055444824755,142.942573261044,123.41395526814132,95.61182951237271,56.2947731616988,11.577586755270396,-17.838999805729987,-33.80959628973376,-53.28298053098248,-74.21037091173851,-92.74402393152971,-115.67943862248612,-135.29848653990246,-140.91676025213604,-144.89478990833928,-156.61819459152892,-167.26650973230224,-176.95161948720735,-189.05421615316135,-191.67412010639683,-185.53770352003176,-189.21430820070174,-199.1787639039232,-199.57250852191618,-196.23492294195083,-193.75478710826513,-183.76576559977894,-175.2707803116372,-179.6391104493184,-182.61433625878865,-176.7770209758021,-175.03645868668286,-174.20971295719815,-162.60683325252876,-149.63881744760738,-143.34493075638466,-136.46030281897688,-132.0570997998418,-136.03060898332367,-135.57372101829333,-124.91458931777203,-117.53086157854824,-114.75856735405522,-108.55340917863823,-104.17373124381557,-101.31275661839678,-89.06999843618371,-74.78104609020326,-70.44419620971607,-64.79086744477189,-47.9432414654197,-25.379068967968635,6.041829542830258,47.226073795252255,79.61284685641024,97.29432125148897,115.0525646664407,133.18943250315812,144.7687627285738,157.66189241292525,169.80300482849836,165.7162483535114,149.6679531916536,134.07928744799,115.06756373622142,95.81245784607907,91.30154461286514,94.23877951146613,86.46892019260163,72.91722492599204,60.866165746890246,44.210486854497205,30.411079340068092,30.073018122064365,29.54816629777547,19.331234928366175,9.748730162470256,-0.30732741358027305,-15.949341934319216,-22.852506554452493,-16.52930549874652,-13.15528847424585,-14.138893845546354,-12.633930566903715,-18.599319411578605,-32.90348585244125,-40.13718739575814,-43.75702576384202,-53.26970244017664,-56.85743158964551,-51.77181751074259,-53.755722505486716,-60.23727317521438,-60.57323529303422,-63.66433722054279,-71.64801599436535,-72.48771685670562,-72.42002575176686,-80.67811949687434,-84.10323129950396,-78.4335106856511,-77.74732786621644,-80.18337874145928,-77.43628589442991,-79.42696363932404,-87.29953298972617,-86.93661717558223,-84.69445536916905,-92.02771824815791,-95.09643224508555,-86.72368285848364,-79.52535885859058,-72.50088253994825,-62.90677076579741,-66.67713122521451,-82.61583990074325,-88.82555477838577,-86.11367983691838,-86.685692310166,-85.43232689312532,-84.05117622448232,-92.83574659662165,-99.42614157975044,-90.8494010469557,-81.01097606085992,-77.89039045092817,-71.9941312911441,-67.33891451805286,-69.75705701628794,-65.019249662939,-49.934416048083186,-39.67874328704104,-31.41479120725223,-16.568335424457718,-8.446491215760563,-12.123215921770486,-12.954701565561525,-11.287518992979537,-13.590544347932191,-8.500515629625125,3.616444614892515,4.178027379242856,-3.2968058635033914,-4.0877542482811124,-4.756503454925024,-7.6176817445502625,-1.820710556753683,4.1628524450311035,0.4583011237035679,2.2044832211310172,14.367428054153413,22.510290523559345,27.98638857921488,35.9054275220865,35.312160339895435,29.86778821476215,37.43582069503569,52.43617293293721,62.19427641714875,72.13705455619738,79.72898291208325,74.69478834988553,68.37656992744061,72.8224637430362278.40336767659002,81.89218147399879,90.72731419741933,95.9525320451566,89.32179409203492,84.81871553751128,87.41174902391799,85.0792965444409,81.20043339186668,82.16940722926145,76.62249111280849,65.74093739573257,65.09213536923276,68.4613619939602,64.50975877407431,61.706676982737605,59.09502449346728,45.78548164765358,34.21374281988494,37.0431382445653,41.38185463526156,42.15226881356207,47.71833286053006,49.80073059604411,42.88001653632209,43.2627948582769,52.76251422296603,55.02565554529522,53.04924224435932,55.417757882561034,52.38623322069505,43.96657987311208,42.802711115252414,42.25667611613611,33.62655794804218,28.419837592696787,28.82205650148508,24.259308992130315,21.72223551521749,29.26151718374667,35.131255842655605,37.0651165259165,45.36248294283036,51.59280702321752,46.52521616799539,43.07087714415539,44.69378760649215,39.90630403218094,34.589840032378206,36.592414854272505,33.93352737884064,26.057879082777514,27.39909505963304,31.780905829182913,28.03104442989983,25.410346569824462,25.75260115384956,18.273687165658874,9.25335202516844,7.547133050788398,4.045470673174507,-0.23536993860662747,8.18983343638996,20.005756589073407,19.33079115060147,13.953032875961966,9.808344617862012,3.17378174554657,6.822779858514345,28.776726430334875,50.080571254253975,61.47848716492797,71.81962078383322,74.8461840574232,64.62110387497688,56.43288283222157,54.055097080259316,46.24015470583421,39.98921978860494,44.10486173563851,48.49169145789169,52.469997566963755,63.852611648395346,69.11755702864237,56.04314619590944,38.64773112934037,26.48382254963761,16.079774563363674,15.347257533999304,25.62660510121397,27.44804704625546,16.70452072308062,7.484134860798925,-1.5873695082484365,-13.69724909919866,-16.98098815041815,-14.959389118200752,-23.137952569047865,-32.52004688963369,-30.573283023413232,-27.546153044213952,-26.359909905107177,-20.28160652898842,-21.33109305892472,-35.54777920737013,-44.04163488669202,-41.819419168497696,-41.10352552187383,-38.02302105668976,-29.531681074564347,-30.439301128955854,-40.85921089844712,-46.20782361379672,-50.41003504178474,-59.78599751114235,-62.93875940856797,-59.05901505367521,-59.600604077123094,-58.83004518891372,-50.15973674479769,-45.237289669245065,-45.29521082849635,-38.66864153001056,-31.947105187049512,-35.705631988849596,-42.045777428619346,-48.090034095520934,-57.47987566944191,-56.37041289044587,-37.29416587873096,-18.78810215865794,-9.272174178748983,-0.9411837644006069,0.5780977145702324,-6.039444031860901,-2.7514906394128817,11.608300602079167,21.93809523748315,31.65021540557965,44.11591994514258,44.92386917433196,37.03460080279582,39.657588429196586,48.6632411440129,51.894875374081266,56.31330131925152,63.25843203389485,64.08774620979088,67.71776120605276,79.80135966129083,79.99236840431578,61.27902086453632,42.53652708872123,30.82275667362995,25.02620070377606,31.36070421977206,38.906238279415916,29.05795205161496,13.004046026076747,8.790943688994975,11.231791410431534,16.855495346114637,28.680810225943784,34.38671376259149,29.7532411644967,34.709973936921756,54.50503480913822,76.09892845135433,102.25508546029977,134.8104956247508,157.73603229581076,168.58824829466016,174.6056450973091,164.28310540512123,134.34273102243714,107.64316714038742,93.15722859295329,78.31258135249256,61.572756943603935,42.931770928274986,10.967589871858557,-28.06565646217514,-57.61225281283351,-86.3624424415729,-126.23726710470088,-163.8751728506689,-186.32665142399264,-197.09995738808965,-198.3518869167394,-196.66753262789143,-210.76987060297014,-239.23736940458846,-258.6558064208216,-263.96586371247236,-263.22349063509046,-256.0683625384166,-249.7082078776091,-252.01707095166933,-249.93510238332357,-236.50259622232363,-226.8780267708499,-224.59102240983935,-219.19526473269968,-213.84846932277839,-210.06033401420677,-196.07409938928382,-177.48574615540483,-170.50595497216403,-168.0621634580067,-160.2694104295929,-154.959364115458,-149.56866726141504,-133.1504569225125,-115.23244392708833,-105.28595275182899,-94.0544502949986,-82.64741668048458,-80.83599471669696,-78.05255307397823,-65.60651882601037,-56.43789627010014,-52.33567219238345,-42.44783831889862,-33.77534951709225,-32.061728245054276,-24.84415399543351,-14.354551018453169,-14.79085699706384,-17.910554557004204,-12.525660676984346,-6.70887620611458,-1.152158060428288,11.22695192854901,21.258078250385843,23.794305147143255,31.89510395611471,45.939889156697916,54.427127918059696,63.02717398741369,76.88349775377596,84.26449482246744,85.07041307602262,88.51684795037582,87.38339988059832,78.90849877618088,77.18475603718038,80.74849908364402,77.09480811963866,73.4377126950168,76.48028643989976,76.29004745319321,75.30782686770435,83.15268669942608,88.6589643260045,83.46348874502378,79.46429834984662,78.9435685081277,77.33707030002918,85.86358991329243,104.86679322030544,113.45559855971062,108.0218079526755,101.24263329763023,93.06903744618668,85.27581110346168,89.49514711099282,99.91475990492445,102.79481379797477,103.91355855384688,106.9666503448178,100.01291037217916,86.02239740059946,78.81819877165042,73.09828163877194,64.08080935924704,63.47750529532949,69.62269869404227,71.72778459580076,76.71252225169036,84.91752656199944,79.05299118680104,63.23174674169648,57.43632783874792,60.02055615699122,64.89457585301265,77.17922182633154,86.76074590822896,80.69391093199192,72.80968582426284,74.66357953051316,76.51997322500603,77.7840044873651,84.00092685600008,82.83739657527607,67.76675860880327,53.24616762611544,45.193611165119954,40.8509990186988,48.08871689184752,63.612388504063986,67.0895084693794,57.115877496033875,47.23542327500619,36.63522046919308,26.390209959149423,28.202755547009414,34.85452367223243,31.7379939,28.022417120497156,30.244061223806995,26.12031389321637,19.446534234401746,23.43960019055519,27.981210152637203,25.265909772422866,27.105328274175548,30.79517709080238,24.811612756696462,19.828113590810116,24.86499155954858,29.60801535944055,33.54287720898614,42.88034679914357,46.49649386208702,38.93820974881894,32.92754823202851,28.040184147798744,15.522327510537153,4.812490214212733,2.3805625439077396,-0.9166680260112539,-1.9376610570475539,6.880128060036236,12.810501837573353,9.926960234219218,12.409626151917852,19.406867003714183,19.31394828975105,19.372284538087257,23.96398164269076,20.70360359495233,12.587224099280848,11.59023419445512,8.979847386031626,0.4120339488426539,-0.8190379930142733,1.4781266474121029,-4.852745591887599,-10.366118365835106,-9.310481838185023,-12.533330611908596,-17.272289933291155,-15.754570599070533,-18.005404822902797,-25.512673634684802,-24.279016006868396,-19.68631520995417,-26.500528953855337,-37.059434181690676,-41.910335073957086,-45.33065549325918,-41.38172220264828,-24.44759569366075,-12.993868935831278,-17.47596154572773,-23.51245268640615,-28.495708791827827,-38.75971712219951,-42.7191353947704,-36.54696841062166,-34.5186253621087,-34.238560724754485,-27.44924009370607,-27.592976065147624,-39.54558200825367,-47.928337765125775,-52.67841350212599,-59.97418218591359,-57.45120528373688,-43.540914378508106,-36.25785079307369,-36.82551425471131,-36.20448059182702,-40.17173608186779,-47.30690658359467,-43.48082953287424,-34.43534197706899,-34.661727638270015,-38.39466869829999,-41.20686004487813,-50.501537869645425,-58.60949300720628,-53.471219323557264,-43.588905479063364,-35.296886825579975,-21.97166849615669,-11.259913499540808,-13.935084261734891,-17.906562995600336,-15.333387870428776-16.216196665069287,-18.376689349511686,-15.094195181956362,-17.642038367816912,-28.53358287859652,-32.47331207147974,-30.737883107649274,-33.80746991537192,-34.78871547257976,-31.763442634230714,-35.52873864730161,-39.37110422262528,-31.75014303646181,-23.533513046995832,-21.62586604634396,-17.43754264263055,-15.38587491760886,-20.961566201442174,-21.324125937101684,-15.327028485443929,-17.522912381914516,-23.46102867049149,-20.865333179764548,-16.107382543750443,-12.668586587677515,-4.7452505538312355,-3.070612234981743,-14.92047389795282,-19.87835340762973,-8.654489596747078,1.2243490310940885,4.555451278186374,6.607747372183382,0.27232068675278676,-10.221082103062185,-8.778682631858826,-3.890518818241186,-10.287816561731814,-16.931109554522642,-15.483075364156669,-15.190230488866266,-14.598075554731828,-7.732295512504793,-4.678304843894069,-8.837144294752012,-9.163132544564043,-8.769244673679108,-15.058480186062926,-16.623764982990146,-9.867511168592518,-8.23838131046665,-9.352047343303923,-3.7255480400890297,0.19625906501963508,-0.3304855960172708,3.9708820337949984,5.3637094000946295,-4.9464541298554945,-12.506837939334522,-10.993698123113463,-12.61091675348068,-15.261265332411877,-11.80529115265649,-12.080954637598003,-17.65016259661013,-16.462024609028717,-12.84309435656342,-15.54749214405367,-14.858858181557574,-7.3142957108729485,-3.773493387442411,-2.861657742899401,-0.17897624359088682,-4.7491391378386805,-14.256329087500038,-13.796878877034436,-8.357838729002749,-9.80930084287691,-11.332809016683242,-10.58708081554369,-14.593058066234892,-13.896887219498332,-2.633897610895786,1.9271003484498035,-3.5750878252636835,-2.972736682967476,1.5288114624087985,0.8321356849591663,2.1340952437061174,4.146685307575824,-2.894072188955172,-6.601936216525497,5.9876227373385,20.19803368202832,25.271477030215543,28.215533159383877,25.350479816023217,13.293927746933232,7.826200522934327,11.902436453533669,10.643054305602057,8.184023624344103,14.502131922594922,18.119667752009455,13.337175730552568,10.040062332628251,5.403521538848814,-4.090770989640177,-3.671266274065816,8.315489573448298,13.596661136688411,11.223684278090754,10.315728029762683,3.9888771548180255,-6.966090306786273,-7.092498842606416,1.0257923511328881,7.875695679807643,19.965897185979298,32.419702091408965,28.517821529961623,17.706231168939816,17.74166406705117,22.028460490003773,25.165425700274277,32.370086557898226,33.20689982174767,21.382271102658123,15.884980060752463,22.20966975612374,24.186678039537863,22.404868132644243,23.53683329172705,17.75689314902555,6.143481527605168,2.8443082394342665,2.3168573900288614,-5.1565623768596955,-9.403427056511564,-7.104777077989172,-7.771768792444767,-5.556667171634717,5.985078117818227,13.149358853089046,10.603482053070792,7.899419244109989,1.5780406756566507,-11.144219836530276,-14.85633449672032,-6.581067149769337,-0.7015901274012022,2.2141363326177754,4.733702865375764,-3.5985432482980437,-18.582712170446523,-22.973491220747277,-19.7366685338287,-16.91718693662279,-8.105855608772146,1.8141608188697913,-0.2149544603607434,-5.376798631807971,-2.445433701740379,1.7158935543768359,6.915185826297261,18.30903013088737,23.049698689516475,13.014014632565377,3.0882253875682495,-0.8119528022096516,-8.181131318086951,-14.852772967004535,-13.838265495077541,-13.361425553940094,-12.586115557550663,-2.493998596647843,5.341516646083761,-0.7606488836523306,-9.233871895409543,-13.779971660965725,-19.518948898627702,-18.240408285781196,-5.414061009287403,2.8672012059311682,1.2066661023682357,-0.8696021429285646,-7.748097774155952,-21.346291366489158,-24.890369554405563,-16.75103407640255,-12.256327184584098,-9.089557787815664,-0.8092700663688768,2.348971888566978,0.05222962643200546,3.5858273841398915,7.137668786257714,4.919198717949306,9.169870394746619,20.1091310476543,24.093818833923894,24.029437887640157,25.446781425517024,19.113888858022463,8.43752827482142,7.858668054793549,11.01165511079887,9.374468353058143,12.405783049733056,17.26522836353812,10.706114948501671,1.6891287886589899,0.2126539817776033,-3.940890189051121,-9.312256819908342,-3.3061181846980388,4.06642440026723,1.5064192812495574,-0.10642071154492819,0.7492959259073997,-4.3839179053125505,-4.384405187695622,6.803903235486923,10.961485597470103,3.7214148598126173,-1.0481641427004587,-4.933257522811456,-11.476388998836367,-8.876157826650907,-0.5264116403098704,-3.841369846357571,-12.7524674380831,-14.176426796109123,-15.441427272201718,-17.23120773045337,-9.364001996069769,-1.8767525869997193,-6.202748517366508,-11.036797152162556,-12.701348914441555,-19.52633517529067,-22.055211839509063,-11.75741821895037,-1.8428387027589221,3.177921610035207,9.550230857329296,6.763476541323474,-9.824973521311813,-21.84509924605641,-23.36128314231347,-21.955412188574915,-11.134216442020346,9.041389055813376,19.975476813144056,19.533399186977647,19.543801986549678,15.511221061586031,4.82678632834454,0.1951507903169021,0.17326279480246898,-5.478447467672662,-6.292593137260763,7.282605864231298,22.710393572673404,32.708268241802,38.75185611839365,30.308873578001585,8.040060797884594,-2.9029057504700666,5.846849669161564,19.071807073950023,33.09476238762734,46.01126147607902,44.26499299959618,33.26988056062936,29.38124850668387,25.40056779286278,15.582819020985436,14.518194433686382,21.759757743530706,22.164343819864236,17.81138049242316,12.369099435903768,-1.0123869348508583,-10.694117008405017,0.2063826171722889,17.641262036912366,24.429811823797383,27.461363821584822,29.658895552405895,26.839562853751424,29.736500499802283,42.34926911504709,48.628016759210624,46.59566624687102,48.14404392550165,46.99667169777195,35.177265813131775,23.85727019825726,16.96171874708879,8.370328669180168,6.848021009165082,15.99123283127477,18.678731986368362,11.934458017950343,7.098163634324464,-1.3862316710124016,-16.075587252403114,-20.568681721928343,-14.576000250598263,-12.520449155998067,-8.840847703301476,2.492338328668313,7.6005670160476,5.115667360078606,6.14718762777471,3.548439012806676,-6.564089880880408,-8.134679851897568,-1.47774821753887,-2.6264866620126117,-7.369176355492355,-7.396562142067804,-10.72443196219075,-15.231022689290505,-11.683783016737447,-11.239968480284858,-21.175893172712378,-26.672091395864314,-24.615634192280325,-24.569894645375207,-20.019665216345864,-7.913248024373334,-3.6966488619330784,-7.846883761477137,-7.459632373151079,-7.48071657064939,-11.749940414489085,-8.793775103350882,-3.3988680125167674,-9.352286546891142,-17.17679114397582,-17.636710473591783,-20.404189431439782,-23.185615816226903,-15.945094995973086,-10.440353560153126,-15.838294327476438,-20.472754245318676,-23.66484297435121,-32.94406777701513,-36.67380077333184,-27.98905629879359,-20.546780136507202,-15.634005403217191,-4.416280733162965,3.1927988911696694,-0.12645608426355892,-2.3254749929750353,-2.8383283344555865,-10.18902712300542,-13.945077113220629,-7.426371490235374,-4.473720270586269,-6.624483249830378,-4.346808056929945,-5.432507652979762,-13.182000098604094,-12.97069901165732,-7.3778887195276495,-11.12117931574082,-18.455597384496393,-23.01885585380396,-31.174372968825317,-34.87856840873725,-24.14900010360344,-13.969451798875689,-16.198505348891075,-21.839661744444054,-27.68620062568921,-34.40559628159104,-29.50788637748599,-11.508950471506704,1.6318297642888449,5.882765744712603,9.33947571281542,6.544462412177639,-4.570364073003121,-10.946206962309844,-12.625445992082888,-18.678217326130977,-20.815032637639906,-15.574529401737534,-16.869464446717775,-22.021456903289575,-18.26953106265009,-13.293320473250969,-12.777607289236773,-6.411196738210784,2.92813552150043054.969531069463824,6.7963909975446715,11.631859337070315,8.516549537843662,1.9334797805763302,3.771457791076766,5.854160187628092,2.1997419944846577,1.7807801052817722,1.152727071732009,-7.024252095729338,-11.125370090048659,-6.263153021992338,-4.944413865516837,-6.5136120921007095,-4.283784330182095,-8.301166338019668,-19.412069070135722,-20.03946456756244,-11.481094027948892,-9.131160330046852,-8.872762125078648,-5.801574090480017,-8.960045738467196,-12.314035659721718,-4.965150185872355,0.04922720032094441,-4.814583560946643,-5.252627704805642,-1.3269536754140367,-4.001102992714504,-5.269397970966371,-0.49833843530464206,-1.669731681700091,-6.068832551887636,-3.6704082595222585,-3.180409103688854,-7.205381065523984,-1.210041649069054,11.657013098806761,15.432011911276863,14.580282583495757,17.051817878710175,16.948563576801153,18.378144321001304,28.348844155170582,32.310159354276415,21.925260843819224,13.004344478427422,11.131230036855923,8.74806800502847,10.340713749097311,15.660132478813207,13.144848802288887,9.472024743056007,16.292228582512656,21.732296995285353,16.597429297806965,9.858433809056264,1.8337590859957285,-9.871646503091911,-12.025610691902639,-2.2156991564560684,5.673875611750355,15.579999704114456,37.15366429994428,55.89654597804991,59.738854425350596,56.74911408815952,48.299486700875136,34.668260863420116,33.968405323392346,50.21843847595696,61.46331355354332,60.80254793584194,56.208040538113075,42.920332908313746,24.386698891718744,18.63891900841675,21.50650001124937,17.943517926382462,15.678827712715592,19.99632066642731,19.37935615903974,17.794850428270617,24.253985698092,24.935009645009853,14.052692541299209,7.584840971965771,5.910358854054943,-0.018232350274780984,-0.31948020410758227,8.100065521425948,9.671959065584772,4.68206429825884,3.1218145078564703,-2.7368465433922244,-15.122884087064419,-19.498994668975964,-16.332852544323124,-15.656067675258885,-12.292101991255755,-6.494030156799972,-11.174827726422262,-20.650666486616213,-19.39562569842129,-11.183518396792923,-1.6265317203305107,12.597096495549206,21.447015387319684,15.498477746412155,10.158061156230296,16.158879677981332,24.21316543241811,35.63254116144928,54.9118518666811,66.015962424954,62.15994728208767,57.34072751737298,51.27683110340807,38.16635253947686,31.600549755778385,34.47023258946554,29.58033653703789,18.22065406736,12.590570250925756,6.254792600244077,-2.9704736553996596,-3.767730134292874,-2.2738086609217647,-10.949183686025705,-20.34493239875365,-21.318178759127893,-20.212116593405597,-16.100796330609317,-6.03265690276641,-2.5503601047438504,-8.68216767320596,-9.984330069236757,-8.070227564799918,-13.830971886436528,-19.93036346829065,-21.393883241133715,-25.274492989066392,-25.56930385266467,-17.262009145643802,-13.986325119330775,-13.464685530517645,4.962326784452438,36.91994137538443,64.8777101909979,91.54431460197975,116.32119963999631,126.7707072699624,130.9259668090251,139.38197748035748,133.5014448153993,103.34332884219536,69.01257443787783,38.447553511494334,7.545800390811771,-12.277813306056064,-24.43775681111607,-54.20211630531976,-99.0067345176141,-136.20560891631146,-163.85053551955832,-182.72349948373375,-186.07877429780646,-185.8923075473973,-195.11969790716222,-203.6259473406994,-208.51588550879978,-220.36627746691465,-229.56011920853763,-222.13516188715047,-209.4331317261559,-199.71141989079956,-186.27429135082429,-176.75287669287337,-178.97005223198119,-178.769200413278,-170.88423552793677,-165.88791169014033,-158.3548252775001,-140.24709003714148,-125.55633789563743,-126.49035203770417,-139.6783505439258,-156.58684954217205,-162.75209721776136,-149.93219273022214,-126.16996901349218,-101.79327743282592,-87.74840481344137,-90.39384725084143,-93.12217485291347,-79.45663363300541,-60.382787670863976,-45.16150689929794,-29.94165843438494,-23.370079280125793,-27.050535327282056,-19.281380011782378,3.1135109577801847,21.108578495132956,34.435579983048996,50.14235306132382,59.236812641635,60.61331498690278,63.27218955949446,60.51246266178542,48.007254977701464,44.368845599103324,58.235902121101034,74.0827246122239,84.7332964783802,90.96560289302202,84.03053966465134,68.98074263817239,64.60244446300655,67.58217520429628,67.16788285574312,72.33579762171124,84.16474709067607,89.1353414780296,91.4416779018517,98.3376292230912,97.82208464363318,88.9652333261247,85.31248836078981,81.84422830413666,72.63570330375846,73.36287767316662,86.56431168868242,94.58036212699375,96.0810597565817,96.88992461378912,89.46597545745041,78.91315864778454,81.933534458455,90.78481559887784,90.38204343306425,88.44255854710168,89.98824270767706,86.6481279742874,82.73552444868551,84.30977737167665,81.06847914216485,73.39894793359365,76.04059214383427,83.51446050080473,82.73172087172169,81.84407608350244,85.75536679738437,86.39874480233384,88.60489293296682,95.26285754697062,90.16543271283261,73.0857138312046,64.16685004672794,63.87788301784431,62.89500701407127,66.46751598100305,69.49749277739332,58.13009906982383,44.439556760236,45.370649258580215,52.3838099969051,58.62322713060371,67.94620246553811,69.42629536075212,55.35002854665815,42.40294177224462,39.10333929299017,36.9067106123602,40.42289664185153,53.708821879218064,59.858725131995214,53.172728918167536,46.48634617905491,38.978440396042174,27.619954348260258,25.032882340708564,30.05710038092734,28.162728647776767,26.090437373989758,33.56522296109764,37.50990611484419,31.95639598305455,26.530568545865613,18.311315670973656,5.258990756572021,1.8022112563545272,7.531061010282313,7.028805422073059,4.135807377436256,7.47423137134457,7.582186811574136,1.629982474562795,-1.4445397571687546,-6.069746714466644,-15.453405667386471,-15.785447361356983,-7.237652902238088,-5.7203151006992,-8.21799372068796,-5.361305248081795,-4.521420122673104,-7.187066400457181,-5.968025363548281,-9.267643061186028,-22.349841104827405,-27.98362743668032,-21.036820790772833,-16.01916484456817,-12.431122564235007,-5.943282261189173,-8.500829149271299,-18.899660393169405,-22.31475577054902,-23.567574564280918,-29.29003836056362,-28.51429329435738,-22.813020148458698,-25.041518029024793,-28.18524278167485,-23.195184341354263,-19.781801964512784,-20.296781299388748,-15.790440703044132,-11.947506296583182,-15.324253790282949,-15.28248854227932,-10.803667524007691,-14.04338632252842,-19.606823344827188,-17.91431286002686,-18.6395647812188,-24.833060747288215,-25.619906490405185,-25.126833345836125,-31.06105427199911,-33.943141138753504,-33.366117614340524,-41.75901288169418,-52.168702984336015,-51.80272879797193,-47.41407120901106,-42.02572021481673,-28.791678857199102,-18.001106933527268,-21.12938057125696,-25.917803439112,-25.195957255017486,-26.93474026837101,-25.428439807538055,-16.01623008866474,-14.27033995292576,-23.0364068358969,-28.16928026616842,-31.552166859433246,-38.71530816011153,-40.180285111434785,-37.276918185177195,-41.73379944254061,-45.89962172713119,-40.24630527456555,-34.963205673298646,-33.054219234131274,-26.709645513600314,-23.42099604118058,-29.113771319712853,-30.88770669265228,-27.1554573510758,-29.492934815833145,-31.620529735232417,-25.7590031126109,-22.496761248861525,-22.056256769832135,-15.013171586974668,-11.850605048627369,-19.873445987802558,-24.06259921215789,-22.509524312394646,-27.229038964646286,-31.88319570182641,-30.299141969159948,-32.38501471170773,-32.791775490396326,-18.79808145339788,-4.401788096109818,-3.285653526595988,-5.147204178839309,-7.147602505695352,-14.305299273187478,-14.524839440004472,-2.4248617251417297,6.105376041571763,8.56346388965439715.332669250259235,18.789085822712586,11.391680318512773,4.898847497337835,1.9646703354344979,-4.799112898804253,-5.683816384097165,4.709778006714597,9.695311026509724,6.05648945084657,5.508193724559314,2.0140379477522945,-9.419907290364078,-15.572017741415161,-16.24753837186337,-20.60350339699983,-19.527905326465365,-10.093463917260367,-9.65477381184814,-19.620454189966996,-24.784588761132294,-24.611052884452448,-22.378768627789213,-12.591739613968606,-3.243243381967112,-7.582276100002543,-15.041902220738343,-13.816611976812368,-14.408895856143884,-21.086912163212055,-25.256921678291768,-29.702901292830976,-35.033165525242964,-29.21940172231337,-16.76280174388645,-13.376576283815314,-13.635220362330724,-9.326436330368088,-9.70616486627109,-14.114913341541717,-12.990345982617608,-14.560161238369442,-22.214558494411314,-20.846749462372102,-11.944766557013768,-8.856173122891436,-5.866831106327215,0.4546551292855736,-1.859775019723596,-7.681219006395633,-2.269392883080677,5.5154975208153765,6.187052462884424,9.700457188130498,14.999864116499841,12.700301263579913,13.265829763395338,22.35567782450913,24.880470914999346,20.8331442892546,23.031878746902976,25.02209664599929,20.370805525933005,18.878391569370294,18.565656665072133,11.117736200689334,7.260100388005524,12.939939079389214,15.671618518575027,15.34360880757172,20.132221279722454,20.287363011131745,10.849409513308519,5.291531484829668,2.8749599937514336,-5.918071179094243,-10.017727194391831,-2.8044038034413266,2.1487542455064235,5.430792726988423,15.950239791022117,19.91874750727819,9.29823089185153,2.333169207796338,4.538402916589662,5.062030675569935,8.639213636772256,16.617921997320142,13.225890530400111,2.323355250282255,1.920329941021741,6.069943338232268,4.7655183927928775,6.330441959252642,9.066037636494695,2.4674610602642346,-4.447469926764892,-4.27397605301803,-7.042712883808923,-8.952958351720538,1.8794847756549666,13.47483072606092,13.426816866057717,9.992505463120267,4.331210289431036,-6.380726699222096,-7.240899643840853,5.484986501920961,12.59556005351076,11.087945103889997,12.462129696353351,12.24438957007538,7.9468477560999755,10.799356838981314,16.61510608112919,13.725868396442657,11.012765227333919,14.999104316850458,14.113271024589393,8.758032390098819,9.89965834721251,11.858962470017229,10.109355438353731,14.734932694344,21.030114586510702,17.060441792245662,14.351714569148122,20.962549409428057,24.04015687645595,24.76704289991152,31.880441988487924,33.0977119393987,23.873147740234693,19.54296583024903,18.085154846037526,8.987862784840514,3.197307572493731,6.90619254858816,9.424380881487844,14.906596840920274,32.6219806349778,49.07460030602453,53.32023085424452,54.00724722414505,51.662944034296096,42.59508117062633,40.26411404004319,48.95312622906117,52.92404805370203,52.326736794950804,58.4928374802122,62.73714313016214,57.37060050377113,52.520135993866965,47.37330579283069,35.33136291205671,28.668702846736984,31.533531652143125,27.60043112696053,16.584735180629334,10.654256135385241,5.171066656572825,-2.3429712402546694,-2.0504444918923133,-0.33550209698305977,-8.92003298219304,-18.334428075565768,-21.680168185469302,-25.871739150344187,-25.53075393186832,-13.973922934629623,-6.002121907289485,-10.580280074073254,-16.83174764112367,-23.29073006712384,-34.034454067530774,-37.94881317903154,-32.647075105823156,-32.55399760510407,-35.608808783093735,-30.991748604054443,-27.670726550133438,-31.071118442212295,-29.713765129269447,-26.390848339576525,-31.29036510735312,-35.291263407522024,-33.639049299304546,-36.691883974412185,-39.18377758007584,-30.6316835594165,-23.187809876792894,-25.50537914551981,-27.48512553450052,-29.764835756614925,-37.12612813701591,-36.408490511564246,-25.251498517705546,-20.758035118719548,-23.574891359659247,-26.275293103999044,-37.74143182795082,-57.219851759488215,-67.6323430862462,-69.89419576547955,-73.84003503901717,-70.86463631074434,-57.740093971711005,-48.58379292823603,-43.395744421828255,-34.09770441035236,-30.280210772030248,-34.411505778592556,-30.55526751293256,-19.800614772463376,-14.896973652354527,-10.439049124793552,-3.5751269510390618,-6.085562812001841,-14.604092556187048,-17.18844226396182,-18.56530404611362,-19.395626219649763,-9.801855269634647,0.02198212276825462,-5.688019862393395,-16.904001517948206,-22.300619815837422,-25.598364816008267,-23.097329415797354,-12.910752066580702,-9.994618017831458,-16.16225482412059,-14.792691107632912,-6.8108981964437465,-4.077997702146085,-2.418821570268336,-0.6830257132398274,-8.326682297694695,-16.970952664149948,-13.611057796254826,-8.35482071977765,-7.33724124564724,-0.5216355473176906,6.37990680871277,2.491670080463644,-0.781728180781941,3.0556607410198486,3.263196572800613,4.418418362495213,15.708516416696643,22.507133825567916,17.133438676946255,14.012265180152367,13.884165734520504,9.614819387879521,11.185298279675777,19.0549489524007,16.422061908088388,5.7362233116486125,0.7034684110326458,-2.6005647080851926,-4.870041799436774,4.830745905718295,19.81524478608075,27.003470537274367,32.13751242957412,36.24594820133441,28.151147164073766,14.67900969483425,9.74534064217063,7.894343144442705,5.9920117084433295,11.561349603552136,15.584911591867698,7.171620035249491,-0.036277063506289675,2.648020327559925,4.543632660533903,7.245584986002395,16.972737501350135,20.505425402110976,13.173972798754757,8.405590114816665,4.3601558324001015,-5.302243483371905,-7.677512755677601,0.5162227545274978,5.271233965935365,7.88838602721296,14.381735857406904,14.18160896774999,7.552919996862736,9.55071296582175,16.355823516843678,18.82065172560967,26.125513462415647,37.851906019761586,39.30823947699872,34.23199308785077,31.550266511027143,21.64117280666626,4.127299075858874,-5.078671165106309,-8.314307831279914,-14.928301463535897,-13.40135400494025,0.18853217969430514,10.36903939617155,16.675179657987414,24.7619395150142,23.243936125898703,13.58143382951503,14.526056816458567,22.70630727293139,24.862924025729377,27.107734463892193,30.80821955861015,27.33003991079495,25.627637101743435,32.49049380092559,32.46341649451567,22.48693820805954,16.6867759988262,12.355740048481898,2.815549469178375,-1.543754094335755,0.019533965253678787,-4.2593846737077365,-7.965141993839451,-1.7626650167981464,2.7476395975147723,1.6585368148310093,7.214537418997018,14.698885261184481,13.502016302147048,12.911753681406859,16.279740469874685,14.396083349609055,15.475128053811517,28.61628986615411,39.47101344301424,40.42492446189988,39.51779983045713,32.4275293230462,17.664156624090328,14.594676363809947,27.853942854246263,39.94374348731911,47.269781328078906,51.80002882434038,42.841623299570884,25.339111240947986,19.199877213757436,21.65037927372862,20.11448922665374,19.919845707568275,22.26464217932908,17.959148948693777,14.333968640950493,19.835272028850472,20.90571906002235,11.275159029835013,2.805869816148044,-4.329977428571316,-13.662541097013104,-13.63154840180967,-4.755836316040724,-2.4749941638621227,-2.7607890363284575,4.377241698819496,9.677492685987211,9.45217066961943,12.107169570575099,11.507795009975506,2.0881048112943517,-1.0238802207006377,5.643863171897564,6.290649717413487,1.450359901897284,-0.40585300704672833,-5.29371667577872,-11.415861877268297,-8.398092397004921,-4.884583423475263,-9.842847051858318,-11.186359904288024,-6.040623524063104,-6.94951278624487,-10.685026494448055,-9.983745077071157,-13.300121338161665,-19.495094190890104,-17.858453565340657,-17.094482551338018,-24.381680926585418,-23.980767167116024,-14.067437924648141,-12.202269615943727,-15.395151820006895-13.73219313015763,-16.62496665595624,-23.961277537803706,-23.907718551790587,-25.444167308035535,-36.09884668368144,-38.33662173428279,-26.902869498554672,-16.738964496947794,-8.481653890115957,0.21158405937373592,-3.0551697482553477,-16.24448632805781,-23.19518279730696,-26.966863915913482,-34.489693019545086,-36.29117055136083,-33.57121493797057,-37.654953832666315,-39.752078883018996,-31.358905011108952,-26.887984979862967,-31.411573520569902,-33.52959548940381,-35.49043416348092,-40.27350243065455,-35.61959526800622,-24.97276798262265,-25.638517881880155,-31.94474405434012,-31.059280890979007,-27.96624028931212,-22.346337199035403,-8.39152593317593,-0.21376566467537383,-8.53113711848994,-19.159132499850926,-25.449038910802436,-33.38420211207432,-33.84838956534382,-21.984754564090668,-13.639272033905485,-11.625250575370462,-6.963252859427583,-9.668256189080388,-25.49962591715964,-36.41612114566763,-36.70464483094709,-37.642252262941106,-36.24344442331059,-29.68144109431563,-30.523913329131222,-35.77758874318075,-30.025562050068324,-21.15866507244307,-20.89836594818722,-19.379189012274903,-14.048305894621004,-13.763521764400027,-11.329492917437525,-1.6263126611656737,1.9964847949571958,-0.09942345145951004,5.645773146939436,11.444420834956135,6.466621083445433,0.9191311047305039,-2.91221693457211,-12.764364375652347,-18.584022102757846,-14.233205306351238,-13.885860707061921,-17.402941828516585,-11.630559625261029,-2.819192875780109,0.9115655467897543,7.254187085403682,13.165607088283785,8.702150687867864,4.96146622258699,11.129959483971735,15.117579923874768,15.730509326779224,22.535118725514405,25.678066349713735,18.190330868230205,14.89457266756347,17.539475319134297,14.786067480139788,14.378133801153755,21.563768880244588,21.023487117418565,12.459512020528589,9.880246261877026,7.94774691133885,1.7653279616807551,4.694614977902196,14.98346657997157,17.694578297256427,18.27572794233311,23.35791916446258,21.160675464217377,13.703581689096286,16.687427632755135,24.441819235021367,27.288081849434075,31.473401088815187,29.84865409373179,11.649656281291078,-2.636861235283085,4.951203411413648,20.425495535306002,30.471623596568296,29.97839376119066,10.032082225476643,-15.850213013298848,-16.411905935429992,6.891949002028407,27.23439833704532,35.93536841289806,34.009108579200856,21.182756439053747,14.69055667458728,30.526560220906322,56.78865310254092,83.4274161197615,121.01482104440262,171.08608149304678,221.149538882064,266.1362410229806,296.4885914918338,290.5794162235398,251.62688754855702,210.60985436196154,182.9247824590257,167.79454031065217,162.67045433929545,148.03946045599184,110.61986333211735,74.01830361944695,57.08893450171188,46.10369888356928,29.923312068422586,7.34946794144835,-27.847931034243526,-66.31803972469335,-86.50114678372195,-94.64546367551549,-109.4775055675733,-123.63952609186379,-129.80495166546459,-142.463267304807,-164.09785931025024,-183.03971467765973,-201.04809182780363,-216.1440284659391,-214.83837683094234,-205.60662847863958,-207.54481519137457,-213.6331206679165,-212.17641826713947,-208.79880421657452,-201.52426185917966,-184.10507956506328,-169.94618366173964,-167.26989157391424,-163.49739706448008,-156.51248030798368,-152.7622395257918,-142.92946440664446,-123.93421856441273,-111.01482325412681,-104.33916769538953,-91.47388813694405,-78.18362303262128,-71.55413180880144,-63.82387976862671,-58.0732978482726,-61.73016766841923,-60.859492478471346,-48.281859444035035,-38.59944210778845,-31.381071048204994,-16.258546970044804,-3.2648030358274482,1.6420657132566463,10.238718867829252,18.65514708779251,16.203327190435473,15.332114213607031,22.817952744222744,24.802031415256266,23.373784548620833,30.293800724271314,36.264757310292936,35.20374196606576,39.98675830639302,49.367382644175066,52.398545220255386,58.57354302924508,73.46239199469844,82.03958668572635,83.02019004726444,86.02892055540869,82.76951322563943,70.73864066870806,67.06204787409025,72.14408700158555,73.73591422099906,78.74484728525829,89.56365466243358,89.03636958359345,77.55161301743155,69.13374149171038,59.621189695786256,48.75536222154154,50.25334642637657,56.43032318359188,50.913012328193986,43.465775309664714,44.26642043631405,46.68019194352701,55.212122499033235,75.36749826777596,89.6679230383926,89.10888703569216,88.10645885179703,89.2214592231179,84.39111597936046,79.23095035773012,73.50440603726851,56.083085241397725,37.77027662365206,36.96012403315284,43.77556387864048,43.79584887111986,40.34804124468218,31.75668881360992,16.505033644562403,11.466790514365613,21.71781993254779,29.414127882955906,31.916075153056923,37.6380631604686,36.04923839201374,22.256240472815808,12.113835055429035,8.283066832118385,4.507687365049891,10.106263638949073,23.25075330723402,23.913811141009326,13.706056939722698,8.230912017816419,4.333866746812356,0.027743411697431553,5.739100159113377,14.510412169613902,11.900834570468266,5.376502791026219,1.9169858502407366,-5.366502857184614,-9.321662727130217,1.361939205211745,13.983575556125253,17.608687887091673,21.10564010301641,23.034825514876026,15.019629824240521,8.081835211646894,7.878355441870613,1.1789703641131086,-9.043080982761317,-10.73597381214372,-13.91408303704837,-23.9526908757885,-26.580720382887066,-23.036989143801904,-23.391936647615175,-18.777617135539067,-7.212134422769782,-4.069353471515283,-7.541637159906408,-6.1867748098606485,-7.324075946752972,-13.908944530054693,-12.89827918874584,-7.320283957962349,-8.975163973172453,-10.621921762319799,-8.225925693107362,-12.1527718415779,-17.363512186287466,-12.465478051925015,-7.460045574506237,-10.171017665180672,-11.682923261617953,-14.414850190344456,-25.055256302355296,-30.806105305837523,-26.03215945563153,-24.04197865899021,-23.561839383957906,-15.438692744019564,-9.842005716965662,-12.405945991823984,-12.061877363285404,-11.280222345663251,-17.436373257007816,-18.12181778329384,-9.281245470172104,-6.216118122130948,-8.560798699902053,-7.717081708185214,-12.081379333695681,-21.803100534737887,-22.326369118793927,-18.264937342815422,-21.618533181602313,-23.897974639403486,-21.448545139191246,-25.900291596193565,-32.97444138651586,-31.674687118879326,-29.80442656353003,-30.010064183049366,-20.361207390412655,-6.768489921747694,-4.491893908654384,-6.421741613118318,-3.981949049033325,-4.62837147631226,-6.213478631920395,-2.9129970400774474,-6.542342967557831,-20.01684063112025,-27.87181919562317,-29.971426910947066,-36.09054778240974,-40.53897832281595,-40.36492917335622,-42.42933780743263,-40.04051173423933,-27.293722524014953,-19.19226013671435,-22.29356776859099,-24.59810493093184,-25.313704953787028,-27.540711321090612,-20.145313761808506,-5.32524703260473,-1.7159834432442367,-7.00603763007179,-8.715584787193713,-12.391049310055998,-18.24258693305443,-14.122709726988791,-7.465546259934785,-12.025332542520712,-18.21764279859871,-19.607533748100135,-26.02957164155306,-32.25039850802355,-28.42185875732782,-26.74021418403435,-33.02876607151619,-33.75215703660491,-28.890879757600008,-25.576016745380286,-15.06817255774877,1.6465594679598938,8.860796995971914,10.642113085956217,17.497200725233565,19.733394461089755,14.096952543608388,11.979781382514487,10.251206276384934,2.8826526185646353,0.8389183505004939,4.732154951986558,0.15147798686359826,-8.759290651798448,-10.21138087982683,-10.652748851175943,-11.643452711396026,-3.8062296410355123,4.405419777810714,1.7140390390369085,-1.3256468728511681,1.286920791310481,1.3476050738118184,3.3324708908320977,12.539017956383514,15.003779548533245,7.281238245725483,3.520796914522217,1.7829543139225015,-4.739652235035957,-4.9434981018390972.6497886121326704,4.719590779679315,4.062231238578268,6.417276493491671,1.041348759003614,-10.5923583897569,-12.075258188236035,-6.572731166169834,-5.445102486465119,-2.3721755094259622,4.198265035822343,3.6642852949313993,1.900565475216856,9.066745190201972,14.806073121476432,15.003548843662314,21.413257243583267,28.614231522986508,25.00903839357882,21.167024942344703,22.73069497308665,19.171317044283324,15.759747545449176,21.711817200745816,25.496259297759153,23.01459085585121,24.53741377133053,23.516276741869643,12.083185469986491,4.598265733148864,6.7070724539625655,6.775300336920078,6.5255868235692445,9.689576076260312,5.0400421939715905,-4.136100747075391,-1.4044175285957512,6.896097863156258,8.048071651439802,8.355752742098172,9.001047403453693,2.543017845814357,-1.3616111614100115,6.144530809632864,11.3263346800084,8.82923922579073,11.002918482874918,14.270536385670656,9.012647220116957,4.985899119737459,5.916135004573405,1.6846725725563112,-1.6917997366667974,5.014305735285869,9.700123309040816,6.703337150358715,6.808284162787438,6.2950953163387915,-1.6895063014579255,-4.465585752157674,0.9525568069576242,1.1543417571379877,-1.0820026201549695,1.691497375174156,1.3917406754761703,-0.18326155023098722,7.713695038710684,14.189537038101438,6.6791566423805,-3.213872381130181,-7.027490771295971,-10.215776242390646,-9.341038913554904,-3.3217928280141016,-6.51747112750137,-17.91700177491289,-19.623983151480182,-14.49956384799778,-15.517736047270983,-18.716190051247775,-22.92178394958384,-32.007456137213595,-31.42342777338277,-12.957465941308707,3.7271937693165844,8.575948107874964,11.183739592782095,10.122873155810046,4.508066268444384,7.9803145692077635,17.685126588441328,17.879992864763334,14.74077941296147,17.872381943318178,17.65718535197249,12.785216160704088,13.25475269643142,12.198869921823029,2.1373957708956817,-5.801948081367061,-9.895613040094979,-18.75763262191128,-21.694521728724872,-8.693104781582964,5.752034734377627,13.298640406933488,19.886547220852673,19.088935008032095,9.685561935282026,10.523600273572605,22.10460494244078,25.93008530940169,24.066414331088332,24.28374341380276,18.123185951412346,9.348678790284627,10.97599154735892,12.662735855699207,4.0225629992475085,-2.7526367905257643,-4.883441055968871,-11.537943987837608,-15.042791980723257,-9.160788131289046,-7.087383378086159,-10.798250390644496,-8.857600221435629,-6.896575798521569,-11.720906775792931,-12.146000978977662,-7.990676337339687,-10.332138985412582,-10.563449595966885,-0.5388731741937218,5.2072466027880875,2.356646785977897,2.966992210736535,3.3514014375740455,-1.631347829528302,1.6347613898660562,13.249103389157108,17.30148372921018,18.292932796736032,23.058408543280244,17.535197244155707,2.725725868560169,-1.9382084700458027,1.9717959019847646,5.071932800440195,11.851517652846727,14.769631782142296,1.1916914691011007,-13.04077750100526,-11.057485493914808,-3.9880974608115243,1.146937234107882,10.250354697725756,14.824008245078359,8.787422720315227,6.405953384558946,9.93273746014822,7.666757623280073,6.677987636910018,14.75668086369497,17.356381182625604,9.119144799007124,2.3441076257973235,-3.4573936243353867,-11.30604032355998,-10.172082146426552,-4.015437790415692,-9.124487314801193,-17.607940536222277,-17.080522614713374,-16.206094957042822,-16.21579408163149,-9.061108502631836,-4.360392270948706,-7.7387811982826795,-5.4326500815958125,1.2679243477436737,-0.11243444302694927,-0.6531189595931026,7.22138549133275,11.373669228211956,11.02392561718741,14.958226858483645,15.138035981358113,7.029698771362873,3.7391445066211912,5.621513874236141,1.7170242873119272,-1.0487798882319437,4.732923364333372,7.614380536502305,4.863152056491801,5.836884519294571,4.403652792653,-4.389290308898927,-5.82493425338374,1.4117376150412078,2.1110798345318926,-0.0259970079145172,2.491843364726356,-0.6579078147300641,-7.132099222971873,-2.917489776551914,2.949903900627888,0.6354464150782615,1.8762307560526077,6.224151271757259,2.1469802778419274,-1.2921947689425153,3.190542278204373,3.274834295677638,-0.45818403465820734,3.242073026609222,6.361495561461824,2.2833504576465935,1.951336750897971,3.535667539964627,-3.272305832230294,-8.619908203542304,-4.874870291305668,-3.347709277637029,-4.24147148058736,1.1726939338539513,3.5393647975495637,-3.2023002531314915,-5.730202933807176,-3.43201459925564,-7.213010466654535,-10.238382602268034,-8.12623016556226,-13.552467206150439,-22.285641669094847,-18.04235378090454,-8.149150643631884,-3.244508993274099,2.9862818366872275,6.034419960395429,-3.067126194344487,-9.770977921890024,-4.119426391550229,0.10933385062689777,-0.40359160148685147,1.8236336207152697,-0.9603704117790379,-10.372674051549428,-11.053748944543546,-4.446043867923883,-3.8995938874068,-5.176847657335756,-5.227834201489845,-13.809250977504307,-23.1263391237516,-17.114313950219874,-5.676758352635563,-1.4722116164487575,2.0765489358242544,2.1924628375533604,-8.950735468959712,-16.46001937395432,-12.305644514237258,-13.07695477777986,-18.825303797414875,-14.421563487095675,-6.342538502650307,-3.562903224623632,1.1764324353576872,3.3774279327762584,-6.573269701451528,-14.449606481582824,-8.82269226477106,-1.976518417461121,1.8026243591700843,8.216533722774267,8.563409373975187,-0.8175415554335621,-6.76329822056298,-8.567281450796163,-13.243839632885651,-11.170091071706565,1.4366405366701969,9.433716183278923,9.447160265856326,9.4810681712564,4.854814537969874,-4.20009480911564,-3.119844656313469,4.550090080168592,3.6708559368786293,0.8413393132331942,3.4477972548804576,1.83647525761747,-0.7756781652304363,6.6738670471638555,14.04656771593029,13.56246047901172,15.32571631830225,15.88783418464242,5.463600650946517,-3.331076954178977,-1.6740229874314414,-0.9035002217293167,-0.9945811851343571,5.716235927326812,8.830851828351818,3.4134865959776266,3.302128686450588,7.66214713657607,5.059056627969439,3.1322724592016575,6.971901777092454,4.54736767306429,-1.4050046706861072,1.1701602251781487,3.0644876937483985,-4.113499013220023,-9.516116575517783,-11.53912408166877,-16.21237457638377,-12.964675200043331,1.5959096542792954,9.419921600599407,7.296050568342077,6.848201979785047,4.18231983578696,-1.7570506363687741,1.3191989570358813,6.595531068979818,-0.1305922319606312,-7.901458152650939,-7.004694449632545,-6.86054173372386,-6.582470406073182,-0.13828362444995568,0.9231947664148487,-6.358452892656155,-6.352089706422516,0.06829405983636594,0.2194680827996609,-1.283054583481258,-0.33970268666383885,-5.028226481213777,-8.834742692537333,-0.4457537826928655,8.1606149137573,6.33370524883604,2.511992694440416,-3.453044121918217,-15.897232303937471,-19.844661875709413,-9.551029084980497,-3.7499672626052525,-6.339423859311958,-5.554559692015831,-4.801611140013715,-5.206823958354393,4.303766023112852,15.265479363015787,11.63689847844266,3.6498482269546777,2.236732496003003,-1.220557352508363,-6.567309860355264,-6.687609471619543,-9.31120087032816,-16.00010109458227,-13.612358209302514,-5.725702823011893,-5.477679394553561,-5.814533306575381,0.339300984143716,4.306008480423376,7.5433267084790945,16.604251230144957,20.586609024800932,15.08507076008031,13.933896159036216,16.705947866072258,12.862766327852121,9.163519253951872,9.367640417698945,2.995579826966357,-4.321801080267701,-0.023598751454381617,5.562583153199941,4.399190605411729,6.732007808338831,9.438730131129208,3.6792063231053387,1.7899950550634447,8.320757551039613,8.192303927340681,3.0595813632266093,3.8820892354988543,3.1908389229720537,-2.0446043653465136,-0.76571164955468523.129988742917819,-0.20356213281319535,-1.8132665608429637,3.4707550265003064,4.473504624819496,1.847426875583539,3.7269055356349305,1.7385589833382922,-6.51592325443049,-5.693062615967495,3.2148214532365404,7.112980469812706,10.952810006403588,16.826611588243786,12.30884520503579,3.267017099534464,3.6027522886996595,4.145550670066199,-0.8796677702800584,0.5387014216075179,5.826123580677896,5.6532729738493845,9.134451736931862,18.224439791923697,18.688323712280862,12.525123465228797,9.728748641893024,3.9170762017000396,-3.7705654371458674,1.2876608281383959,13.336810928315805,17.87956362220067,20.385654258057695,23.36439402331616,17.72850210160438,10.994114531930279,13.814398057949218,14.751183718797728,7.902582497051627,5.327841592936509,5.607100809775935,0.2653149194329769,-1.8657268372069127,1.8428015258000363,-0.4794579135712822,-4.811317428757918,-1.4342414353780817,0.8137784292847361,-1.614595846168514,1.7244871293315318,6.542355304908501,3.5216677803272995,0.7561652708440375,0.3545113475131536,-6.600920562409163,-11.51830948591312,-4.387915932864832,1.215922829855106,-2.2881944089611923,-4.83724627231747,-8.492431244621521,-17.495230397500215,-18.05393064094958,-8.086470673489908,-3.831414905135279,-4.12440968726816,-0.29104644801528523,-1.7930401182242433,-10.006558034021946,-11.103626187408942,-9.538028024588964,-15.558982041677499,-17.551847365624553,-10.060725029686157,-5.879712369869617,-3.4168842555973704,3.4912956978659566,1.17883105362577,-11.78033563616689,-14.78422571372387,-7.25727963130783,-1.8061061740614475,6.839504053801738,17.625432514908,15.924272440196425,7.82351225604735,6.428258022516424,4.032647703377673,-1.445021078777843,1.6305874478378235,7.493935496989887,5.443811488572402,3.8619836817209214,4.896735021438003,-1.2898642632465083,-8.136387598454817,-7.035805876118222,-9.343955832575483,-18.424090111722258,-20.901188840228194,-17.857351473419932,-16.569227920745835,-7.93703905619435,7.299720188777037,11.968332530128695,9.093821948656684,11.969072703085166,13.884413803035661,11.580361704844638,14.700718147609404,15.575165495252833,3.8505950731455667,-5.626623958876714,-3.0199956846281837,0.8741576194891219,5.6921460566564,14.910919252576415,14.692078612385764,2.757750729462419,-3.1113533880959037,-1.0339745457015521,0.6450041058249116,8.403878671741897,21.177433038965468,23.90188507607085,19.74333674500162,19.56424488269225,16.80341945442015,10.585697209758717,11.285000369384052,11.491532222280005,1.4582747766399726,-5.89304459504133,-3.8962201699875916,-2.847390078674135,-1.0268675385377293,5.212331819375864,2.662981512651051,-9.716013969897967,-15.143592079804986,-14.53362309783535,-17.03430348286062,-14.330174184600718,-5.946829887983296,-5.258051075844955,-6.784934178071199,0.3327497771377317,7.9499280456495605,15.783822376229564,36.44564474820074,64.58197062524161,91.32828828965762,124.71322184861451,160.44971185449683,180.9890956226553,190.19592156946842,198.47234850077388,196.63189061205176,178.76937793833469,151.04200507829106,111.04360838159644,63.743039287467845,34.0378730962895,25.134119925777604,13.033429242515304,-7.851233023467614,-30.80724099267219,-59.528784399043396,-86.63865828383138,-102.18136312383528,-121.33117423782016,-151.88196253210165,-173.4495371802704,-179.68663345801284,-184.6436515393534,-187.98816032681057,-187.72110620956238,-195.68264968470314,-206.36715818809682,-203.04249272637554,-195.28953713851715,-195.8198942648513,-193.6353245071162,-185.60408089713326,-182.10380119116206,-176.51109666824266,-161.06290051479613,-148.5250248136432,-142.847151311142,-133.94417118377464,-129.34908658263038,-136.84431295944754,-138.01860357501735,-122.34068916921626,-102.52518841237004,-83.63406635473234,-68.7385544845364,-70.6551956075327,-80.16192534861696,-72.73678262690885,-53.20795671779527,-39.60524036372317,-30.74012025574799,-26.320997674073812,-30.526927713580033,-29.608176123937962,-15.437100300550515,-5.130282720340121,-4.467882992634082,-1.2636160006664698,1.196040593432304,-2.0435359703128464,2.079418875316951,14.682229432350518,22.003674509606075,27.68554786835036,39.81595128543905,48.93060452620712,52.994519169127166,61.52482818458638,67.07743398171316,61.71779152374645,58.68310135492815,61.857391989591264,59.576163554389325,55.6728839382068,57.34145154986595,56.31250502241426,55.39143723402842,67.89635612942651,84.71657873969188,91.92355122757559,96.18018641532372,98.50431996908173,91.66118563999736,88.00910721554233,97.94710845725879,107.80842395770071,111.95018849896472,118.94636668798199,122.64222446951402,116.39939747755848,111.0929026657274,108.1215284690468,99.2834910006518,94.99795411612878,103.78753806876938,110.58941415058594,108.5023253760096,105.49694668443382,96.95785633675847,82.06878020146982,77.7775133322437,83.15294019064535,81.23610838052343,76.74772758947837,78.03348063369677,74.47048454390469,66.80768988963322,66.65220715281886,64.84896011714424,54.30592897186216,50.736731687050735,56.0792589902852,55.48693224116322,52.6708555911719,54.26548770270108,49.728022232862386,39.60305091908399,34.964627338549725,28.98079609053987,17.12779607826249,15.266066264714166,25.310401433185124,30.591146755672156,30.200500233819092,28.733827034640722,18.412518347258647,5.304349376327264,5.69981721675176,11.910378829543228,11.108846315847753,10.88137995855397,11.481015082680264,1.918473475076254,-7.955319061090052,-5.3374279842014065,-0.41251647406483694,2.577384118460161,9.47249648770599,8.2119646866436,-7.03735440220125,-17.16790202909615,-17.184154930892735,-18.408555280729015,-16.321051587414505,-8.639809821214609,-8.913184206234929,-14.107940785815288,-10.588999190940987,-7.4410502383326795,-13.704314537768155,-17.108091103675054,-15.774652642513015,-19.31376089651485,-19.719335193177592,-11.46292826205336,-9.948511777765935,-17.380219832057644,-18.239946595449403,-15.303009004465093,-18.823576744115414,-22.11395560507139,-25.33391874463384,-36.71804684977845,-43.163776459693686,-33.30075280067564,-21.841504218962324,-16.01065350123076,-9.504045820023176,-10.231645949582068,-21.361858846084406,-27.288890718346163,-26.945198956273288,-30.441080059084296,-30.257040255947736,-22.372866457688897,-19.45533563667151,-19.640701875679376,-11.975238104304523,-7.256567673976907,-16.216385802780074,-27.089793280663166,-34.031578585303876,-41.53413333061469,-39.732406986732585,-24.26534376274546,-13.471853634175975,-13.265230191809266,-12.369647538667135,-14.745298141548211,-24.040891430835472,-24.3620924412926,-13.212875814847624,-5.56557606614588,-1.2381186103416677,2.330274815841502,-5.134713081897284,-16.769125506233845,-13.4558972979666,-1.8274333164453802,3.3149464543723037,5.685490820485094,2.9681769469244803,-12.78490539018444,-27.591258556337802,-29.76763789407034,-29.59017456927519,-27.20968291505848,-14.004999983536576,-1.4663906301477492,-0.2214491584848246,-1.9325102806622307,-6.147288966847358,-18.454157963567262,-26.73577094487596,-22.37138765663622,-16.89459579316091,-13.262435595586078,-4.320398683394753,-0.7432511862848443,-12.795905501176051,-27.209295154084426,-35.8977616226678,-43.41107543663801,-41.333103688521014,-26.838703772317285,-18.599880179084632,-20.557269673891565,-20.67019353922257,-23.495226117887626,-31.759565069477503,-30.52901631596181,-20.301375842675974,-15.007000751203542,-10.991739959559059,-5.609854985693172,-11.31350293325992,-23.43621461013015,-25.332985463000902,-23.022310197469842,-25.443492765940064,-23.324756932058886,-18.60375901141274,-23.09876434185606,-27.90894562815277,-24.194698533888797,-22.640120256683634,-23.416316980132777,-16.68571133200037-11.337769531379132,-14.831724451909253,-14.757976376373211,-9.982498669831529,-10.792149752937647,-9.138503174700906,0.05202619197677949,1.4194756077949537,-6.352866176054421,-11.405396028108724,-18.28095997222589,-27.077043474238423,-21.45584921251882,-4.188466687679018,6.41376167363448,9.608573845611373,8.108964380006325,-4.502011179910969,-18.542425875382378,-18.005424293804204,-11.378887967908017,-9.900256892774363,-7.350197696462394,-4.993673359090862,-9.571302840257951,-10.677850445463275,-2.468808380849953,2.6054058494543324,3.769818093883267,9.450246987658852,11.289358669928243,4.781166520597002,2.981499943569757,5.561984836130367,2.2909206025400204,0.6242392122560081,4.130973857855287,0.5776910269454871,-5.03739191244576,0.6224992519572954,6.953789710883658,4.111697818255474,1.5235353261453024,-1.349051566724777,-10.005688713381648,-10.70462397542406,1.3364483349448042,7.9823161080357865,6.062920862884493,6.779135606325223,5.4321525676733815,-1.5162872222387116,-3.4557483676401954,-2.870772623847569,-9.34528353478548,-12.766191211038041,-5.69230582702218,-2.0046450312083017,-6.068025224163226,-9.47174111270212,-17.88192361773692,-32.07041124364143,-34.013004051652615,-23.445742928583023,-16.898023528232375,-12.560233573829036,-7.108881383641143,-11.65232853429394,-19.94734248469976,-15.11477897968426,-5.3373373458543805,-1.6117875705772393,3.6160310419986526,7.151491339426545,-1.3112940192681748,-10.675872071979864,-11.28979572251737,-11.887800443648462,-11.089383564442452,-2.000224222652877,2.985639627882685,-2.6877117602229386,-4.690795776696722,-0.5909351979135684,0.12777977110073435,1.1950302190525544,3.9595801601394993,0.2384474343509524,-0.4705675187644837,17.24434648925867,43.16828800811457,61.999001755165935,74.07771547045976,74.9793932647843,60.044559817001264,45.37670075407482,42.09933132600417,39.60355352043388,36.64564147012969,40.27422984255765,40.487192058349756,32.793744256727294,31.20198618943089,35.05662741905817,32.95841097481562,31.166386513204586,33.23590150752211,28.04656823859775,20.068574160077645,21.996138935907485,26.119531260563576,25.686256105144153,28.991157305266086,32.53163459686474,28.778151655916567,30.540367379035562,45.918607027237144,64.35386427398183,85.16951916515133,111.35708978647446,126.02600592405562,119.99482464227432,108.5776105182378,98.05004369907874,84.78409803802799,79.87144730030906,85.83842641968522,84.27177485210939,74.0635857948525,70.02023023896113,68.93848639277883,65.89333826809894,68.34708816330469,68.84832069081043,54.49825856130115,36.546009774876126,26.354992348952507,16.707128959442702,8.500403088012458,7.8008115985998385,4.214236035845636,-5.898294741365045,-9.27809003185476,-8.271129312209757,-14.124457306285905,-16.392220473652593,-5.470229006404793,7.684052468241319,19.729867863400116,33.29665022946634,35.26714914630956,24.483509687009906,21.81365954748393,29.183336877445697,31.618208343768625,29.405121276623568,24.083714772345786,9.699355513759784,-2.7432581851300295,-0.06981910554312032,5.3027179879533195,3.347201046701836,1.9318218043340771,-3.4395141278214685,-20.288039729501413,-34.43903856437176,-38.09347801903684,-40.171643388257834,-36.875466814541895,-23.87654348694334,-18.859395541269553,-30.43764241643953,-43.56071346681386,-53.31867510115607,-64.13326322380988,-66.27961070497246,-58.42209060555594,-57.392000340083925,-63.08616797825482,-65.30516265397708,-73.79737115080373,-91.9782529852456,-101.84940194831738,-99.85537770653399,-94.6148078161568,-81.96632447905229,-67.90361533039199,-72.11309619924454,-86.71678288537326,-88.87355088244146,-82.23878023228116,-75.71656603491414,-66.03161398096064,-64.59257488732199,-80.7231534941877,-93.33906648652737,-90.01689829558404,-85.8548606201964,-84.47940464357222,-81.11266238583518,-86.45561203813361,-99.93166852473644,-102.94230676689708,-95.83394971985236,-90.15685889552782,-80.54692659107607,-66.43214376643715,-61.5788042442983,-62.38201527644248,-55.962722900090895,-50.04879055283021,-50.929450085438006,-48.770166156746555,-47.55640912608936,-56.78508423620434,-63.59821748039428,-61.137745693929936,-62.65082932666378,-65.8699617011579,-59.7151097825983,-53.38867599198245,-52.187474575139994,-45.26586630877336,-37.51301462319526,-40.180781734380275,-41.967228638876236,-34.957988406518275,-30.349335946133564,-28.08345662166837,-21.174160657242112,-19.09012784913366,-24.803579646860243,-25.293004790960005,-22.36966189428331,-25.418729287212557,-26.249739651091165,-20.815476268044964,-19.675613815325804,-20.836456091682,-17.416686085223404,-19.133406690674622,-27.634245970330635,-27.695553394835258,-21.670785750609667,-22.14330250244105,-20.660666194854514,-11.557942220100792,-6.823089093475394,-3.4307819408329916,7.658775420101515,13.228946288334782,7.47415303446948,6.2080972047554415,10.49846343660489,10.504974285106027,12.825134731324212,19.275764535031257,17.5921768812199,12.134229118894364,14.717078838512625,18.79727279677931,20.55083549408129,27.62725404834704,34.48814598510609,32.399312155472856,31.06662171136777,36.539946510499135,39.59735257138924,41.31721698540769,47.43484705493151,47.905629140671586,40.17991020862709,37.071844532038696,36.355090956989415,30.557597491367233,31.871293597039852,45.382343516316226,56.441067764468386,62.61139549639374,68.24598483202277,62.51139035394861,46.874807106889804,41.748860708467305,46.510011099203,47.69218660832074,51.1225036568603,58.25559375025239,54.954715063746065,45.41924483764268,43.6745563557439,45.03538750789568,47.18457538407605,57.8512015492487,66.9190479588245,61.068471550008134,51.235445240353094,47.728503089361965,45.934562925459986,49.1730495739219,60.066905363162626,64.40288538070324,58.62059867980804,56.420825714964444,56.229297892576184,49.94572585457112,47.98589447632047,53.80343313237871,54.26159575172639,51.86978513726673,54.4997150469836,51.0905963364037,40.376640876583494,38.54047932994906,43.39384165922718,44.157719848252086,47.512684503913874,53.663650516461075,50.609999636099865,44.822084804961555,47.750192264603804,50.189667867235386,47.507792916122476,49.84903965611319,53.38310998964252,49.27511786165839,46.979258873723786,49.2377278841046,43.32522474085527,33.68922822231774,33.50201496436648,36.99687860644736,39.8270405097532,48.32287905600593,53.142659810210645,43.54187173446071,33.81385325929991,33.931950304678494,34.34694593025853,36.29456096527835,44.547924556055364,46.09274680820993,38.65655073153219,37.19021684980446,37.76092071998944,29.455487769361923,22.66015657690643,22.273081781073195,18.173932117248885,16.99815129918528,30.466115217337165,49.258148036488784,66.9120369541428,88.16963640808679,101.71575940209436,94.87247310559154,80.3356638565128,70.24964148882387,62.323970345019546,63.31231868834556,76.91654517549316,85.04024062503461,78.38925856456676,67.93706410114488,55.83505308768786,41.168900533275135,37.54536492149718,45.89532425327398,47.6791115394695,41.28230833725005,35.453005135383066,23.128205499453276,6.3006566696878386,1.2698676102845778,1.9110073351839403,-5.3379103640723375,-10.834341909039944,-10.455441164772344,-14.621318953137848,-16.71256031609583,-9.765717751090294,-9.486639013940001,-20.182637381510656,-26.798301632320502,-30.714071133494123,-39.84651217367512,-43.57330317548276,-38.493637663390075,-37.49123050542077,-39.2862658403973,-38.43488431377011,-46.30309456439678,-62.264741751189874,-68.12146831481168,-64.73119773896988,-63.8987611598893,-62.13975405074943,-60.53663538121019,-68.85785541942764,-77.6483757507667,-75.34351759553395-73.23199513778461,-75.12904213586731,-68.80899188103913,-59.99011262637087,-60.48067120085092,-62.58212641450736,-64.22633913077982,-73.70679631238144,-80.35863930402245,-73.23297391458954,-66.72330464818745,-69.33573092920314,-72.09155151027464,-78.28018050122262,-92.39372256548363,-99.15241361495113,-92.72482517569358,-85.25435461907124,-76.32957998024347,-63.5807642499164,-62.396266468090126,-75.03390433641754,-83.05636802655599,-83.8853327080486,-83.97805607355345,-75.25329248782504,-59.507710274288,-53.05128162189247,-53.671468556490474,-52.81182196379568,-59.369672178569886,-71.9267957895415,-73.04511013596507,-64.55967988219592,-57.42058155331182,-46.82207970775498,-36.07428424027585,-39.05049883160108,-46.99576236709849,-45.90567106119467,-44.93978023105573,-47.44838551956723,-42.06950224813898,-33.993205169013066,-31.542644575193144,-25.659014887350565,-18.979779895321514,-25.712588982363545,-35.954034395083795,-33.65918209422168,-27.016246385949813,-23.242985535694697,-17.578526471462382,-17.81363601032648,-28.502199107209904,-31.9771431739578,-23.890014730845472,-20.344639001376027,-20.506555183055074,-16.87622169411149,-18.023456201554904,-22.414267756050172,-17.15038479915962,-9.71056527824317,-10.00331530576596,-7.312614620356628,0.23252428067334519,0.8988156140725673,-1.0517234804932967,0.7519732649568365,-2.465428041293883,-7.34176506225528,-0.11098953782878507,10.148576929142287,8.070310397132666,-0.8158598262263221,-10.791476568490403,-20.90419382932204,-15.838008825539323,10.38288175500891,34.82530204813792,42.32047150911192,40.33370621501473,31.601748662167203,20.40447899214213,23.8057034519146,38.87556396086672,44.163268281528495,40.98560700181628,39.66976864199298,33.4465165605089,24.070611568071293,22.843885133405898,21.211062202880843,11.727767292749,8.639454733574123,13.767700171663575,13.746213410493109,14.245460315147152,23.124936091486106,28.803745708015825,29.087241989992425,32.66781595253206,31.09590435613067,19.489703642617844,16.25090986627783,26.632179946667986,34.74597319659499,39.05352074834866,42.38100231873422,32.87330757784152,15.002471669261196,10.492954517352786,17.85928654966498,24.11266629567433,32.994821539923805,40.902177272425305,32.89053518169266,17.928437742193776,13.55785850894896,13.417940419450163,12.527474617176614,17.325326738762094,17.43593968701071,4.921458070448861,-1.9687532625144555,5.246873427256356,14.130546742312154,22.54512977037465,30.444482424769205,26.85302090159933,17.22299455331488,18.90553373553105,26.454790740074532,27.152233853135375,26.06509137966374,25.4880343236769,21.863140599594363,26.41408684689978,45.06205973210733,63.24640319305006,79.33555812342233,107.39641308736316,143.28092793873407,177.47062076030187,214.76928845181646,245.63342518088737,249.9422518140947,234.70126143887427,213.77562874292238,184.84335748933722,158.6269712679397,149.84155435274127,141.80108387943207,116.93825503387157,85.02644519607843,51.55634228316545,14.676317571433696,-11.99478803306792,-26.285507635773975,-50.04174323407614,-83.81275869871496,-106.2987853193799,-118.25975377093928,-129.21991761719116,-134.6380295508185,-142.91050409859707,-168.2448200540387,-193.20853912731752,-197.6837148946757,-194.28521161828013,-193.38384244423855,-188.82997114118388,-187.7817706577109,-194.6725075825668,-191.91048315882492,-175.74179385835558,-160.7774890016979,-145.01762633472802,-124.29031253204987,-113.09297065700525,-114.76045095861615,-116.04520827679953,-116.07992279387639,-116.09195899637912,-106.67018767695808,-93.32369416068056,-91.29352506478864,-94.91825127515882,-93.80784092636888,-92.39178640614954,-88.46559166297723,-74.05931940531975,-58.51273169769606,-50.57156629207742,-41.65946363350332,-31.931200522238676,-30.84795203090559,-29.94574557664011,-19.515418079469846,-8.56013100840537,1.1251557941356096,17.115016661655673,29.4058052295897,28.816719384196503,28.496157555538446,33.3433288144153,33.323142383537515,34.45999811530038,43.058680867953385,45.11288122820973,39.577984482970436,40.86666377641285,45.24683113251921,46.876971989033315,55.30418944260655,66.97985041710574,68.07657669108862,64.29686362316686,63.1326155348424,55.79390472297291,44.04645785877635,40.38804111294147,39.87759142164857,36.37894467786961,41.37004977833933,56.36412491600095,69.97819131664534,85.54870762832692,105.34565154190244,114.37100049510333,111.91682342057614,113.23840480837644,116.45696183347918,115.12856235635829,117.01062540620309,119.42420617791397,111.18614855340093,100.56576596707119,95.80330031048294,86.87808261053385,74.56754758442887,69.45438795376084,63.291257194012104,49.85586679463311,42.314194713825884,40.625890980781556,32.89214807919507,25.755598748949456,24.397260701368896,17.375375420181502,7.975286169856596,9.275433512412308,13.158614828576974,12.04179224482516,17.78719163014295,30.341057319352956,37.07041081466639,43.49531382106536,55.45339218292965,59.50423384676761,53.63491990983316,49.015929369193216,39.98848302538833,24.132441662745315,19.327081615465936,26.457910392490977,27.780663257358526,22.473598454964886,13.877476326041185,-4.980904853506868,-24.995905857181196,-30.335569523475158,-29.89173506823742,-32.91129995477907,-29.056498617543582,-19.38161096973142,-14.947037118957443,-9.791005995953563,-1.3604127735199878,-1.37300054331484,-4.9715424446963095,-0.11933999386763716,3.7221967806210907,0.4234710981987153,2.526856208191408,10.174868570376777,12.281006944402973,12.320506220175766,12.434630176919125,2.39205132256072,-12.159511652987776,-15.068722710516806,-13.121803532209011,-18.518797362945946,-23.697222697279642,-26.59089005133491,-35.31461173989633,-41.07355965390694,-37.41704646109661,-39.25261962632203,-47.132819161185424,-45.12962559192811,-38.066109449463774,-35.46485888391972,-28.753702604077066,-19.45471803268707,-18.456387734751587,-16.67416696825444,-7.838822020878524,-6.559188230891864,-13.03108749465568,-12.692118563192794,-9.521398569363313,-11.09741492551757,-11.733096790002616,-16.084798609795506,-32.24478751668106,-46.393406890777705,-48.05583692633877,-48.64381260311304,-51.132277802484374,-47.65204007963466,-45.15869501879289,-47.976207625600786,-43.21103032750497,-33.114281171250894,-32.30758195059253,-32.82489840089482,-25.59648189296213,-22.696895208337025,-24.259738715376404,-19.180052708816582,-16.71360867747684,-23.412117304928394,-25.433978376621496,-22.63178374494177,-24.55252181191916,-20.215647796364305,-3.8924230870528405,7.109991899602868,6.429381678370151,-0.22167607968851533,-18.367313217848835,-43.94910379516482,-55.173003517165796,-49.64009064651488,-41.56299564747082,-29.144462993808904,-12.442318649476533,-7.47075037614679,-13.154375372451918,-14.273149839414815,-13.675822445066853,-15.776564445655325,-11.142361396854803,-3.682790937042495,-5.068844353373781,-5.761169977465331,2.001663465578788,5.292899760374603,1.5652125824168484,-0.1138870147260691,-5.3530049009242715,-16.224165555033,-18.641490249963415,-13.827554120939496,-14.436723269311518,-14.53022996917949,-10.0357932456958,-13.57608016664843,-21.83472396946538,-19.961376567764074,-14.756078324871659,-15.184292259885687,-13.026500156594992,-9.544450296627785,-12.624878319391382,-11.80376721610845,-1.5493465218216143,3.0074759365557355,0.28975373277489047,3.169070743697419,6.784127684848123,3.9192411246144885,3.2222949526489497,3.236983754718011,-4.516861441843301,-8.669295761556151,-2.3502695107511253,-1.4860547342331096,-8.908472492797367,-13.502917102207848,-21.263059023789197,-33.978287624638334,-35.42565672844937,-26.546035211630105,-19.71061671551756,-9.865236782315481,2.7530166926389663.156297630338427,-5.4567208499821085,-8.91797928965839,-10.270388805009734,-10.910430027186278,-0.5017954978207158,14.301295742238187,17.453477962167284,14.086051095617705,13.11647334797993,10.161853914963658,10.032768212700098,20.306751499059143,26.933712452833262,20.076221948870867,13.26206896045344,11.08537021754791,5.486183129295884,3.0006597340952976,8.40249968803535,9.816654655580745,7.335665092874054,10.092837386314054,9.172161305572704,-0.06941033227537385,-2.1047100393403984,4.616700766690335,7.650522667472957,10.719334742120928,16.55855061902173,14.521242391598602,9.690046524051063,13.733171006272112,16.30899992572646,11.469541232988593,13.57763414807416,22.742707549978782,26.484745409249165,29.068648991326732,32.81572142636883,25.759912569085582,12.444742148448654,7.231087082345529,3.769179605598538,-4.137214876556928,-5.991530711469978,-3.6162796077036012,-7.7894827212290645,-10.175530767145712,-5.365377948863252,-6.373616794900576,-11.800788496701331,-9.922051759172767,-7.286884239149104,-6.722819189072845,3.465426097746437,17.29310166874842,20.317152340451994,19.79735617548608,22.208196474772993,19.21916154132759,15.74219990890997,21.818961498712174,27.239212820718244,25.426822243922416,26.40461846666801,28.790828007412657,25.091065243510542,23.94984399222166,28.02911415510924,23.54475583056646,11.93355050179585,6.081959566733444,1.4910121002668821,-5.996716558848772,-6.075384892883568,-1.1607042359429194,-1.6137403768944563,1.187091798043593,13.891486536634106,23.889067519767174,27.902723508678218,31.97042711381424,26.579688413230848,9.46288961173616,0.33794767062089903,4.709540024170612,12.862784669068702,26.57768454250401,40.96973463481233,39.74188102648512,29.687728556681684,27.85781000535353,27.368769378685244,19.919578621362625,13.031639110425074,5.313208965194954,-7.715112235804682,-13.088359315157087,-6.08266283851742,-3.3034999799497258,-7.961888902488066,-8.377287077109589,-7.894102120134558,-10.894870855340283,-8.973387775032787,-7.338081912260305,-16.19904592364611,-21.58045951111673,-13.636626638643111,-6.906791496402972,-5.751142324573457,-3.411521365564928,-7.074098483761482,-15.559945781677824,-11.69654466359507,-0.4697823456677388,0.19337923498539733,-3.8836547049230674,-5.104164700586761,-11.423519283809624,-16.936564518169615,-10.480213313397346,-4.60177838144574,-8.832218082616453,-12.0175351087591,-13.520746929800268,-20.60374501150812,-23.42043154420699,-17.18206532307593,-14.126092824667051,-12.261696435319935,-1.6722884628021948,7.087355206707974,6.119258027359961,4.730173370305988,0.7209607158031321,-10.541085481317971,-13.259782058190268,-2.6417696251896547,4.480669839400834,7.120828281484684,12.81664694903201,11.15082915797623,0.1625331324216326,-4.419751588978973,-3.7567776848343915,-7.044572195909704,-5.191557292496376,2.703287077205676,0.25984099173494557,-10.536333686867186,-17.182709559699454,-24.211002591569407,-31.79798376139121,-28.081358178304548,-17.87405393964994,-12.914104277538883,-7.843912950352918,-1.0308151299295374,-2.238769163086092,-4.798593015521074,3.295434400624909,12.53665376880841,15.203169263797587,18.504206080400497,17.69224933328992,5.61558381591655,-3.1456140465038613,-0.5931819027473262,1.413677803972698,3.844257296787139,13.276620419032215,17.301284777017923,12.334929779760683,13.212622821218812,16.98010329038472,11.431991139831503,3.9691948745781525,-0.37076208725409415,-7.501335823827235,-8.656786648426042,4.257287383354694,15.358666056880828,13.279562170364137,5.688741705616292,-5.813144280991815,-19.544710392813155,-18.837763798294393,-1.2285138255197792,13.748649156498155,18.5950860945954,16.62979188972991,3.4041998395448543,-14.501727388510808,-17.7711768782377,-7.745497578891093,0.8576692798126284,8.933363553953415,15.90698528763249,10.408835824042463,-1.7713430366333864,-7.497375535280673,-11.55385408149277,-15.158890018908421,-9.569765119713182,-2.727394503896087,-5.414200463886963,-7.720069852269494,-4.354698850967859,-4.629132431851863,-5.134957894847156,0.2858446144423312,0.4921190985866917,-5.854791570194197,-5.015362579267114,-1.0544882999335792,-3.6123217199128828,-3.083995243398002,2.9803804932262175,2.559118629856087,0.7989511027192823,8.566254690301209,16.772747181608437,19.79566101400126,24.715335161436663,25.008753798765113,13.981670446513103,8.472212032388162,17.302125074881992,25.38487919547354,27.810273391116496,28.809976434880515,20.869053031540513,7.312610275618111,3.5105248194612306,2.941159501549848,-5.57299337968069,-10.092272080824785,-4.935829741627257,-1.5689490032269784,0.9937735663983712,7.153169762452584,6.089730960213217,-1.936181745747401,-2.3493527603255835,0.18427223466530984,-5.407224755437808,-9.359649923949725,-6.780969525557676,-8.316388564350753,-10.886655339725134,-5.857897197706354,-0.9962869524208786,0.9288862452302497,8.068203879518048,12.719261202230673,4.931472937437583,-3.933755540539445,-7.28124613896038,-11.968907524048202,-11.724970891607528,-1.0173332898517349,4.909145304930208,0.634056520903127,-1.8728816063645433,-5.979623047816882,-17.259961216743736,-19.98646236706921,-9.91185398389115,-2.8286780592136624,1.672769046579333,9.747093079980075,10.148662549757827,2.2244485548024695,1.329987929664115,5.006675225424641,2.5870244616661107,0.8511357539137725,4.138931955984201,4.672112185067401,6.074459842811624,14.27713329323414,17.308651760314753,10.542681061854069,6.688454731037826,4.5307372464840245,-3.7510144399826624,-7.730548054543624,-3.4519116789047133,-2.5326050071179296,-1.830074013224221,4.969955353439081,5.879777578390186,0.4269268122765504,4.401781132944152,12.816879305762107,12.84847109477482,12.386120384837376,14.141954277306937,8.351836156892197,2.5890010616461154,6.3870908084307425,8.894475610398507,8.009458674896013,14.577807540881267,19.655737958310617,10.642350053888173,-0.5238596483062525,-3.9991807537663995,-5.535174285731646,-1.2723875838109802,11.237697845504158,13.625160199652111,-0.8116147458989671,-15.61485184827123,-26.290266299100324,-35.084506532759434,-29.81242170492795,-11.669943057207753,-0.3367457295812799,3.027212215464467,6.382650025464271,2.757503202241095,-5.639314148662336,-5.9057811723296805,-5.510955560734546,-13.232910301958134,-15.41718795545335,-8.126823880701565,-4.247346907279864,-2.5271804344632836,0.019798519297918205,-8.60137864346816,-25.048144025643325,-29.998941160052652,-24.50073599839164,-18.04791147214177,-6.124405876088673,5.256840675218687,1.349346605454809,-6.585372231691745,-1.6714597916493785,5.952230484158972,6.934828167600479,6.727924712885395,-0.24259309251253258,-15.64309573147537,-19.190415226302918,-7.642730292761679,-1.4679353542867362,-2.2049433275999375,-0.8289021999963716,-3.5397335591163794,-8.688623226609252,-5.754622249897985,-4.757884969702644,-14.580936093187386,-19.250087103748907,-13.463998769862279,-10.937844485589913,-9.916757536028797,-5.331029599507249,-8.938387292301178,-19.687999438970284,-22.461384649572338,-21.355431769604586,-23.97938431919511,-20.04830913088307,-9.604966510275379,-7.406276247258002,-11.684168721923466,-13.934336617786338,-18.31365157377538,-20.296569876044178,-8.790960738325403,4.746724099866169,6.326986126203694,5.079309507604789,5.161712053067731,-1.0650827611115377,-4.255048004578476,3.925733038707107,9.041265063164682,8.14872938766145,14.022531203572521,18.83095797241795,12.194733008996534,7.098206325670167,7.711704316808808,3.201269743996849,-0.4838809734830537,3.4935188383964983,2.8830124838869784,-3.5772972762817936,-4.54878090297733,-6.3523010261318795,-14.792150447490489,-15.902350557053179,-6.934012397553126-0.3983406422543989,4.312052688155638,8.567424552658071,1.9584332466178926,-9.923661841895026,-9.82763662100399,-3.1305248147885165,-1.1660262106196067,4.260354119057222,13.660339798460619,13.741929335619037,9.806791850528306,11.767061999301845,9.838362538053607,3.114650696501182,3.5272163133134757,2.919396674176019,-7.863974034825988,-14.184187273432018,-11.593684454802943,-12.982242436426574,-14.5010758611841,-9.085381589276764,-7.273455616902831,-9.528164931674976,-5.727762092297633,-3.693893632596115,-9.66863445163179,-10.311218656628878,-3.7007438542919684,-1.416235528669494,0.45944946076441734,6.310987901128115,4.249848554454125,-5.555713781989585,-9.642238725460679,-11.306128014313778,-15.65309201187058,-11.94570413483982,-3.3134594954099246,-5.260084063378828,-11.331077002915375,-10.910369839317159,-11.325096096662124,-10.28149810345269,2.6044670472461693,14.551169385377978,11.887923479271288,4.723802889473706,-2.3134572145935177,-12.875123646487625,-14.62968232121549,-3.3003216290432733,2.705385878996868,-0.980034196691379,-2.484554564100593,-3.885213118088716,-7.856222205400337,-3.7176376967127025,4.886010424177361,2.6708631305867083,-4.9881989481674225,-7.87214541691271,-12.104086918228813,-15.462728314023922,-7.949727242731755,0.23183482857790416,-0.9957440064244238,-0.009445492487105134,6.10055237960546,7.265862111468666,9.255276398806807,16.306935211059855,15.938017595026249,11.399846596515879,15.41233891613407,16.826677079515505,7.025231767511223,1.1350211541361834,2.9684114578203804,3.531483140430406,9.15253479158168,20.4570839227098,20.039091822365112,9.866704086291627,8.288262462505653,12.421712644162065,13.393605152779873,17.582577332699373,21.35696651301912,12.504491548557297,-0.04113878038788332,-3.6551144578109716,-3.4098270467669285,0.28070288098294227,11.738242547528499,18.007312384871355,10.207316452184,1.8067909792240078,-0.9765444367075972,-4.567992799088267,-3.7698127061456157,3.84246995617299,5.127882423400358,0.003545286853082974,0.3015827690788271,0.3486407500080037,-5.729980569536833,-4.7844010472531275,4.9132318193121645,9.997044164413591,12.32034601108516,15.2999846140594,9.983178614004707,3.3749966159845823,10.864209683773378,23.641225338477934,29.407331064125664,33.984163210323594,38.763895941813246,41.922005293181094,57.52839480658427,90.33711500573718,122.33256728728044,149.454835379631,181.77524990824136,210.5665927899991,225.66855644362724,233.86267408048528,230.96041499990343,207.24013926533175,179.57668265548457,164.5984408141537,153.1792315417358,147.8269539342801,165.3184976493392,195.74505208468057,217.35560550045335,221.00983969648712,192.42784944096562,127.42802088290318,58.415626356077844,13.758285310393289,-16.85975101079214,-50.72858679494571,-92.14937144239127,-140.56240036596992,-180.03070613596338,-190.22542448106555,-183.77757469594363,-189.69584096894596,-209.57164720898842,-230.8264791639021,-249.8440919628347,-257.48717553126255,-248.13790819449542,-238.66630861339033,-236.9028258285888,-228.2028833466002,-214.04338243805464,-208.88377384949902,-206.17555271869026,-196.43241411204252,-187.0268951439591,-177.1257904407247,-158.8023869600532,-143.43456805140403,-139.86379471429058,-134.10691971100107,-123.51772379311635,-121.35455784351232,-123.58316628181825,-121.98697691164328,-122.89038817736407,-123.19034559673842,-113.17294283813357,-103.00040740079103,-101.30762773384974,-95.03753980478382,-81.66339435216474,-72.93738439147648,-62.500152460769584,-44.56692480914478,-34.12974595318807,-32.62440515504041,-27.90952506261386,-26.55423483065033,-31.29163718681805,-24.228822027671313,-6.479753461097903,2.0163857406061085,2.2296828734526413,2.080922341659841,-4.267788982967867,-10.175274235492253,-1.7678545947575461,9.161901992342978,10.16445266338155,13.605523703312619,23.462003679988268,30.35621497352901,40.11494928943034,54.73662612055071,57.57950811382807,48.67508061909021,44.66381475286257,45.29043068639649,46.68533441441599,55.77045381457506,65.04365506380722,60.39787226175524,51.43090895639945,51.969700808888255,63.929605761862085,101.79988819992661,177.6820046360806,267.6008718206238,342.12561944805117,393.2647326587486,411.97290926639516,399.987088464589,389.20541198083754,393.8784066589347,392.16153123682886,381.1333901051581,378.6211007790967,382.6814067537774,392.99922223063453,422.67763984727424,457.13884125384106,467.6299145366959,456.46498872394136,433.0497174249518,390.5745725850101,339.37290048101215,302.95014713408284,278.3406765145613,252.78256843998906,229.196677418711,201.84721682915298,158.2436476775011,109.82178521451033,69.99563154719209,32.015610858420786,1.1408292545830037,-4.052159162327104,11.956259908645082,33.57444294451323,54.024778675709314,53.00720755801312,10.552777671018482,-53.66520535112481,-110.43321125706348,-157.06929296916292,-192.22114299799588,-212.50805234184165,-233.21010387592747,-261.517371357419,-282.1654950922057,-293.7228328953612,-307.50357487876533,-316.70039603933384,-313.87216226126566,-307.43556249324297,-298.11384674463784,-284.11790143693065,-280.626763995622,-292.8405648996273,-303.5502994981311,-306.5924425072881,-306.48642055913245,-296.057340780975,-278.1609223679566,-273.31302392283555,-281.8228212855154,-287.55016530254693,-291.4761865900748,-295.09060949350544,-288.3355372868036,-281.29219284234676,-292.98240064545075,-313.38351726849527,-328.33324539018804,-343.64465418060166,-355.8119825000881,-356.0957503919632,-357.774461507958,-368.11726173982316,-372.2483432373792,-369.89836987225414,-372.0956251301751,-371.27794369459485,-364.40140764253795,-365.1839352705872,-369.1652258264063,-361.4370928924093,-350.2173576526175,-344.9646674400843,-338.1697516602318,-331.7029500655366,-330.90414053146765,-321.02896247180485,-294.7637186324227,-269.5127083594315,-253.14965150181013,-239.13627352821405,-230.50162753132855,-225.12816866324832,-209.18754788641763,-188.11773329205295,-177.10775723049477,-169.01457082831297,-155.33154098669647,-142.6482637785766,-127.39012157697837,-103.2055475336757,-83.57739630335467,-75.25976745840823,-64.9749721017866,-51.46814696341876,-41.39072215770618,-24.80363102596561,0.6175973906719534,18.164624690291443,25.71950179611531,32.5372923516143,35.20406442367208,37.58813800638298,53.85372850462346,76.65482854937284,91.39327559950509,103.85576593323506,117.58312610715112,124.90812053873384,132.598609407859,150.11600987861604,166.66299219596834,175.89399397474588,186.51794906532376,194.05662545593898,190.86121610103888,191.57292134482427,205.21918637110764,219.53888325350897,233.0472096772749,251.05586440992658,260.9931736228863,258.1518438980505,258.37134965295974,262.85364967003335,262.962660020368,268.3467962883667,281.66119252140686,286.89953294526356,285.5962945355433,290.1172913542981,293.561033378084,291.67593857510826,295.1061730397086,300.10272301181755,296.5315138950939,294.01716181308325,298.35499851820776,298.35332344603006,295.18103283435283,296.3653026856183,292.3275939809788,280.78022076408035,275.9792813032708,276.19448507596934,270.962540293472,266.45881222861954,264.8196627218428,256.6940805264781,248.80452465464666,251.61269004130543,252.7324717928285,242.76226551535066,233.10545501317176,227.05576905914796,219.32154286164825,220.09810733545223,232.9429564230316,239.99857474964068,237.29263034238676,234.8494298452128,228.7115534298523,219.5481833795581,221.1835461805048,228.37399479645887,225.76832070945827,217.25139569598434,206.07641361150644,186.59542716293112,169.0079673838838,163.1426623980497,157.52101507310363,146.96947428055725,138.60146874325966,126.84971198548308108.3745868202755,99.02495531497982,102.52499610848216,103.21324877635018,100.20142873152,100.18814163824884,95.39387660254509,87.85474666869675,91.60408662945144,98.39593025188091,93.66310318549233,85.96261817117207,80.48070605811787,68.11217412877475,54.57764393909085,49.58318099069519,43.255782169807915,31.601508220591914,24.925914135379813,18.42003917629384,4.0438593426679725,-6.048153510760066,-6.402916296807556,-8.209085996209156,-10.00984073700598,-6.5209463799668566,-9.781101584298227,-22.441946849176386,-29.699991000305396,-32.28699487819536,-38.040678626857904,-37.40108764128442,-29.10260074210894,-28.986397297935618,-36.528164759810814,-42.57989508150006,-53.860931205595634,-69.55824378030036,-75.28384842847595,-75.38260160877519,-81.60118974868041,-85.42828044517077,-82.21173742838451,-82.20575051411868,-82.32382622371632,-77.09929142400613,-78.73304927876995,-87.51597532909929,-88.05709460825504,-84.42744300106905,-87.201770925164,-88.25118384976052,-85.49594923104681,-88.61093049968429,-91.09955771553686,-85.27555779944647,-84.0231941964786,-91.52026497207156,-94.49792151466697,-94.16117452799179,-96.78652541408282,-91.01431499699386,-76.20233203734475,-70.36599804242988,-74.60118542149243,-80.56309710172164,-94.285614879361,-112.71749414410797,-120.50920353768691,-122.674739761086,-128.64218751857146,-126.83475760100424,-116.12656074897285,-112.33583898342499,-113.07609964382321,-111.25301535574705,-115.58595228621394,-122.11590163760685,-117.57341586069317,-112.31862263990546,-117.26597525992923,-119.23918196145698,-113.27770776417408,-110.3265985339815,-107.04998949207801,-99.27496472451877,-102.1002963743011,-117.45123631255937,-126.56056228994244,-127.2210087986257,-126.09017211780998,-115.66893260299551,-101.41732180700077,-103.49434152787148,-116.20822542598484,-121.51843624641083,-122.7728683146881,-122.47974416186352,-113.43611479826987,-106.12641427633788,-111.37385051458429,-114.03783895845345,-104.13132533529375,-90.82848550454266,-73.09682002624673,-50.294769033182035,-42.231883646041375,-53.72888918784169,-63.47172728501073,-64.30638124148213,-62.10000328238772,-53.537629315088026,-44.9629294439958,-50.19733724008785,-59.129108670269844,-57.80762013565649,-57.94556675555948,-66.30459887127289,-69.23461151462382,-65.080721617741,-60.98003333464011,-52.43637902076244,-44.56152621562375,-50.09822500138097,-56.83293760485375,-50.542102500282965,-44.98553736959685,-48.36015533055988,-49.93117770101488,-48.447040403419514,-41.25798085182899,-15.226769218292048,18.397569440083586,33.237839475713805,30.71265655116474,22.24437496253025,5.300329908462647,-11.919508755863292,-16.151693559215033,-18.732336067947884,-31.171660318546095,-41.66786980641714,-45.599919096578866,-52.485198052291395,-57.18519808743693,-52.15806536318219,-48.71727263618148,-51.047642168337745,-48.69870727758342,-46.281200305886415,-52.49549067744867,-56.6227689371834,-54.42497394137628,-55.94419869112413,-55.85761207001272,-46.00710789836922,-36.48700089914765,-29.699050461835967,-18.563307612117498,-13.730689045092127,-22.57315182593555,-29.003546454534742,-27.12742638167648,-27.249773006672445,-25.331011759210124,-16.747570078825085,-14.682919707943379,-20.496890920718926,-20.901574721736658,-20.19516400401134,-25.32411271826179,-24.513349918110194,-16.57434542477271,-14.55298875915613,-13.890896019647302,-6.812497600024214,-3.5309434602297154,-4.570580460028241,2.6084265249930034,12.299900882071547,15.272196036470056,20.8569746811518,28.72237915316019,25.630558698230146,19.008491683456278,21.606851887729643,25.176679676179027,27.777780307556043,39.83238095203969,51.357635669055526,48.00456437670799,38.95968706625247,32.17323087099963,27.040539691833832,34.058128878883686,54.06161592388905,64.35292834824205,54.38946840826961,35.67344099503482,15.716529250656869,2.8026637420492264,11.913262689832957,37.68536598015138,60.848944477948095,82.4892380232645,107.67363467232032,123.48682681315604,126.24192637394354,124.91514069685961,114.87629500440705,95.48263387535022,85.36226852540587,87.21230198996969,84.0505316067844,75.42712229486645,67.8731354260705,55.99779834847604,46.69236263853685,53.63008064901477,64.62497567093267,64.86020844249425,62.44154029417602,60.01856320014272,51.886145163830335,48.30072007395366,54.43439771914754,56.55454499466576,55.44646127652484,63.54209626687303,71.1705802113258,65.72054176442836,55.76207936451755,45.399221483861844,30.849984896993277,23.811597857753377,29.995262580770294,32.351428511386096,26.812928038321452,25.55458694380922,23.397949687743683,13.86826333340652,9.690150973501105,12.536833055754055,11.775716282988991,14.76606658022656,25.238660853865202,25.53799560025573,16.26850571533108,16.268424997536304,22.230268766665755,26.548731631729243,38.504956650185434,52.144736911417006,50.71102674386693,42.58933315403414,40.51977368355817,37.851777982794644,35.040599470484715,40.778437671339795,44.6986072271268,36.26626390609916,26.785501161430616,21.22814607902708,11.531275620615768,3.9908522567802276,5.816715365987805,6.535209916661822,4.9108469818649905,9.956238455315685,11.384678606856003,-0.7452857880735042,-12.568581772990106,-16.93685370963275,-20.839730225632508,-18.467425893951106,-7.745483757704462,-5.772294117044722,-14.076114887776598,-17.424350315208017,-18.830228427622124,-25.371232931121774,-29.212322310071837,-33.23764577824693,-46.7980060909895,-57.590332228983755,-55.50409359880732,-52.7757723914156,-52.68266207940184,-47.62772069119358,-45.7623610118194,-51.00181130342608,-49.03239028991429,-40.947834716497965,-40.04473105472143,-39.23459267383348,-31.603709136645254,-30.031249344542545,-35.844569409724784,-37.22980036981558,-39.048263187638035,-45.9260442955775,-45.08851712241615,-38.23226223759413,-41.03596577779615,-46.96539599542818,-45.13443349638442,-45.106562603280366,-47.60650199869537,-43.57251120893223,-42.67482118532421,-49.51210507102623,-48.52642587892675,-40.5780179398118,-38.89325732366349,-37.449471923154874,-31.95894645507664,-33.359516443473744,-37.911762417677274,-34.849814100365926,-33.33030137476013,-36.94674120118975,-30.86117611466014,-18.184538330176487,-14.796119368607869,-16.019116898501235,-16.364298850555087,-24.39480029954939,-32.52338002499666,-24.858741148664087,-11.861625565188898,-6.880806065232345,-1.3092282038571827,4.600607245496768,0.9080198948199203,-0.5691300091044134,9.796093121015055,16.96063055599942,16.682407814446115,18.202712491567063,14.199486589967837,1.6816196952016678,-2.4692204322099958,3.7048387279562465,8.207452924935208,15.66304014252904,28.56340683355881,32.92739105657054,29.215159736310664,28.77144183803331,25.5114532690298,15.227004282102735,10.008721772274383,9.988578482693635,6.499193377302555,7.111526622810068,15.020347704656613,15.632963112015469,7.622106746754353,3.1241054877023458,-0.48765583370449683,-6.55077865504444,-4.07093820198627,5.19672466000587,7.875585235134416,8.687363187645758,13.937239129569372,13.951814389495539,11.231270855169893,17.248363536181234,21.484214523196293,12.880310246641223,0.9645466940958367,-11.132249434840741,-24.91144875031041,-26.353396362782625,-13.421888798915365,-5.531374307754292,-5.630359075669064,-3.949324542907875,-6.141401065014318,-13.282065564209216,-12.196034084156791,-5.822288744896591,-4.976134660433245,-0.8785529378484369,11.50045257873976,19.151202881668496,22.87267195335857,32.73692820164309,37.79990359256961,29.853355381250232,22.409929505502404,17.29378477579251,5.915125865944104,-1.0308193444976919,3.433173031576477,6.360513684131413,8.686292887157757,20.180346631895787,27.6424949523126120.621708850776148,12.574444926914564,9.115086004924908,6.52909381309169,13.983580246409078,30.78908252017238,37.89098506081516,34.68981918375212,34.54838687566113,32.90184385688475,25.59225591049457,23.48658095328491,25.085146113464674,21.461614893503317,20.547435316935186,25.76681036492934,24.527911742678118,19.21192259195855,22.76625944524393,27.303086679845276,23.45734089296277,21.589429685120184,22.98471458749729,18.43581253036136,16.30478249314735,21.8458835100252,21.80505506388354,19.167323418548097,27.787737409703606,37.20049066420365,35.73567987184313,31.877099249279865,25.986326934872082,14.214781039552552,11.57782540106026,22.833911235796887,29.44229801583998,27.721492486867575,26.50699996588341,19.82872203747586,7.7874018279425945,4.980245672818149,8.484006853772966,6.431720768967696,5.778740615241526,9.609164588984653,5.557312873587076,-2.7475492158610964,-2.3148340601419006,0.9543392255714309,2.646770177548473,10.99522641520908,17.709998176314635,9.781342227049693,0.33604033078013495,0.88283218142363,2.36134163215957,5.830174983222095,16.249031959582865,17.564923151264043,3.9519781976171138,-4.925822061884029,-3.312957730029871,1.0517295954967298,13.173754380317835,27.97851670873925,24.962831246724377,7.579033989572221,-4.8136212503556415,-11.490154410245852,-14.921017637519277,-9.07050648455333,-2.119267944858433,-4.957800976450875,-7.359050959020532,-3.1434287621439223,-3.8450303115197206,-9.002797629392203,-7.884866628173542,-4.639089790972937,-2.362479730331587,6.239934695912641,12.217133402737531,3.4084538306966894,-6.528860732156908,-7.079557048416193,-7.502830243338766,-5.752628302445373,4.433078936452187,11.270365445793841,12.665755432178202,21.780790776075584,30.63107265320852,24.03457414824222,12.617085748600338,6.350794792406136,-2.146676436728585,-9.0430530386923,-7.341891057023137,-10.235962200875665,-22.828084493098427,-29.131880711088655,-26.2596176157556,-24.116216998293808,-20.17455668077004,-13.952345787262564,-15.898662217183805,-22.30570473878484,-22.399130970865055,-23.182196067349473,-28.468612986103487,-25.990304724858092,-17.278649704407393,-13.617184378434983,-9.891787272895343,-5.5758538827888255,-13.604397968842305,-26.41356271199966,-27.3140940090844,-25.397288317152416,-29.59691505929971,-29.533828376083914,-28.730302369319187,-37.040686799640966,-39.07754550478529,-25.710193337816662,-13.69216887538547,-7.722710438715778,-1.76701586763668,-4.715380386214078,-15.571004060565711,-16.332336896694674,-9.472222858359828,-7.422164784376877,-0.9211696422224374,17.14738913541173,38.458182932918305,64.83342329767396,100.14935427420775,133.24203391413735,161.7963935440585,195.79035042101327,225.7585655771306,234.83216012106547,230.97600525954363,225.35221042551734,213.49648333494068,197.37296627678722,178.30401033206684,142.62926495577761,95.49690355989247,64.26242909097424,50.19447914076591,34.069275368758156,15.296835296861012,-4.114528293806922,-31.11720440630186,-56.28747964811162,-70.95862204522983,-92.03119099307719,-126.39558615495469,-154.9871735212693,-171.28308355272642,-183.37016839350298,-187.34875035518476,-185.07565412218048,-193.6834701335111,-210.79521775227053,-218.59022154243596,-218.00294170734077,-214.20241898663406,-203.2611127398446,-197.30132731734471,-210.21283302109558,-225.13050104207693,-224.51726705499024,-214.94001659257282,-199.1261981344525,-177.95955584186814,-167.3769347401121,-168.20948731050402,-161.7396277755566,-148.90879749493638,-140.6670457237833,-130.7994248300026,-120.13122305324441,-120.52793986337728,-121.38215623216729,-107.69884282467861,-90.58221399259224,-78.19578564592308,-65.11947801023437,-61.09551323235119,-70.66685895826748,-70.32320430510624,-51.29079242841412,-30.730283750835977,-12.259738971027721,5.054972872311141,7.621140959471406,-2.25997116787179,-4.304461496222666,1.5339402048503572,6.325791309254946,19.037110033624597,36.39289042185054,37.965788363449704,31.14408683215514,35.92126775477724,47.04027369372156,59.13960857386687,73.98860014391647,74.35220195080896,52.73439080075792,35.82185545317252,38.42502690066376,48.102512117038735,62.481751492414936,80.9595031321174,85.98253302415223,75.80613730766194,69.31393980212655,68.82878064441067,68.35622820371421,75.78523465680038,87.93281700289673,87.71641884997757,80.63714622904654,82.32474072630198,85.94445106343626,84.75595371708454,85.75034547757107,84.83596939675522,78.39140831902088,80.18370894558603,90.03243458092903,91.61773968087844,88.90895500798327,91.88585112100081,91.12554597487178,84.59016368547745,81.72178537463438,75.12761627558751,59.56316509055354,51.64766822699373,57.66499463643105,66.77579294120389,79.75157457961376,97.32180316851495,102.6740854093566,92.1500203744307,82.9725780329507,78.78115006517632,74.49986105265057,76.64910289092566,81.37030999381051,73.97519038106083,62.46084981673845,60.976934926324276,60.525403938276284,56.52704080848021,57.72942537368044,55.62586233085118,41.75205667674919,32.07105979616067,32.80966648535292,31.886975786642434,33.08330959972635,42.16726128145074,43.66384903849677,33.444288682265196,26.306323390330935,20.061932225442234,8.55464957378932,5.482301144976824,13.12549363741398,16.37998302693997,15.889632323138457,16.42751107544228,9.051179914705983,-2.569632416476824,-3.595549277517048,-0.03765338114572647,-3.309650653873473,-6.456772299802163,-7.815597625465783,-15.95333779086205,-22.985830978728032,-19.363548337458738,-15.717518429041368,-15.595380184575971,-9.2311163445159,-4.303531228196062,-10.92442637782683,-17.216760511839563,-18.647077335188087,-24.76849858908398,-28.774383615152175,-22.853515974341477,-19.531704139882244,-22.270731665926043,-20.396338304673908,-18.752945380522586,-22.87734257710906,-20.910627120921102,-13.789706083630248,-15.734419123839363,-21.724390737846814,-22.673133625957423,-25.120832800846866,-27.44742201022916,-20.91359413337588,-15.414613598524866,-21.480345405461478,-29.08298484688025,-32.195299427620874,-36.36891675122708,-35.43871091971982,-24.04732617068418,-16.67291659206066,-19.302519757595086,-20.33825124117101,-21.564913281239093,-28.790256748415622,-30.892577660730392,-26.959536089833545,-29.348584089777887,-31.02057797066105,-23.4862062963264,-20.617927347859027,-23.916416961972704,-18.83166056480087,-12.98685002163106,-17.192099049727073,-21.196970749946882,-25.2715252118709,-36.98635638943005,-39.18980737580272,-22.37655065779576,-10.918741992712395,-15.991098061817326,-22.39076176169234,-27.23257062136847,-30.264040377250154,-19.299935733703972,-4.324769648105133,-8.409106362950693,-22.49788760431107,-28.381412613963793,-32.468301071861305,-35.46241844039039,-26.451420180963343,-15.92067589056369,-16.164543762507172,-17.27949878661418,-17.592191413321835,-25.848614240016346,-31.879553191896147,-27.149946052669016,-25.01270225536477,-27.15456588446786,-19.856088986574612,-9.447490012879623,-9.207923963719024,-13.780139887686508,-20.458570213762435,-31.514713657598875,-32.65482960790264,-17.809102308795996,-7.711267090088684,-12.531898747104183,-20.90810266268018,-28.45164747168206,-32.64039193166178,-23.22336366241816,-6.899986212423612,-1.6402551627005704,-3.7177207768009244,-3.833935373604258,-8.664731342395731,-15.952471401588202,-15.061997930498537,-13.465502452823195,-16.93904283387404,-14.296482205465363,-9.188031413798573,-16.552317267511935,-27.007232734112332,-27.04595661877004,-25.499339196289984,-24.803374388850568,-17.70663093821136,-15.366815511303262,-24.434170038854663,-27.509090604530037,-20.51254766953354,-17.324271180878924,-15.418902440061158,-8.777616417302191,-7.286235665666086-11.624608451260482,-12.275923282591792,-15.199141649003817,-25.402823318133724,-30.090346688059906,-26.593887119106114,-24.941654257310645,-20.60299100646475,-10.033013361782167,-6.8442990173431815,-12.438115001292026,-14.289540697018538,-15.033492366358631,-18.5329023987216,-13.465223248691103,-1.7501254282501844,1.307682456714618,0.16342980568510512,3.6885831932674766,2.016876399914864,-5.176241944926852,-4.495340186578987,-1.0549804487128032,-2.696229692864317,1.6652528764977974,10.513776411698721,7.998964888136432,-0.10647333568550676,-2.9977171925947035,-7.962221191454616,-12.059619239610361,-2.226664416234927,11.868491366357965,15.646626568341016,15.422926878548736,14.943997989902286,9.321821126209695,6.704989866513561,12.791216191845592,16.027278413085824,15.181391969434255,21.768509453555946,31.232043862072032,32.816295338965375,29.648991267514344,23.409209231021652,13.782832899763559,13.91899535686263,27.506040249433905,35.552106504688766,32.68788030147567,32.317048626522116,33.828253239205914,32.59778350205729,35.654082979818824,36.83489021833601,24.83849820629344,14.209824091284968,18.088653755645897,24.04438248058794,26.399863340650793,29.988783486347216,26.072517788400106,15.714010778276052,19.644429611507345,36.11482362182507,43.752791794807905,40.89828742998427,34.07597512234344,22.338823420995787,17.98788809727712,32.95137816207141,47.90454819763947,43.61057785679986,31.154741651215808,20.476207426346175,10.764451590328177,12.100857461681501,25.226559916156475,30.20476350879223,24.28347718054882,21.67468414460906,19.295918770164256,12.990645742116648,14.568683547847394,22.416481173185538,25.435142132908112,31.925967653936397,45.42127887474278,48.38928589629481,38.68142446892784,31.116277713486515,26.68688637343436,25.002074549982105,34.43195437814178,46.00260187264668,42.71134920441646,31.25342869209349,23.711301763735975,16.66640117536062,12.29846337605137,17.157495009482815,20.965607690234,17.336852095186075,18.10408132977186,23.019453497703484,21.01509548395569,18.37179469623738,20.541411349242136,18.825225843543606,18.532050586642043,30.355376209231746,40.409776819657836,35.34284870155189,25.12426822022576,14.998471664577732,3.2124144432369017,2.227051438996449,14.092191491110885,19.45636851562513,15.664745004563535,14.05506883616507,9.912125621354775,1.172073426002341,-0.7853883333096383,0.24748927496743622,-6.087568450901213,-10.141402272440303,-4.46716859203089,1.7131971850209053,9.191364158384086,23.29322792608106,28.89975367103338,17.8251823457692,7.928210277071234,5.50775238762009,1.1296766250494557,-0.317653441605811,2.885981628614979,-2.2226038724238117,-9.600871278975413,-3.6341924385474287,4.915135049875075,4.367132007116441,4.163944754318964,3.5791602237563507,-5.275089311414808,-10.925282921232641,-7.576005833496423,-7.756393167981363,-9.563266708273717,-3.764965689926262,-0.9075407238266116,-7.0471551831826424,-9.97474444249009,-10.005268710144817,-15.180310391950673,-15.167905119050507,-5.642898150333239,-1.9683224817620417,-5.074373733594243,-4.996277806866663,-7.550287279112609,-13.157712913691686,-8.98435368946598,-0.8024321247126909,-7.022174286270612,-29.588472551877587,-55.79833883441302,-72.29889739571546,-72.86729136092458,-58.619787258876286,-39.775985362277545,-35.675112498994224,-48.49145342922951,-53.81147682999984,-41.99444109273952,-29.649187264330575,-23.166758840542194,-19.63588793749272,-25.76373759972651,-36.84304653649215,-35.28018807527738,-25.225038592275773,-21.911869121821262,-19.886377893435405,-13.84266925201757,-14.350257923301404,-18.858501024142683,-16.082095094570796,-15.067258409449167,-22.899293727733564,-26.64714395667911,-24.766917307419213,-26.118830614173866,-23.34713710086961,-14.511425843021447,-14.541772173183384,-20.053658866875708,-15.565326542829133,-7.671530651669984,-4.413851722253197,1.57356231208054,4.445126029367712,-6.18587957023318,-17.169921424227315,-18.334884771234524,-18.411284849984465,-16.25731204883661,-6.471048400329525,-0.6212907538156724,-3.0024580513692394,-2.006086552065362,-0.6425308482615427,-8.989559979954844,-18.002464399769366,-19.319619549682763,-18.845850193946934,-13.457998682716672,1.7082877610828566,10.660399247470838,4.851288965784657,1.3658433845907778,6.970929205888212,13.992325818817635,25.682013248405557,37.3195721753729,30.433957940392652,12.01143874534785,4.790138334400296,6.357545454280498,7.91891899424078,13.524046700727238,15.110656730776185,3.9909082175019783,-4.038230804084925,-0.878577749479565,0.17400135825771257,0.40908030982406374,9.137368801888044,16.263833810058053,15.723540191398373,16.49510540666607,14.569565155301397,3.48766926821913,-2.4956615273819733,2.5089839782262717,3.716066993692275,0.8306843510090371,3.554281708764742,4.1681994740945925,-1.1327046881077605,-2.335417854470145,-5.556543339681399,-20.369891360858,-30.776612929977986,-25.643432112474766,-17.041021707410223,-7.716048785103508,5.012339041642962,7.941182119984025,0.29103027550895266,-0.3297636283667835,3.5976969508358474,0.4606995859502203,-0.8082059325786157,2.921213133739945,-0.2094687458668394,-4.87871385979354,-1.6098938374607057,-1.6102857370407315,-8.503969548407403,-10.175625942598709,-9.875015522476353,-14.475762329397208,-12.371785865846935,-1.5886294426509782,2.2003272168695194,-0.9870826508507171,-1.0932637396249512,-2.329441289900614,-5.128252093631919,0.23994252144612682,6.672210734843405,2.430308755935786,-2.0148716256026926,0.12618318911854254,-2.1481011890485893,-6.589884738602944,-4.6307903618108845,-6.071095761203275,-12.75167019407472,-10.396679755444481,-2.7690242271431176,-0.21727218399550585,5.363389378316935,13.22902919710447,9.270501946839182,0.5548822791128516,1.235531852045417,4.047789978933965,4.126555750167006,8.55222971595171,9.684561290401719,-1.3526321025930912,-10.230663968109036,-7.51559190039222,-2.8889930224678135,3.7981958535240574,16.54432144081075,21.222571268125282,12.517714918847314,6.242155541006712,5.70437993037112,3.8808865286057066,6.722544225423809,13.350248590816438,10.615445434146444,4.509098147249575,8.383341328458494,13.5805045042387,13.339574318830106,15.149061964601115,12.80656141402583,-1.2001977516799895,-12.43499087720126,-14.525428883491779,-18.556388965638334,-20.483231136862734,-11.70123185835565,-3.543489287822328,-1.5951394130455379,2.7001083254903526,3.1617011623215454,-7.2705099073827295,-13.198775073908346,-6.587098524804194,1.4691098589964082,9.320511969191877,18.23446906964286,15.950950560555992,2.65844899630453,-4.717158982086256,-6.905870634492654,-13.1412145900435,-14.370302500821747,-7.9593781608231335,-6.301725467131235,-5.5073150474156085,0.8790082761070162,-0.03515316136791147,-7.782745474833025,-5.757769302978682,0.649361395676701,-0.19259706756115857,-0.26130828398574124,1.6148722384219454,-3.194123296756728,-5.371095240208858,3.2046955743244543,7.632934293129862,1.9925009253654848,-1.0477071081290015,-2.748823062799026,-9.748614353554798,-12.05931673851148,-8.801081070094973,-12.776677015815393,-18.017569287037695,-13.020366111196505,-6.250062948578876,-1.5691799697448845,8.410366566663566,13.88210671978635,3.991722282204919,-6.857208400979745,-8.252592635383161,-6.652544057515826,2.4119336783193472,20.591782851380636,27.175937448097336,16.4639177274176,6.436255456457868,-0.8434187110272928,-11.168058521488202,-14.38933288262335,-10.20967411779536,-10.891056269764086,-8.413323779204525,6.752739390555658,18.59497436458731,17.859462781550906,13.540067493128284,4.136291926061004,-9.625209952583663,-9.263359695320249,6.642366021221266,18.050809755510596,20.55017655926151,18.45154958245756.424250669809812,-7.249984504671224,-4.2979384541544166,7.528992349715949,11.090137790139616,11.238570461056598,11.416829367691122,4.893736651695481,0.9032344896351092,6.8094355699339095,8.012568240453097,2.745591402002532,5.971495832224877,12.227705840933366,11.168135392471124,12.55917976977368,17.451238855148024,15.26793657294554,13.96439042076748,20.352707996343632,20.548693895291855,13.411159004007759,12.594410963300486,13.428665093689848,8.678757910302714,8.810131121588697,13.443724932930442,8.388172322922857,-3.3400097554221695,-12.797040337413522,-24.136028355957627,-32.09944811331209,-24.02753245370021,-11.70924718124752,-12.36179559024689,-17.408827975222177,-18.60375186118042,-21.28540891590075,-19.15121667861283,-8.709314146275307,-6.490683214321879,-13.754736372657492,-13.414154815714797,-7.990577792676691,-7.275582771390801,-5.176886933531132,-3.5583559179544166,-12.571337577601529,-21.729038806179418,-19.037426981277974,-14.771987906974593,-13.414264197973672,-7.801773625959219,-6.010301971964194,-14.562709315622184,-19.686143409436987,-17.388725152232542,-18.079252054006904,-17.497821632675496,-9.00575459958248,-2.8662022790500608,-2.177182612251195,1.0427952641425342,-0.3656516808539951,-12.833026018175952,-21.616831953624523,-21.25754606389323,-22.110406578551675,-20.12485650072342,-10.934097858421563,-7.677696170059708,-10.677784516472673,-7.676022904045479,-5.999992778620455,-12.777722087857976,-14.014884972310066,-7.35970463218177,-4.5772050039638845,-0.28308798294451853,9.827803454868576,11.043519109043482,3.1125799918675714,1.572679600157824,3.1918925394965387,0.6134265472611165,3.6590661840061243,11.082298099626303,8.35819475374417,1.6553545132649756,3.356416566932078,5.645327500220722,5.576756575089449,11.955317846779705,16.118265928475964,7.595492348698303,-0.6002022005274257,-1.6924512583561067,-5.129631335455583,-6.212175525861506,1.3420999054911391,5.28682244831177,4.672232493728988,11.29896045312536,16.071460037094223,8.807164404465233,2.6448196173310707,2.069134340043043,-1.7838764262041187,-1.3928701891901651,8.565625765424956,13.351493194073683,10.800024405851188,12.500631528714564,12.250654967102795,2.4001283243362304,-5.2311737462493815,-5.947260329013362,-7.142474482396859,-3.375864666726129,9.339288922949926,17.30853548315033,17.353945370047306,20.515313489123056,22.448555395502545,16.96850412553012,15.644947550591247,19.014355305244404,14.994315563331295,10.06361034297228,11.265334393697671,8.605014825182106,5.400157291508897,13.407422955661222,20.33536720025083,13.501942420940704,5.175011739922434,1.9996152430403704,-2.2918201636221323,0.2145934320495846,13.464731070932578,19.954206612162018,16.67794944570175,16.783485028524286,13.801616561753857,0.5643081259988731,-7.009116859541779,-2.3781592657303654,3.966064823472598,12.338514594145872,21.472352325648547,17.47874619826404,4.308869264428468,-0.9609380319962155,-2.2952597288724865,-7.656828657749244,-7.2229978002413215,0.05855474154952045,4.158705056415355,11.327312391783893,26.64535083327777,38.52662791561227,50.93183498558065,78.29905679682298,110.9830654683756,139.1827206068311,172.96492237325393,208.37337092514676,229.94496513463855,242.29420243453308,250.26788638515296,243.48347949161018,225.84783806265264,210.09493005094293,187.90104760636635,152.41872010576057,118.5476131797619,90.7442422927806,59.21737438921804,30.069434938660834,9.073878396975267,-15.760126398527674,-45.01716414613874,-69.34114939241476,-95.5207131721495,-124.8913599855384,-140.3385767009433,-142.4038557815188,-150.0777796967181,-164.32263247527294,-178.16285062281483,-194.946969412198,-205.8231992529657,-200.68819021296952,-197.9999825858079,-210.27301048588768,-220.12920340202265,-219.63529100060393,-216.43225235762006,-207.274359054247,-193.77904684980686,-190.50389759666766,-193.52116939720958,-187.11247462764265,-176.7486531464026,-171.5046690479376,-164.03465876656526,-154.9613146727629,-150.4488832606114,-137.58961328699266,-109.51732792230851,-84.7991412877135,-73.97782980992511,-72.0117287354148,-81.14886779931875,-96.11899373134712,-95.72565933277174,-78.83437947014843,-63.38223944349487,-49.5748952992278,-33.99834670263408,-28.84874348109293,-31.67464226983423,-26.174575822475887,-15.928924527664568,-8.52541742022803,2.750217810557763,12.969297911604484,11.251317509369514,10.026189030269574,21.25890314888823,34.241024291362415,43.79668590138701,53.53824184009928,53.66977239434425,41.748983635757526,36.03317545353186,41.934014385467975,50.221375198504774,62.46723206480078,74.58149042735178,69.6829516612791,52.138395032955785,42.04794944746618,40.425468623600715,42.381574456522785,53.530485825411695,67.01540727782057,70.1834364543102,72.1114114259658,79.33623596651923,77.9382343074498,68.22506684868299,65.61595660319617,68.23307709311437,71.43756314381855,81.6541218211265,90.40559749360631,81.0036867165056,56.532167614801764,31.619759483426556,15.963701688317379,12.207226980003213,19.76581673262004,34.97154477250969,45.78567354246859,45.68418794177628,46.90728370228544,53.867028058927225,51.89940507934196,42.08463889058049,41.181641406536514,48.00380951300164,55.85989703322507,69.23823769515869,79.36164479446556,71.975453066717,59.02386355585709,54.778207071488175,51.99482801116384,49.76716975307191,55.40829291312453,59.41704948691319,54.33387467055503,49.27172189002326,43.900445184966514,34.705449935083024,35.93323775856447,51.027077124252294,61.4236799358941,62.402268839172336,60.85433541760278,51.405776384133674,36.97432984658879,35.19828619251582,43.7872015963968,46.660563536440975,46.69439169851364,48.40965138592848,42.06541429932538,32.17846068545392,32.61816869940418,35.07380841247377,29.92122296205637,26.438018839060845,23.85285196121619,12.540397827733617,3.5144177058077912,7.226648929214673,12.526246985055389,17.071915864598434,28.164287173380387,34.514218260294086,29.1974139121984,26.220244080638683,25.700622195506227,16.594149574685467,7.301116499858769,5.588903586959976,3.6725299948430106,4.31303841533135,13.644853821279218,18.154543561800097,9.923532972821256,1.2542085501615114,-4.3983520725738945,-11.409366599101503,-10.782848054498656,-0.32107720062734035,4.766478970547219,2.258109530487612,1.6794881263205514,-1.0444212051816146,-7.072015840676835,-4.0535090173697865,3.658584324484175,1.4529341026330327,-3.097076905248468,-1.1777142346833096,-1.1192603674834978,-0.4388369334653859,7.349725459432808,7.718693390577129,-5.361579377021079,-16.160700684801018,-23.786548815944798,