-31.476794008349465,-29.47005068709759,-38.50500393439148,-46.14181764844682,-45.666549677423866,-41.91688152318186,-26.602204139594274,0.31607254495777504,14.433103226407505,9.803394492567932,3.4096448779368753,-4.468115457141163,-14.968002247502708,-11.567622177420583,3.0520134980055103,6.795209492852292,1.8396406741587221,1.0083725333592208,0.4069902770280467,6.587891488924123,34.266854688212334,67.65402226275593,84.85797129566481,93.62500504707205,99.86471959943158,96.09578828805286,92.05700015132717,94.90879854432046,87.99864165001358,72.15436168770916,69.01441355700206,76.58880197858598,83.32039063610524,92.86887213136578,95.0994629073125,72.33395780665727,39.01176951282429,16.299238622137945,-0.2634076792974698,-11.022927366453514,-7.919304056001905,-6.92574527346018,-23.884144071812685,-45.123585292842904,-63.37097223375041,-86.61218946045197,-104.19686947858065,-106.58891065941427,-109.74729262183442,-119.33710500007152,-125.92888696718902,-141.04404690063976,-177.96420507386532,-221.70076758296435,-257.0033422393866,-280.01097144160804,-277.2612245734591,-245.45827656300966,-208.4980812827617,-181.5657820710635,-159.28929862186166,-143.87459543386893,-137.28821018573635,-126.44934307452695,-112.51869329861537,-110.09722811562798,-113.92045149744708,-118.7115350310569,-135.0999137464058,-154.08697581741498,-156.6166640931446,-151.65002805558433,-148.7742316248659,-134.61338929881407,-106.8614045031726,-76.60772376958606,-38.069678929840805,9.77229136023534,41.65329363136933,48.953379384213946,49.907979075276955,46.398675599589346,34.91033192326277,31.671938174402214,41.10090619619301,49.70376662629433,58.29089221448342,71.18664809767253,79.68114941331763,86.67788898672758,103.44738335961094,117.72281152474747,112.2317182473093,94.03980868604019,73.85366949524229,57.099343485166436,57.74734862059358,74.6563900369918,83.24927853626694,78.98743659729824,80.07245133757718,88.09826323781499,95.41864204351124,103.39956882896934,102.13313591599902,81.20845317901885,58.85623737403519,51.300048693659775,50.54495143434233,53.61954110289891,61.46150110837638,60.75646332764822,48.57427284901722,42.25875140125984,44.55776357795173,44.83308030238278,48.003597515240266,55.14834076929413,53.889870676055054,51.85363351297936,61.87061621850233,68.20581173013174,57.01574658817205,39.7801563132933,25.681767428806765,16.39260030452969,20.437310909848428,34.896212880428365,39.2459699839187,31.206279253757344,31.075287543800254,43.311431914710845,56.231604343703886,67.43388548123866,73.83355338718793,70.24734414336352,69.62866489389174,80.22487306645259,85.74560909125799,80.02185951593889,74.62236676602454,70.83554059064609,69.44411033260707,81.37240380207845,102.1011045804336,115.50537920148119,122.4932459481941,126.99861408627164,122.09858231028096,115.28016257248444,121.5170125738382,130.8579627750516,129.98369066244817,126.81242991392153,125.65491024196476,124.66665552348381,130.9287614662276,138.40517823273987,126.25543345736648,97.90549536604979,77.25363213475077,69.83411958034374,69.84327947572906,76.41035207298978,75.6330127027984,54.042803467694704,28.19128723810676,15.403304655984618,7.402297435108754,0.4107845616941077,2.20356748510891,6.90538638755536,8.94888718147558,16.24596358619968,23.29788744958722,17.169341870193254,6.807960610614002,2.259395596894114,-3.476569214483306,-9.23493152364757,-7.923669751039716,-6.973775076950141,-9.13653664864018,-6.378739294874903,-6.799622350053658,-21.451945384422956,-36.151307010817995,-37.556775857932095,-34.90359623036328,-34.07066039803397,-34.92059144845891,-48.39230891653692,-72.61608058856518,-84.52924271634379,-80.75514790710132,-79.42787572056677,-82.54196852199522,-81.26454800026372,-75.50093050805802,-62.1603022908409,-39.709479973291806,-24.88600278975318,-28.170366776551695,-34.16780463068543,-31.690573904505868,-26.437803455733984,-19.314849382488,-13.174337961680571,-18.589390590571174,-28.676909154942393,-29.220353670212262,-26.8410389437365,-28.066968469194173,-23.808258589965387,-16.679977544692562,-16.524335028071363,-14.858237628709073,-8.27021900594965,-10.295669292211384,-18.139587663994114,-17.888391458290563,-14.072631952354001,-12.536311502531543,-5.989238745397275,1.243715600021363,-3.1667141480701444,-12.152410318844904,-16.06606753828134,-22.274175644659532,-29.577665873259576,-25.985438980011345,-17.815530475609677,-15.863022642054704,-16.190008566667203,-20.683848314794147,-34.4513085523906,-45.18332974142745,-43.44923524593246,-37.56922498363801,-29.327171713512794,-15.088259506903418,-6.568415592099436,-12.144732159571673,-22.27304042462669,-32.0424524370661,-42.59513704896725,-45.31472322120868,-38.3099108810201,-35.18474360636595,-38.549023167049164,-40.329274178719174,-45.140545390305874,-57.230785732773036,-66.0965977154296,-66.77382041692775,-62.628161380639625,-50.1567667366638,-32.739653686229914,-25.444940427120603,-27.999688983721754,-28.03998191524304,-26.25865719206527,-26.002943110184262,-23.522682076487143,-24.602866372059687,-35.03954414372066,-43.194000434553416,-42.814781622042496,-42.239060085603434,-40.78777947919653,-34.33623683510445,-30.743003402984673,-33.023520642924595,-34.30156135177953,-37.402689739768526,-46.60786895546654,-49.2940237778458,-39.8971646527925,-32.66514370090647,-30.67831608359755,-28.310509633114386,-33.485995977012394,-43.89991489166143,-40.600532606445924,-26.007911747838577,-15.614936369420963,-4.943244415730652,7.103186420916471,6.033265521620782,-3.3263908195773952,-5.019477752520341,-4.204567156650268,-7.3593600547513045,-5.739909861337812,-1.017603525913866,-3.179310857795496,-4.814969249546553,0.7390162540649041,3.726570557077297,3.60761378930859,8.033353660834385,10.65379509371439,5.067540442801359,-2.231915704795993,-9.654113566644993,-18.810969394413988,-20.75889266423283,-14.784060963933332,-12.790280255995993,-12.665996835592619,-5.410673927949988,3.1037085567988862,6.865156975650951,8.972248727020588,6.811868473262543,-1.395023221704475,-4.615654541113442,0.6795941374431527,2.2865082082663797,-0.89066969073869,0.7088465893402289,3.175916549375958,1.2814335844480915,2.1897959238652978,5.71266373189886,5.607165080648444,8.519732718436533,16.19766606896057,15.078624806408788,5.361904924106465,0.21063623135396375,-1.8099777222058413,-4.421828466870467,1.5190697604140895,14.114464808040866,20.014174382390422,21.91474951205291,25.348133904912395,21.075975896071927,10.936916712741038,10.046304965473883,15.228327317911218,16.352630101440464,18.1261740404431,18.699745585965697,9.419145221985099,-0.24979585980900199,0.4426824920906516,5.266026164183125,11.106531078212438,18.97536525585183,18.58048184512281,6.819820197762172,-2.0704785209963283,-1.960494806629777,3.0452389189443956,14.303983162167452,26.01675131406243,23.765297213176204,12.8632216517023,11.55963268477441,18.88512977927396,25.898066841716123,32.67989586024612,31.721800594614294,17.706738902502206,9.324498513441236,18.87834356172973,32.54614176705824,42.61171331920696,51.010872462562546,49.01763077370558,36.364561199687394,28.347880124972566,25.982789787795834,19.399539341887753,12.087822269013472,9.018763511350901,4.607836071004562,1.362214136720204,8.013535303747307,16.42678969573764,16.702858867208278,17.04473408743628,20.612543458053473,18.70159049126497,15.383760126984521,17.35483295904956,16.286299982545717,13.109874164058386,18.053369026097705,21.901357812298,16.438211255305966,14.295766097795422,16.95651697032201,12.889411523639616,7.435801817130323,6.612169418603374,2.1974225147777062,-2.0645458136410193.440029695766636,8.453137979099143,4.998555037186073,2.920935538594544,3.9871146750227293,4.869339960561342,14.082828834764703,29.184981865590597,32.948356661631706,24.449316606454126,14.557133250503771,5.03579409596005,0.583051998891192,9.46602055479314,19.562753478624863,14.564450987902084,4.515411942522877,3.032260769892188,5.765093913081243,10.308625541200403,16.773679754484558,11.8132414435612,-8.846185617679751,-23.555418834866447,-19.95002492356314,-9.415676822599375,1.5527719655222598,9.83923479502257,5.326687703073177,-5.861959808960772,-6.998819905822476,-1.730322560644074,2.103022156081876,10.180395336496902,18.963883689368384,19.809195377898334,18.663564522488898,17.016700389036814,7.0658289937764795,-5.069837090014277,-10.245509172079819,-13.962754160963696,-16.643130224784585,-8.921669380038102,3.646591847118961,7.101599889365666,3.1375338246948985,-2.9308668385320638,-13.451146695886369,-20.96092061985932,-15.69418877627688,-7.10609508940273,-5.041295554763759,-4.185390056203218,-4.753467541975165,-11.111518552903373,-14.064172490917672,-9.85324738764609,-10.534158008815675,-16.84505580378285,-18.201891464603413,-15.202951172480931,-9.486241345968354,2.7308968339488913,10.493104820407675,0.9310568047738221,-12.769531952468949,-16.02824988674338,-16.8833903965187,-17.710797167911185,-10.859444145435305,-4.242500070647411,-1.635368895321974,8.39089988529517,17.10250771173748,8.744822466787769,-2.67170716497617,-3.7771065646645674,-3.618404850729058,-3.4980873658076512,1.1733212576353924,2.155965188953139,-2.0433074795608537,-0.1865354151511125,4.928778568313384,2.908624328695696,3.9870060259147473,21.60386756611264,50.35304949744731,87.3179730069864,133.44900000770966,173.6542969547362,197.3803655724275,211.4246832008721,214.1100427496211,199.67320197848346,178.90112413234263,159.3586060077874,134.81348419105416,108.47288755500405,87.03979457615463,61.9055173676645,31.120545651872476,7.184848239550687,-12.611425031826041,-38.173494774178614,-63.46916555580413,-86.57301909974625,-113.619067052448,-136.7517576630844,-149.60247449616003,-163.79133626162394,-182.46221871946827,-191.4553341016375,-187.5636198489198,-179.13459985923322,-167.62625128526327,-158.90501572080936,-164.06443298431964,-175.28122828984402,-178.0936640271785,-177.07650833222385,-176.92722380270314,-169.12842595692624,-155.35344646913757,-144.75102041855345,-132.5603123123139,-117.29260390328119,-109.4015637086576,-104.67144321184777,-94.90501909798223,-91.29085876290421,-96.85365693516226,-96.52763950840504,-87.67468364703149,-76.10865228219095,-58.857216359412504,-40.73528799746509,-33.57804905317924,-30.72788939284577,-20.465203340374487,-10.509164661477133,-8.346870449506424,-6.796978581576676,-4.572095665255521,-4.830010253174635,0.9235611067019598,11.90696427300337,12.430497660629324,5.647662225968487,5.108547304019131,6.366032566322507,6.0123886444204135,11.051101962627621,16.53049320334936,15.08565828632579,17.06723383384465,27.56283421050862,33.91836342337612,36.21934595245122,46.23131870247046,58.062349095045526,63.35865135658408,67.24308023782524,65.24159566052816,50.185251865860096,36.51999180510613,35.39420284739823,37.454061037928525,42.41229917389486,57.557595351651926,71.51464224783976,73.82962170768397,70.59858823611046,62.066564733717414,48.05925752177458,43.941294241747826,53.70002868085774,60.40567561073453,59.79198334984156,60.53619285130392,60.295393718205155,59.00751955596863,65.65151783546571,73.76868166599662,72.43325959649692,69.29209840659509,66.91856554962837,55.45662492580451,40.84474379778175,36.48185660846552,39.196243333470164,44.34203711309141,56.02464735836792,66.85046255507098,65.74314966219677,60.554132995933394,57.51122399237707,50.57154431914577,46.67076320356879,54.652696152005575,61.421810911035465,56.647664827301234,47.204009793130695,34.56913716650754,20.754259282504158,20.097849256860478,29.350096081657053,27.36345995278905,16.55655007298666,12.695357284392186,12.31194318143304,11.612064684458508,17.291653286058526,23.451892693818586,22.80479834182782,26.551866181901524,37.401681120158806,40.3724915932865,35.96971195710805,35.368254515505924,34.291307720155146,31.32460691792557,36.35969278227188,43.82702662924642,42.962147607045004,40.693621211845056,38.81400495623774,28.997232907212997,20.98439848925657,24.683848594368776,24.80743705708027,13.581499337181503,3.7424068710490563,-3.616980010865067,-13.588491567560444,-16.211044679873165,-8.428011412707054,-2.103341146099584,3.993214321043098,14.164930013755898,13.249197828536232,-2.8988355310095617,-15.170503446518053,-17.20988408909158,-15.657733947641196,-9.325809322850015,-2.505999358305366,-3.9192783317632784,-3.880760659740429,5.4761635681381495,6.888253599002909,-8.547390735422375,-24.450423747621002,-31.076837187693755,-30.689535289385027,-21.70737077993644,-11.454720359033931,-15.21405404977006,-25.118426910974378,-22.383479548027122,-14.164727207350234,-14.286496378859567,-18.6865090763253,-26.70549328991796,-41.529031119780235,-51.84442393737805,-52.33862898113408,-51.73063863071187,-45.881426300346966,-29.031196322752646,-16.740086761136897,-19.41662909662636,-27.867031432766844,-37.067460974203115,-43.800539497665255,-37.03399074297497,-23.159484530443358,-22.91049590590269,-32.322252727192954,-35.38893308131888,-36.01940013013484,-35.357458653157884,-23.177592990545264,-9.339821925065717,-8.575019927371956,-10.960346799339302,-11.081049132074618,-19.777158535083906,-30.145874130230244,-28.327405087220498,-23.708613078758184,-25.15609230128362,-24.560711240790496,-23.062984647830234,-28.5468037810176,-32.15506023905531,-26.840266359265435,-21.818076583056964,-17.16569212135392,-6.930344681964586,-0.8211515718059208,-4.206982656532865,-7.63585240278746,-9.763128050624623,-12.179713855853844,-7.122742792092668,1.5090432970324903,-1.2006222544669172,-11.740015719613563,-17.94823325013618,-22.9747391145454,-28.151584011369188,-26.472843833594837,-23.86923283633667,-26.601849851744664,-24.739537778196862,-16.517517010295183,-13.679497837892548,-15.49655994393427,-14.2541917206877,-15.054981069766727,-20.252369434323896,-19.70079295597631,-13.744969262695639,-10.78684905650273,-8.06806329663947,-6.543750650872694,-13.828866906079732,-20.829308418228628,-16.14837618199546,-9.507379602664393,-8.28303226735715,-4.801141384154688,-0.8130404281531876,-2.1702614702440473,-1.0898873243738705,1.3000805767381474,-6.705668326062179,-16.3363487286206,-14.057391202094625,-6.877979966780083,0.6007090098342789,12.534593347035248,18.532953075685782,7.817287346716258,-8.63572547014578,-20.69962011900719,-29.024248156988563,-26.001340185382954,-10.08424925575326,1.3789578028344744,2.4400479216085675,2.528454990341103,-1.776978013715972,-15.559998643238373,-26.658134320350857,-29.136617930480067,-30.171726537344423,-26.766411681854017,-16.38999555837995,-12.142188912231239,-16.10481380601283,-13.203786898295146,-2.619368492787027,5.846287333268944,13.711374097796835,17.57932023009408,6.588810262977744,-9.16225770339781,-12.758324875496523,-7.965393630269697,1.009897916931685,15.84744010285243,22.941505239040087,13.526257576652633,3.7487822038035867,3.0778216910416067,2.9185868167982885,2.9952586170529156,6.494925995787104,5.007149218468599,-1.450704336122688,0.746143408135832,11.130645593845673,16.562865211170713,16.130851780236313,14.032378692295454,8.33104205201202,5.557685578979669,14.979771949214834,27.721210840718104,31.943291137188403,29.268026790891476,20.510809976048876,7.859804529033328,3.3018216611547286,7.240062033139082,7.163124057589437,4.1994299328456075.14369891111168,5.0785313623167,4.651356803869977,11.47682329096896,19.532345323060056,22.395531532415273,27.746951217811983,33.942936652414545,27.99925888356577,15.14742765101423,10.261402021323805,11.71409010442624,16.231418702738804,27.94948712200789,36.53092270289693,29.502012930394407,19.551074633263124,19.722182293572985,22.46311363059502,24.925662623333288,29.712168923539565,26.107266270160515,11.386126585137877,0.7713942293729636,-2.2592627678645045,-4.289584732547732,-0.9226623569082368,6.917245038224632,7.757266580746155,3.838812218562923,3.2517677096285724,2.6447410307992474,2.4980211921833337,8.574281956965057,13.748586531777487,10.634512837707115,8.635850138770905,12.35885145345701,11.82376447022084,6.943491203006605,4.5014423483395145,0.8594287080607732,-2.7164024826744555,1.4158703782782402,4.7674947153740765,-1.8380966693798757,-4.751367547852984,5.004527668228878,14.74570831473291,18.2950190188036,17.553439475455438,7.282861183550007,-5.019439605478075,-1.3815835390569977,10.720004938764014,12.103008895118217,5.7060551238452994,-1.3413712515482379,-10.865146242255562,-13.868428611850188,-2.57423780244316,10.770005607176337,18.7865961703389,26.07610746461664,25.186325943365816,10.137480052616626,-3.9565823484595026,-7.168124268771013,-6.049217829473925,0.512102106948849,14.185820782408115,20.11761756162228,14.828214670885302,13.683636517432369,14.970101202751131,8.539543753641416,2.01919888871871,-3.6766336964882567,-18.983672857523736,-32.42062938287841,-26.824988225824484,-11.642065096895488,0.7173999762290855,9.778404058633967,7.152737856721043,-8.809501289164297,-17.1174562968402,-9.94665440156154,-3.3302269839293714,-1.452347377023856,1.3364038923974422,0.023550049362876413,-4.5843506744685545,-4.382124446200538,-6.088434421229422,-14.54924896726806,-14.857921663327371,-3.2879670281811144,3.940603318120306,2.973128190233463,-0.16208738198095513,-5.784845321274186,-7.102489047991692,2.8321152323168346,9.844876372919472,2.3342222982052467,-6.656888171122103,-8.64400734254781,-10.595317311163154,-10.774949130607812,-7.088546249154097,-9.959207575880175,-18.707648956517737,-20.888971346099243,-19.645934580777592,-21.28699635855013,-15.586400051915234,-0.9124602620136528,8.956501192491048,12.924784955566802,15.877853810079408,11.277375856774851,-0.10099309934866385,-6.525100349279894,-7.7156718247365905,-8.645470274456647,-3.7662659883056757,6.268731457638129,8.950468224542762,4.9386002367331105,3.446867187021348,0.9146518965066985,-4.777397844566991,-6.996418388059468,-10.758657439510408,-23.348782599748226,-32.395869238936534,-28.62460003000845,-21.611123318268415,-14.31830849071329,-4.898660217979173,-3.4638848873942685,-10.507620756316587,-12.544391915531559,-9.696355669120333,-8.087890232427668,-1.7817001003817183,7.162161859876271,4.624832055545498,-6.223505007709839,-10.351692861192618,-6.362898813665345,4.068408158722679,20.895737343595894,27.90867715375855,13.096863120266585,-5.165011423686849,-10.087372183554907,-9.213533794380398,-7.474416430297888,-3.6069178933841695,-5.148653470285188,-10.23891093675978,-6.288724576518826,-0.39776237368966094,-5.210301644704685,-11.02713523911933,-11.51945088602157,-15.555801472940292,-19.4885662254077,-15.406951665687664,-10.678722909926067,-5.806285704588555,7.04282764898079,16.890029411559848,11.89000284886491,4.646902043709889,5.900500094349905,8.538674266400239,10.95152725028015,15.10847816541079,11.451375553946614,1.27918151676994,0.8727669423265232,7.503681617662133,7.628015801741379,5.648509734875764,5.565508314546578,1.7950669407687658,1.4473582666422204,9.560917784949343,9.65994949422063,-3.0096772762183956,-11.24119101824001,-12.129205931019452,-10.928313592964477,-0.8683549607919163,12.76661284401999,14.527397410571213,9.88888515037484,8.926941736343458,3.302558771220639,-9.209211958972528,-15.320065625583032,-12.693505234756522,-6.276804827234871,7.1128242991598984,18.998798349186433,12.336523855097603,-4.626511097690019,-12.796407019082954,-12.048937137275487,-5.467643561371428,6.524705420223369,10.764212578872538,-0.4220134514416678,-12.877908042802,-16.551001330479888,-15.837010123143509,-9.124356499500305,3.967753814941887,9.704534143735215,4.747385714408436,1.2483300251533613,-0.5162912572452845,-5.562777116123041,-7.1385745889804015,-4.645088504793133,-6.416603817841713,-7.59303023838766,-1.2459062643720171,3.105574161541958,2.329752156235223,6.861044228800967,13.242723298675603,13.119342195202162,13.396984198943773,14.751119672362414,8.510087623771403,1.7522179033798715,4.250574285478592,8.728855707445632,10.847979462488134,14.63356957968821,13.16054043311394,2.968093504891863,-1.6994265934094894,3.331498408837074,7.130978570052255,8.664343928811594,10.408337968602826,7.813293045719954,5.433387886221519,10.928136639303867,14.105875048550496,5.936684895174313,-2.876393714360617,-6.07178658514945,-8.12559474174531,-3.607053623681425,9.343819801091003,16.344407620539098,14.705061697263584,14.741681404717193,12.523023425484798,3.4059955221260694,-1.519783489749376,-0.3717018947610463,-3.968428449192044,-8.515946945820113,-4.894181598536285,-0.3140700940110649,1.004321013781884,5.575900060579549,6.938039927002575,-1.9247269810793965,-7.601637855889857,-4.090831216141622,-1.9882829856249766,-0.9996484162835291,2.0271846570536156,0.9374775559329103,1.070822901401383,12.020747822355439,22.56788136748351,19.888114770440346,10.830292653428728,1.9921025522408553,-6.806320374084729,-6.510594228129701,5.598890146493078,13.673248827053074,13.60953770714131,17.075700674260506,21.78461909981941,19.70340448809175,15.55706076832383,9.17425706375569,-5.638118112612428,-18.224044880472327,-17.237057124902293,-12.456697243865573,-11.453348442691683,-9.87549011690934,-11.387048977519193,-18.055582816948416,-17.892267207400476,-9.890556302628255,-6.977045995784454,-7.760577018355818,-3.719629084227982,1.64793167570978,6.677593152344234,14.254117303138088,15.547045060009964,4.2444237240557365,-6.4163550281247925,-6.879629634710814,-4.919627791488242,-3.838744980144679,-2.0603242888108757,-6.209028939976278,-13.909837285207457,-14.786145558867574,-15.25215400271626,-21.826042324224023,-22.572232398504113,-14.865705783275478,-11.944891133717444,-14.875200293542985,-18.074603970277078,-24.181380709812338,-26.77468383821954,-14.309992769369966,2.059740062136899,4.255495184282602,-1.378197973212879,-2.112188245920513,0.9605446551272427,8.614634402542007,19.981466548676384,20.42821861680149,6.567321153146825,-5.494281346349611,-10.620890898111876,-14.575619045733212,-14.17954662006986,-11.201503081737563,-14.971151272686129,-18.333625339956463,-12.068532959278816,-7.444546395986617,-8.584801486586276,-4.144649900803566,2.0808771969801905,2.36370953261002,3.752293383748535,4.865177724882334,-2.51387900803217,-8.682144100721032,-2.968768661768909,5.982150948706098,11.195008103528071,15.734806568500243,15.369965120908198,7.959655265281635,4.247873225402272,5.34926139010787,1.3336187500968004,-4.105211262046812,-4.941371006607074,-8.977025358526287,-15.334050865336309,-13.713197264208963,-9.13733934086968,-8.353430675480993,-4.72499285538321,0.3491749797656756,-1.7378572385678708,-3.727145250758344,2.9028991073328143,9.623117258032176,12.824320890681392,18.013548202332853,18.168455464493363,9.343089102388252,5.2626347840100465,9.11837525345778,10.104814289205887,9.145153405395453,8.43174464920336,-0.0965066733348161,-10.255237384092716,-7.019529968196745,2.686125853838789,5.551430765874099,4.095461844644676,-0.88980907426401,-12.831903059458678,-21.276830241304683-17.67045382734437,-12.77518540298222,-11.710913460919713,-6.229482239050153,-0.9435378825437593,-3.033424902520643,-2.4312022267481614,3.4067969656402433,3.976461850453606,2.3366669344821815,3.567031043993516,-1.5902077826347873,-11.26330862886456,-10.72763355021036,-2.825936825855739,0.8868740267032739,1.9728484748911579,0.12138085607958682,-9.954498316866252,-16.773551519965448,-7.409727408106711,7.350307525087552,16.230479194289213,21.562764420694158,19.8864396333395,10.237632924124092,5.37790967002704,7.014020638472332,3.7505958145675162,-0.7355300032773335,2.686555933339399,6.590763745316131,7.072760250611077,10.411671100251109,10.416115036089916,2.6414927005707316,-0.6429895470398606,0.21405162566906355,-7.833779979279183,-18.637737754252655,-19.97136932569358,-15.555842199742795,-6.217317511503967,11.64464830138068,23.49414343410095,16.849876604691914,5.244644676988587,-1.414006725683431,-8.588567971891417,-11.024961929935882,-3.0939201388353474,3.879819535764846,6.285417315704418,12.282762583548774,14.499751664787436,3.8617655867472256,-5.67077045391769,-3.787921998224282,0.4983739133519748,5.075757120635319,11.830548927152936,10.50386279005829,2.536097996819832,4.369754257978526,11.606733565747314,9.101190934144844,4.165956179568209,5.005361927733349,3.640456144738544,2.440789407874024,8.764015888741456,11.581289863879263,5.051420510210754,1.722190509774073,3.0290107693719412,2.7648915412390873,9.440379857062993,24.575471294492484,33.44562961057568,34.1196775803225,34.784840078574845,35.47532545944958,42.33997699252252,66.02166133067294,97.60467529961878,124.74490884927833,150.95971257699148,173.23485156163872,182.50488580010034,186.4134277273721,190.89526085181467,184.67205089934987,165.78164957687065,144.76961302831637,121.04476828901355,94.27437256510885,74.98376429139284,59.127853758520914,32.73715349215597,2.080560609939516,-21.48691715791892,-42.605227879968325,-62.647418708120604,-77.36487687307374,-95.26813589902532,-120.61715522664691,-139.99344044773392,-150.12211876103288,-160.58272401615392,-168.02093202356218,-169.44292604411453,-175.9878846296302,-186.41410006141444,-188.37514209595886,-186.02064316875638,-185.1783955766719,-177.39257279061445,-165.1003824243743,-161.08024760056298,-160.7427884160408,-156.0843884226823,-153.01577417556865,-149.03936579900827,-134.61273270990017,-118.47475187013535,-112.36367163561013,-112.42220103900205,-117.01141508760412,-126.7717568513424,-127.58085314505337,-110.90391752068729,-90.62627671140014,-74.79879847698928,-59.82925255873867,-52.83880643295716,-55.63630728821818,-53.21875467684201,-44.479304891926596,-40.810808794551335,-35.442700936478346,-20.74782948846919,-9.353933015488401,-4.438475658210114,4.479628689181235,11.336859991330126,9.426678521062463,10.520119218261959,15.976568813850665,15.587979086760157,16.143671638474796,25.061302828581994,32.697703543765854,35.070391555615615,35.7209844834195,29.15283993794541,17.307073908153612,18.598960091071298,36.63131128396735,54.555923712325296,64.74746675211617,66.90438488600745,58.336294476317306,51.82518487719607,62.409729983314996,76.8792567097139,78.75195417197486,74.44553315872925,70.05646122134459,65.65320417215086,69.10070854716382,80.25964210098995,86.33914829597697,86.92849614577078,91.12623817745317,93.75800715359146,87.21557313451648,78.98489833086597,72.71468551729248,64.78244088009936,62.05727419240592,65.97491636229067,63.36067202653258,55.59795208380739,57.11247248282373,65.73544605032079,73.17979222336677,80.85600926484369,82.98150356357621,72.32767061441783,60.89080236214272,58.55299098330535,55.110544959927516,48.12272180481177,49.40821163801509,56.35178493487563,60.143806985491594,64.15467368565604,64.03737284616263,52.45532746892278,44.85022834111647,52.175968850112014,58.67318847887058,56.825015394124584,55.41303450269345,54.21958217651031,53.47316393569513,59.38558046596056,60.91926658591173,44.179489188213694,23.550168542363686,16.931873056173014,19.23489448373388,25.05207505516449,33.74952984900147,33.20317426875275,20.598475661463475,12.518748640557039,12.307117562248592,10.954546277212764,13.558438699593905,22.820814879450538,25.13143654227978,18.25405146087886,13.391857852697164,8.12392028343159,-0.2781864682344035,0.8457268764166781,10.670149060698932,14.768402387915355,15.541193098554581,15.89744665735044,4.240757828320621,-14.719424814873136,-22.802798423826687,-21.153153018300465,-17.7087754802552,-10.413339621436695,-6.174755090251522,-16.037857026480708,-30.385379646990216,-36.317308351321394,-37.18637439613289,-31.880978735850153,-16.54218486891652,-6.601626849255138,-13.514029453949895,-25.31058742914616,-33.705172852493824,-38.89452787163654,-32.64469627319162,-15.749474101460837,-5.760146723806843,-6.458933924602741,-6.444896167607403,-6.703456666648856,-12.668373605025904,-18.0247246814405,-22.486300253402792,-32.87303596355214,-40.06804993998337,-33.696008033302455,-23.455817271732073,-17.27967365116035,-12.976907721031724,-17.029881028729502,-31.66799095426738,-42.063265289904194,-41.95998597712392,-37.20376910936598,-26.55045511822226,-14.604787971739182,-16.006918153068046,-27.46415271517325,-33.09425181800523,-30.90017164757689,-23.791521135851383,-11.468601190974034,-4.9135075745853705,-14.62028538329015,-28.740291490231336,-35.05196572410321,-38.80143761489799,-38.42317261124758,-27.71655569672901,-19.979779100935872,-25.444954228491223,-32.399269272910736,-37.11348932919904,-45.66705081387947,-48.58853877959738,-41.69651233197934,-40.50438459065719,-46.869658571060846,-47.639973339288666,-44.19492630526529,-40.70371452007711,-29.258867592711937,-14.303586052397375,-12.47597788035597,-22.231091141192792,-31.175073226740622,-36.07781591451637,-32.251137901519876,-16.427174679181235,-3.059659786304725,-3.964962754941526,-11.658135302908693,-20.093264730455537,-27.656390429982395,-26.637965335957585,-18.628655759094585,-15.194656967642715,-14.490823472364477,-9.730833412959031,-7.387376522833158,-8.840251423694491,-5.06048742610797,-0.3932953847141629,-3.1316911864645913,-3.89759661746656,2.333382655479098,3.004458448041073,-3.5578895701980926,-7.768852081170569,-12.345759285066915,-17.554089532199125,-11.966997344290359,-1.6856104967303125,-4.829634524126264,-16.977413819297436,-25.255364713889687,-29.09858420162483,-24.46780204492945,-8.863379587765664,2.9755057890196213,2.347253847518434,1.5047688963997512,4.935938538440023,2.5529283424591327,-3.5409867106084727,-6.7146550682999875,-10.796360642686583,-10.686539169104691,1.1551150843333842,10.82732934835,7.248906023746603,2.2017058268781575,2.597022392079129,3.179344963010684,7.218201310720643,15.895088703675002,17.6986324805885,13.325301568267946,13.76965467990363,12.911506861960085,3.711402469299797,-3.371132827833373,-5.731922677602803,-11.02990879595196,-11.853600201212428,-1.1713072451246656,10.735731323399113,20.048539944944366,28.492706960979437,24.377414676633553,4.912123313345429,-11.04740248948158,-14.396910665437893,-11.654323767643074,-1.1834314993014772,15.319212547421078,21.915155299239782,17.722079803896342,14.708611211874437,8.95221856125491,-0.6496128569820234,1.1761210217597438,12.772318320564072,15.810719044469845,10.26360096991004,5.077868933112828,-1.94887481336658,-5.770785171702355,3.3233128958407523,14.371525491426848,15.413252780231439,14.862015642446131,14.872293506298396,6.794686367679113,-2.6723424809809,-3.9658822733894388,-1.7089930375363251,4.028595287998943,16.36265743866075,22.874864674014706,16.183473338978896,9.440250757898177,7.192165532482811,2.8704181914082847,2.8413506082019610.534023415533737,15.36153911588778,16.990772596605282,20.531272102249744,16.39283695236025,2.1904908941325463,-4.252663290265023,1.9531850347277189,8.301752012548407,13.39926535752092,16.407058028612095,9.52009614013789,5.213860821776577,18.58613700813513,32.226897215905055,26.803417571609508,10.914185354492037,-3.664327489541948,-11.320887375775035,-2.2096048817783176,16.83939537533848,20.28806061219038,5.7771720467973,-5.569109725534629,-8.56274944287351,-8.45664955762734,-2.0693302393729764,4.544675004258641,0.46203318525915105,-5.128599414865529,-3.40910164405389,-3.269399542011418,-3.506404628146024,5.012514331318709,12.539631680305616,8.83814002360088,0.702264167092927,-8.623499250023846,-19.074287946829806,-18.408727244024405,-3.6130523530338348,8.360747578382025,13.127663257084677,19.20571692613227,19.906846792357364,10.591714672729761,2.9565296164545365,-1.601812717316343,-7.141176686425254,-2.3539352925650694,12.945335070430737,18.400273765542455,12.01414196603054,8.299155993302112,6.1347470032747395,2.8129056579885625,5.762819604032842,8.181703197627161,-0.9830470741693307,-8.674491002493582,-2.2140228380559686,7.262381601050177,12.62287293024303,17.62016942198687,15.176904180358203,3.783635921105607,0.47507180496847146,9.002009391702074,16.071620193852983,21.373697304856407,28.116088083932617,27.70751495247086,21.241121977759185,17.79891896210489,12.596079464874597,2.7660902078225478,-1.127435139464485,-0.20180204483246023,-5.06539097733676,-10.480536451892743,-9.551636264588018,-8.371292879146896,-6.569437716537838,-0.7509466663519091,-1.6231261840730424,-11.087496925225109,-10.818362581807992,1.926295819610508,11.005397919152612,13.28339460224442,9.812467017460515,-3.4214111615757696,-13.795409125499438,-7.810316226316335,1.308542706868204,-0.28698350227144886,-5.231459927559356,-7.754777061307974,-9.12748714065632,-2.8674043884579574,8.381050555492989,6.25805690450952,-9.831344842740489,-22.992523129441818,-28.05852550214172,-23.323884336121424,-5.378339928303614,10.299077289467943,6.449346032481179,-6.389972020529481,-12.156807779081857,-10.72706409681037,-2.566863849329811,8.498578093954755,8.075158726781778,-3.3683643360373083,-8.46238868940421,-5.184672128464587,-4.50966945046662,-6.182441065995441,-6.495226023827629,-8.208331366648359,-7.857499694222413,-1.0115743176987004,3.8399796813580926,2.4075897459184024,2.9897283080963546,4.200502493032686,-1.6856066048728713,-6.665846310528783,-3.1222093471496386,1.2806876910354257,5.772154572357257,14.079971908125037,15.978723663949303,8.21111867783696,2.6302523897932617,-1.3067867558130462,-9.586379235905614,-11.832268625793589,-3.08284326100578,4.665329387368177,7.366599136947738,8.928897486056893,5.862652359079911,-1.7670904638962481,-6.986546930101806,-11.225903237418553,-16.241347187731833,-12.664368903296909,-0.13264241113087127,7.10904068777499,6.02201686994907,4.370653289528048,2.3498387783476975,1.887013250271938,7.893013535206783,10.58267665101701,1.5227481125498068,-7.23271725986491,-9.258791811562418,-15.343996742685906,-24.861662143065786,-26.96672624801554,-24.661021467950835,-21.081358505900177,-9.86539073305419,1.460135891737357,1.658946056923119,0.45980353413359243,3.852933749701791,2.2522936342089355,-0.9270591410121177,2.434858646681845,3.2370836707701907,-1.2531105288163382,-0.09840536267427402,2.5926807948619897,-2.048624632053478,-4.6900167799928045,-1.267999987237269,-2.253231534539062,-5.82735947205082,-4.910096840338534,-8.244310868264872,-18.411684626376676,-21.481088164772682,-17.21488710211416,-16.89756935445688,-15.767990043483506,-6.317668853174835,4.98583978508745,15.153281087343291,24.310710617666498,21.123266452718614,4.065552585716018,-6.350949204284323,-1.5315029686741364,5.907447480991777,10.288120128529144,10.116304422215304,-0.7291919487568506,-13.131875232181859,-13.491415395075524,-9.990594839259384,-10.187858927328145,-6.175232207093435,0.33232401041936654,2.586947703927355,6.340930960700092,10.614971336355495,5.5168022976729825,-2.937142828209349,-3.9058650990712285,-2.490723580006398,-1.4935971167184234,6.351836386810769,15.038437568962822,13.135187569572174,7.938584416052482,6.820491340387834,3.5710954476562096,1.1873758979240014,6.316765175380847,8.88579772832543,4.455127148377141,5.247982188874809,10.595551417657287,8.951895521683262,2.6212462165024246,-5.290552471809738,-18.116141658900215,-25.13500081872005,-15.86221547404006,-3.6567092781552164,0.5627452847701522,5.2794364933616125,11.235064071672243,9.97615626476537,5.563278097963913,0.2958071653035087,-13.323183177005241,-25.408900880560296,-18.88870845552145,-1.7208717860298277,12.263781269903395,21.940268718824093,21.411403466909455,7.584818044692456,-4.658404135147542,-7.12627365174591,-8.990058515352489,-11.08605784654703,-7.603466541784342,-3.909494643653803,-1.2162017686937925,7.142167486509249,12.898239149417075,5.685160299201257,-2.7870656589268306,-2.220562865246582,0.21393616028193324,5.138498682590496,16.51098933984952,20.72812202448185,12.776256020777364,8.18955916020349,8.554661380806595,4.155980324863966,1.3989661437939356,3.995995956608925,2.077283419789213,-0.7114312521462812,4.726989001059567,7.659601735261879,-1.1183156085553576,-10.465329415636148,-13.289820128386568,-13.975267718989455,-10.25603803487673,-5.785354054081537,-13.48437231361821,-22.842431925006846,-14.615984607849214,1.6117150558228817,11.09671566829608,15.609816957506977,13.036279871846467,3.642314022741287,3.335073533463552,13.898922162308882,17.65003118780669,14.28486916218391,14.170611929375834,10.42432299880144,-0.5385591190919952,-6.5325404041391835,-6.189314995585219,-7.257405188484198,-6.631366116850634,-4.43439939880128,-8.66520944390486,-11.66225238937763,-2.9238121069641068,5.630043909272836,4.29906143126796,2.0082037622466116,1.7027572081835707,0.5993623652817897,3.276677873471846,4.909470642958978,-4.407200257556973,-12.091108124366599,-3.5593274714305077,8.99481623273602,15.031087511681465,19.77322212564761,18.149440627011757,6.393027787508721,-0.6960820691055898,-0.6444773268998074,-6.969900270201945,-14.670627826110083,-12.669732601713019,-8.126791961386314,-4.327507535312228,3.9576181276091695,7.433016034553853,-3.341446932362874,-17.061231675439643,-22.06084016630539,-18.877064430436974,-7.097075237417943,8.639474482296615,14.122852664358083,9.191226167400623,7.748431855635956,10.415469688396323,10.539988835638747,11.700253159984094,11.512262795667683,0.1311944367513025,-14.085967761149137,-16.64769478097632,-12.149193456927163,-4.890166984225719,9.257632812235729,18.73432170533786,11.732857045472848,1.6422790649119072,0.5068885242097655,2.2323732287558613,5.751021193167578,13.989151703996015,17.796551682474984,14.460670067444974,14.105554171282826,12.614792621652501,0.6712064275021734,-12.471333573177084,-19.76685193149383,-24.809702041146878,-21.510959561163272,-7.7579872368186,0.23933958837120928,-2.887604287437771,-4.7719404877094735,-4.6988903893363405,-7.473827332927929,-5.553301548157341,-0.6590645581243653,-4.353556541125007,-7.326276252227384,2.572123873746855,11.281294282617077,7.971610726944354,0.9571379899219725,-7.826279391826199,-15.77260988555269,-8.957871839565422,7.133068924436797,9.749472716713731,0.17802677738357886,-4.644925099618259,-4.257514575061855,-1.300734946367362,6.558511676557491,7.870603581538069,-4.444107905010156,-13.314808602961694,-10.720250325223859,-9.506572167743824,-11.190969372736756,-8.047848734376071,-2.4528386333731396,5.860357989831923,20.13020483489051,27.608640347731896,17.060962856533337,1.3087667433451067-7.338015609806746,-11.549428263026957,-8.42650885988561,3.537585967615944,11.23441550572524,10.771941406963364,10.901021340907599,8.89529298261043,1.6454154203407385,-0.17199825312605915,3.1980816983813165,-0.961807413691611,-8.40065699224314,-8.584955814206362,-7.522505050587604,-9.02348216629667,-7.726955330084835,-9.273337845136673,-16.09520593961415,-13.49497488329131,-2.049235538566072,1.4243092582858055,-0.30248828113620907,3.3833134161643086,6.855107398771056,5.783246918041632,5.245910140851185,2.468798598332569,-5.129582543284098,-5.13924300090844,5.077825636875168,8.315868457202882,2.847193918307605,2.161720456761903,2.8136845690595047,-1.2024458082690135,-2.999086672445139,-6.113704841406114,-16.6425896204684,-21.662562516319596,-15.86914966394456,-12.725180308097272,-13.262683288236593,-9.563836257877242,-6.2994691526851865,-3.523498679953067,7.16665815398358,15.701084840609484,7.933047399319012,-4.7067583516345906,-9.84664044344275,-11.153729889542081,-4.189610020935172,11.911697777995856,16.76920323903124,5.057409376070392,-5.308547368927908,-11.095354927906502,-16.722535924657,-12.559922672785111,-0.29096510428978206,2.37984745936659,-5.253290057983585,-13.185376775220693,-23.13724857327534,-31.288448439181643,-25.28127895007632,-12.671152901949707,-6.868816746523704,0.40781751719702575,15.005436236724462,28.193825042018954,41.67965940670908,62.55259820881639,86.23219057125809,112.58423605791832,147.98141903305049,180.62911146221794,192.26909320453146,187.24178422728625,177.199462238651,163.07928917038237,148.77835289539468,135.87981895225533,111.27581329270967,71.71958951603636,34.3840018225434,7.482562945234927,-13.464625343804707,-26.095066273072675,-34.846253092916214,-54.41197314321284,-80.06745643474105,-98.69851683384701,-114.78343814641005,-129.79430774438796,-135.92569100594153,-138.35094665807648,-142.81206906777228,-141.87786281090808,-137.4591605309842,-139.31845511081588,-139.9955940784982,-130.72102496137444,-122.41901517639405,-122.46177685092925,-124.21603903359568,-126.94046651575387,-129.33438777057103,-120.55981254391907,-105.54618592285414,-102.48991103427889,-105.64434626740763,-96.08653364262415,-77.103656108071,-60.493917926283544,-48.431794076562895,-45.301730249798226,-49.73958134522422,-45.97782611114012,-32.90149157767627,-27.50353090924212,-29.937065026869234,-28.75564218409841,-25.23764554573935,-20.456683654279715,-11.232888214107644,-5.6338980299085915,-7.620803427932146,-4.884565477224035,3.1533467753295734,3.6205831681302065,0.5996273015677107,3.0650539435962387,5.803610237221795,10.870833087452949,25.01223059362888,35.124211886146696,32.004629109838824,30.810774952474826,38.07132359664965,44.75027213267921,51.853514297111644,58.59460801138097,53.90852803694115,43.8665502860003,44.611431996483105,48.91911966658306,43.47503401239551,36.48544932785246,35.41090422465845,36.11119177058376,42.14257686873938,53.339366320137756,57.80086926522817,58.408124161238646,65.88450765068521,72.07692612082725,67.62862700148034,58.49998479465458,48.09954316974351,37.38955789309291,36.090873950572856,44.5676192176708,49.02507029165022,47.71567858823592,47.87491401706743,44.88078406821845,37.356040379930235,36.63747229213195,40.7780320431826,37.86814240239099,34.97791680428291,40.329554863909394,42.114821460181815,37.10650209841991,35.51673379693804,33.386205743555614,27.157840723189935,29.81614061588367,39.06967859161109,35.99750018283637,24.6140404870402,20.480140602361047,20.369992316586746,21.54349941476695,29.52661397408772,35.85179536863135,32.946636841165514,33.34120001859844,40.61262403753962,41.21150202670238,36.07440374415891,33.20556637434076,26.96284826081996,18.96898285834591,19.95772336118136,24.005310313046333,22.713171250693385,23.798844387581035,27.63677770505833,23.835226281813906,17.708439720328176,17.824902274340193,15.81025146778479,8.378478062579568,3.539854807917659,-0.08827257973529468,-4.0817210655677645,1.3433505766302998,14.044899709745028,19.663977934541077,20.236207660662892,22.063267461349,17.91174652015677,9.913011817871523,8.328989625556083,6.803798260662516,0.15939644654365237,0.06286570813456605,6.256758116715048,5.814946685138065,3.0745127233429566,5.828342744732863,6.320365515068863,4.415873333800186,8.918131241094049,11.562047991675254,2.7661879866516808,-5.932274287660804,-7.36245922997593,-9.008394328599003,-8.74230400986035,-5.09090013838998,-11.987141637503672,-29.25593540124139,-41.20605316164444,-48.99684236455133,-55.787691065778084,-50.16710085401884,-35.77934081273049,-27.595784985662775,-22.049447998205547,-15.171539327025092,-15.284788204992466,-18.35893884130842,-15.084683869897667,-12.160631017380297,-13.204777130637755,-8.608310794627059,-1.036884706637294,-2.8658634871158695,-9.69927910311075,-13.663167558237602,-19.978385609590863,-26.180284268089935,-23.115087087309202,-18.04108369535468,-19.710142075682,-21.465419196176434,-23.78278566173464,-36.22201273346485,-50.188662463335376,-51.77397019437749,-45.58223061979102,-36.45805922506939,-25.249395418646074,-24.863967436410544,-38.563296440287814,-48.33756203408649,-46.26468986157217,-37.84959751615509,-21.315950766398835,-1.061540717324891,5.157012153493419,-4.079603058612847,-14.379445093921317,-22.683225690999045,-27.13743134512474,-18.4132774468773,-3.6990760053266634,-1.489749593495301,-11.13985005810617,-22.570594432661743,-34.978648773764405,-40.42589717963578,-28.293726418578203,-11.725794480126913,-7.056519067997576,-9.465570619364867,-15.650671472450437,-27.00753915294598,-31.29105528267533,-23.721433144243875,-17.539657563051502,-13.262271729930903,-2.0886783441063006,8.201960811506334,9.10745867176768,5.262160479166403,-2.463113572305631,-13.796582709235011,-16.88208120791784,-8.359216208118225,-1.3368329555797136,1.662336413039299,6.0111509294743675,4.066096833325201,-4.360814108573626,-5.076517827324888,-0.8641863229974942,-3.392183665129045,-7.144439804241607,-7.31758521547414,-8.804669234596178,-5.826169087986939,7.297403739176433,15.898080956673232,10.7177105099517,5.636432824247743,7.665327950551169,9.365556861200552,9.24076019064461,5.5723742846544795,-5.243249748759931,-12.870738462649323,-8.310007993813604,-4.391578166006561,-12.0652087986862,-21.67542571216833,-25.96153494560124,-26.22948384636088,-18.253559403125372,-6.054096929636858,-3.4794023130025376,-5.994048947630068,-0.5451887914111366,4.863838373289261,0.46698969285321157,-5.323137134858926,-8.912230150362202,-13.850381526309373,-12.823983181563753,-4.999764787505882,-4.6522603505731075,-11.27639558301347,-11.162744010661138,-7.127631281112433,-5.487933049974341,0.3916065919654157,6.53391014323161,2.200733753211688,-2.576275250210978,3.179198472623232,11.746402958505488,20.600468877412915,31.86297658900545,32.45279907832359,16.61046204192367,1.5385868052774518,-2.968682471674492,-2.705555879428139,2.388676284114579,10.17651514844801,9.077291352603808,1.7948929750988663,0.7522254555152426,2.059954774426231,0.16004673185673002,2.5253840721484964,6.913570005049915,3.141093183335169,-1.597359156048682,0.8984898960001084,2.569943452167356,3.8350420029018695,10.559157110341017,10.994951065269316,0.47914088158478396,-4.746621096331883,0.8251069898290222,9.148663884482016,19.461719272321552,28.39486828871578,25.48487335311689,15.465497495643085,11.67223624386919,10.846897539088232,6.80464998086333,5.346404962952683,4.929260283320398,-1.1702253188693827,-5.738266945346914,-4.105813863687706,-3.038143942486091,1.0243746274327536,14.127944260665933,23.7847077032974,19.059379980682564,7.998567348927841-3.1399563492651397,-15.052494669917973,-19.45886549113723,-12.01209099728265,-2.5210471046364797,7.741158923951724,24.60515245780018,37.535358144807404,34.32392128753844,21.646835944821333,7.708613997911948,-5.25666580729896,-8.999880041028943,-2.2519892909921526,1.5938080649580846,-1.1963072290746855,-1.438732530151626,1.4867245982460635,4.374911386486122,9.981156225338184,12.418226347023952,3.112210820515668,-8.0375716774997,-9.994240910420004,-6.913330886365757,0.6170935229601127,13.2813166007789,18.248888247064954,11.376404845795555,6.281111062872498,5.558638208115,2.8563498373069542,4.345103700532585,10.961713080059939,11.072414054894478,8.065884834885482,11.704785420029287,12.80853021742499,5.321749908718388,0.2892415052526798,-1.136375621786645,-5.290457513864467,-5.18248318173845,-0.14950319328675077,-3.8755469824024145,-13.227239913728113,-14.32310547032908,-12.648362291974477,-13.71638184723052,-7.826258460515998,2.508327300379379,6.566343810722823,9.073716074788889,12.190561758914361,6.70056870119488,-1.4216712881373983,1.5280829785594625,9.038481999736334,12.01443357932644,14.926434230900515,14.936211512011797,6.81284560718062,0.9843461170978451,2.1201730560299907,0.21014312477983088,-3.2282584173146565,0.3516082354947454,5.349912338198003,9.400070534689585,20.54954038061637,30.445855814086283,25.102036715104497,13.67378519291238,6.696379273165377,0.48523990649838966,1.2484885677338138,14.24023180918029,20.601075652404447,10.520300679046443,-0.19883438394272268,-6.410673731055761,-12.805697809701229,-9.625113774299765,5.5995739365870705,16.539345876890525,17.87807854487092,15.109375213676973,3.2913542838739183,-15.200779831959501,-21.913511517805915,-14.427594973237504,-6.860790737381269,-1.9356663509086671,2.207120323603328,1.918671727936331,1.95948316796791,7.211629606651572,7.945266546360356,2.761463004981751,5.294862069643403,13.237891494682321,13.01365779711216,6.851838770458603,-1.4000895861135882,-15.458544234961508,-25.494686066110255,-22.27208168498428,-19.05651095174827,-22.20744895208422,-18.187361775528107,-6.719580856726258,-0.22036561310662728,2.7580825306233674,5.592260018522941,2.048413645832639,-4.693573809514138,-4.858229247813041,-1.6924225987917363,-0.8520374846364867,1.108224505378696,1.869759780949789,-4.9330999889001905,-11.616109161831332,-8.328137731671175,1.076379189754896,13.058209175153493,25.430258170331722,25.927413640374212,12.458435290657274,2.0955703638586396,0.6580463497905431,0.9062316592187376,5.016678569348388,9.791846062430688,1.87629591828818,-13.103056081776815,-20.105498932594124,-20.950009107070642,-17.694115051584916,-4.93944442471579,8.59352437972514,11.732051492074516,10.98263369678643,9.057842881004369,-1.6570449200525483,-15.082145480191798,-18.783138377214087,-14.072018589863028,-2.7352538994312936,17.195119048734895,30.122587671506423,19.533880101562772,-1.93567383634805,-16.79346534394896,-22.09832977517934,-13.033691204481375,6.182944495765465,13.606844632788757,3.422481468669743,-7.789033354594396,-14.291972484371449,-19.838355902712102,-19.002321860731733,-13.233642947003325,-14.736432658406379,-20.33987726516235,-20.30510313838426,-21.328494566898165,-25.18823364711254,-19.772635859491132,-9.145443305742758,-6.200812481827931,-4.607070586661117,0.6737403266626307,0.2086633697091712,-2.23477054501557,1.9557239547762926,2.452746497582495,-3.3064607855766264,-0.7978947336566604,7.104038022288524,8.189956526742623,8.470054981322763,10.469167775570481,4.329284174587192,-4.081509102609453,-3.3568321461666186,-0.7432651517093931,-0.9317306985121964,3.3100262274123393,7.527278177924446,3.7985406231663923,-0.14664092230467807,-0.42907402066753564,-5.179253407309607,-10.145540619162567,-6.327114590569188,-1.8046479769486574,-0.48611603228248657,6.710092818584897,15.192700030971249,14.901221651650674,12.48869515632358,9.917319886675354,-1.862444202762442,-13.406978053343918,-10.170982833050667,-0.7119159250656013,5.906380808872121,13.451652361770062,18.6263997010676,18.30858199467848,22.240680518354907,29.857797628639254,26.28089445916722,11.980196652012308,-0.9279241842857244,-10.401347366055901,-13.088006325873858,-2.9238135240751566,6.881078475055638,2.295032064796963,-4.02409583593783,-0.5467590340036217,4.617065226248784,9.09220321095709,13.506312799213838,6.108605384539543,-10.10946390163379,-12.813843955209727,-0.9512143201992611,8.406374860177548,11.83412269289807,8.993350544704377,-4.099033267139015,-15.008068735695984,-10.200378106624553,0.27356106355127885,4.747120446546546,5.37324882225022,1.3978336354063368,-6.725320308051535,-8.35099322627513,-2.9524757729073685,-2.1259861222894654,-5.339919308646224,-5.3401970290547505,-5.94727557942362,-8.31033397099819,-6.157898961557906,-4.445954738803847,-7.294431063694779,-4.820045935031047,2.101538557848998,1.7433931408258343,-1.6294934774194685,0.2350215825654769,0.6610734119899433,-1.504167079279295,1.06511662491274,1.9324046640527568,-2.567893502694641,0.9595899616381771,12.011800148568014,13.67779147642861,5.546727185525259,-1.792056885983325,-6.493075309778553,-5.324558454926635,3.8713537855453914,6.265171013182574,-8.657073796029897,-25.430027604991867,-30.18892013826787,-26.810175032905228,-14.917310681877268,3.61279453928479,11.887034871483214,7.636269756192508,5.2727823929377236,3.5123866927515945,-1.476171554259943,1.1357329942537986,9.871850724634372,10.421138685118596,6.113001259986667,6.55724373878371,4.283667489216164,-4.910395052554178,-10.921472583690566,-12.454607059232071,-14.024610164974309,-10.2774998068138,-3.261628171330437,-4.1982733802115995,-7.841684696521678,-4.349746310864345,-0.44915957452727673,0.38608578004805094,3.068038081467365,2.5461948822666782,-2.7523059505655567,-3.107662499040347,-2.317818437322773,-10.681967242362207,-18.737570009548687,-16.525753529238003,-11.6788166820171,-5.539112573317928,6.047090796569074,10.344320463343546,-0.7971042380896884,-13.019756536335207,-17.504067059914412,-17.302366114845736,-7.844778484145572,9.403100201403001,17.026662617871878,10.881455183141814,5.083670468624968,2.855489549532034,0.40574459658641915,3.489620136667031,8.634368176468314,2.838154277271115,-7.636145018197968,-9.848576137711268,-9.185720000274546,-8.76605310613566,-1.4963238100520426,5.312562057527193,2.644774387271466,0.6236358221094096,3.4918974893823553,2.656633555196805,2.624166863793854,9.88751659442268,14.070501864881729,11.75974193802546,12.222676044529848,13.062372763724252,9.823494070489332,9.713681668296426,11.704932436966974,6.611795548965658,-0.7514591961761861,-2.4627829834508663,-4.339456684217796,-8.634276332483939,-9.665565921016125,-11.756740594819133,-17.331462538973604,-15.293673860594911,-6.504940003077348,-4.806268693474558,-8.245844767997358,-9.029955248591378,-11.618247216503347,-13.980455772877317,-7.732307408753728,0.5138370993078376,4.213854463827726,11.272727537943306,21.03055707305814,21.724841055307863,15.1149679768318,9.626585562421305,2.867355867663483,-4.2575706292760245,-4.273555599538824,-1.926590448863347,-3.495946521407098,-2.2230840271427885,0.8330495993577485,-3.755724170312857,-7.879897564421618,-1.0140989462912664,7.046070975996992,8.361153059898701,7.318973728154927,3.2557547040031443,-1.608198519600101,5.531527644226449,21.002816825492136,23.521223065322364,11.106375043300254,-0.7746450333555157,-6.362063490266963,-3.5949940227323394,8.716884022322356,17.065509047049716,10.468708211402143,-0.09481642794234402,-5.022730606950772,-8.006505986338055,-5.994694942699238,2.8317505846589337,6.314167683621831,2.0988176376787404,0.3262656087872470.25479549945365626,0.02904973224232066,6.221494092977265,12.332643593076007,5.983308335183841,-4.246584915579864,-6.258242285120415,-4.843848621708039,-1.2744019575280736,8.207714591483864,11.86916571017077,1.8677506663962968,-8.497179336666546,-11.752671679021088,-11.891935389324832,-5.306426799865042,5.635357767247594,4.860450281443227,-7.717163351988987,-14.336298557244843,-11.497399043759216,-7.6236672445258415,-3.3311763435625212,-1.2441700132657316,-5.117466908115422,-4.498450385485894,5.122878805716728,8.430130227353951,0.2597257820808623,-6.662536668988924,-9.38750693215656,-11.898413946774813,-9.004185904521771,-2.9860792943096404,-3.795339889370783,-4.987613586753066,0.4267211851593209,1.8739885119742463,-1.851846089106426,0.27376778422488246,4.672261453902377,5.833616481033217,10.16545137289461,14.15849844878475,8.663832074360391,1.140521989894237,-1.155860402460542,-3.582198150452311,-2.0142599049094216,10.64134314331809,21.18382435874194,19.304863385263076,14.626587749376162,10.148542827615618,1.4670982953578178,-2.8743098947250636,1.6808286535526256,4.582532796557327,4.798350485474819,8.282167484099848,6.2458976826561745,-5.716771451789406,-13.109769505116894,-11.061988536078905,-7.993260844767102,-3.075385218544513,1.9742822186548774,-2.7524845930438593,-10.043966455591534,-6.703640184081633,-1.3696568542284417,-2.323106076966439,-0.11906707013509177,6.568755567530801,9.941946673943974,13.790971773665927,20.085515379010463,20.000114420929826,17.94456214586875,28.27167739442046,46.49830497288061,61.922880539995546,80.44171710526439,105.63467209651705,131.87926912755697,162.23074447611316,193.60940025896858,206.53069102395963,197.16492205581332,180.88987548556042,163.41545693709745,145.54479126664202,131.5856285075607,113.02787846063046,79.76472235422158,43.8957848526948,18.07422790593695,-5.051531058818505,-29.671264284087602,-51.46500283391944,-75.60363454120193,-102.9376565519035,-120.7597389750564,-129.79643552268072,-142.68864211520273,-154.36405704179407,-156.7009090261177,-159.6452537536641,-165.64301581205527,-166.07145896169385,-166.6399567322657,-170.69358095391215,-166.60428163651974,-157.05829462390022,-154.82294764774906,-155.29111612785354,-151.23005960515417,-146.16247426445528,-136.59683881251073,-117.72302504463487,-102.98681355318719,-102.70301433334132,-105.18665048398213,-103.5092997124956,-102.25156083288081,-95.39527871951711,-81.19648325485147,-73.81047072101532,-71.99310317995251,-63.064537364748496,-55.19360889808991,-56.813455104288145,-57.82896504776304,-56.31085175353058,-55.42933721585128,-45.66985857613939,-28.26166525030655,-19.19717720484948,-17.308310155380674,-10.49797270233752,-3.358153574762402,-2.6803515593377525,-2.9104272910799693,-5.721404132797527,-13.366147963584167,-8.97810339081246,15.716005755114548,42.523358630142994,59.475514348736425,69.1400896866431,65.31333410094861,46.056921023533974,29.57892142758061,25.687099699693615,27.29049181977092,35.871412446637315,51.87696233611649,61.05091061795038,62.61793972439105,69.02645116256696,74.59372937181105,70.0629171422692,61.72230669690396,51.412521718397606,37.34381844937654,30.106764213396833,33.73801507678394,36.36602139201554,37.394474211618586,45.493456681756996,53.4702881412132,55.61344314851178,62.258581229195826,71.88492473901495,72.06767068562023,66.48166457607033,60.15587768234349,47.516638454577226,36.91425138279745,41.33569005785236,50.85974296257565,54.82648918800082,60.13005774676546,66.41044355922583,64.99406172757955,60.97174617274115,60.2467306513567,57.79982520173941,56.82479609711291,63.00319486385829,65.12381923996547,55.92707317065059,47.22463920925824,45.08254193942746,45.26452265413572,50.095207887967206,56.10861418408765,50.41922833058837,37.645254526145216,32.17539717764058,30.23954032609172,25.52508958833701,24.06614112121638,23.663194391235532,16.885489340750084,12.598334120956912,18.186417986231618,23.27410146102676,26.11831636162811,35.838307274921625,44.19703555910619,42.15816131174992,39.08806411018163,33.89017072238578,18.375674404320968,6.06499659719995,6.924956539765161,10.842099085278607,16.112437843527516,24.237628604843927,22.417506315145204,9.079047048552527,0.4254418248990113,-1.178334228196107,-3.5603925422646037,-1.9078028129576818,4.982524298959969,6.681710089606641,5.270330424932603,7.933085747453869,5.945309142205223,-3.8197562083702636,-8.212419003747803,-6.253647168922603,-6.034945988516369,-2.18162609254441,4.910169250847222,1.4070967974637445,-9.986994476639502,-16.106038625780343,-18.662068791097685,-18.8087051409723,-9.82208927311867,-0.2006607912869809,-3.208673338765963,-12.454871380486644,-20.71047631043006,-31.41420015694728,-37.05266271231706,-28.722836479862814,-17.772598376539612,-13.361743387306321,-10.37754508320214,-11.337473251943324,-18.9226158469873,-20.13979235163379,-12.273322823593801,-11.645673962389631,-20.06390207813074,-25.896858170956868,-29.553039067878608,-29.53511991177141,-18.03999828225313,-6.674217153750444,-10.387490128424897,-19.686028802577376,-24.48672189383995,-28.51019703704761,-27.901921743876652,-19.1203550813288,-14.693199162653736,-18.490350804548157,-19.404625320406424,-19.028554514474084,-23.147741117963154,-22.328287637685914,-14.298423044538534,-10.057575847489382,-7.388746954312305,-0.8694235523089273,-2.0193867317181082,-14.467793959292576,-25.16268809528414,-32.817413674792526,-42.260401904506686,-44.72669362213915,-38.08825282644419,-34.75293391352178,-33.840605382442824,-25.426300126818802,-15.912141764078628,-12.042451852893064,-8.068697604065877,-6.836257891579731,-12.925009773056134,-14.062973848389698,-5.6123988085515215,-3.046512028761796,-11.751433202757973,-23.525406199913647,-34.743210416928925,-37.21223590836639,-23.747048468445463,-10.394268678679511,-14.488815674725478,-26.579455254770238,-32.00303543647488,-31.35036544756441,-25.528766544978048,-15.116725760034853,-10.70991909194913,-13.3604581024567,-11.732292101941745,-10.327694218450539,-19.519524387231158,-29.44154473238514,-29.531736327174443,-24.957889541913914,-16.860175136094668,-3.9783746489199725,2.4329883036826763,-0.6331789827396237,-1.2086255650868516,-1.81379780148178,-11.592601310230908,-20.486174088652447,-20.693079338481724,-19.403248444840745,-14.550784874222062,-1.644434323942379,7.184977901212632,6.229398679796818,4.839692437947012,0.7930131946828243,-12.09510279691443,-22.201039157729827,-20.946047055695075,-16.35440504194563,-9.845159567385306,0.474031255151822,0.4448213248329834,-13.862731391714584,-21.828732244982614,-16.639257521121824,-9.76572003387348,-1.7506583624297383,4.444543879387218,-2.5227747824334448,-11.000506207365614,-1.487433475984437,16.52721160909631,26.102330533697803,26.87323812636021,18.20625191427257,0.739055291028305,-9.334358122692908,-3.5176112829759822,5.920174523052177,13.222800620476631,21.346642700666496,23.69433565867295,18.031564567597258,13.276932708306632,8.387129958745836,-1.3499298081992404,-6.684801590580578,-3.7084772085769444,-1.3910337579114305,1.7471348471191344,9.440513463761153,12.52065052429155,11.03356751684177,14.767017367868334,17.526372389138665,10.726150101079705,3.1070988213577606,-0.6559108773643547,-6.59213695399273,-9.399888183546391,-2.521914317146394,3.871038200538472,4.788814793665576,8.46677777533607,13.008633578053916,11.662207142602703,9.938814115848343,10.278256024847693,4.536470752540945,-3.9260121623355326,-3.0248441388708596,4.746285299246586,12.692651034952238,21.21469201484218,23.033723267587305,12.481327966854632,2.5375486012631656,1.549629693874278,0.9197198249111393,-0.5423387426825715,1.2473414410835941-0.4028017241756944,-3.868436627841551,2.5461563473933033,11.815504413491643,12.920357813634356,14.887747596219478,18.853823277661,12.471978189752424,3.8275986578569374,7.36290140694549,15.012186838974923,20.06311423669353,26.827590745301116,25.138144887285385,8.068502718125467,-4.5973476244769556,-2.2497112352029855,1.436881838536705,2.4698200568592767,5.271887253181032,3.3878646466891498,-2.111257905282196,-1.2434579698012893,-1.2546574784678308,-10.849942683928406,-18.947652639839973,-19.70091655957319,-19.85791765798897,-15.683650573293022,-2.2030176436891113,9.67039078338756,13.550772872097259,15.806708990992123,13.326247223552192,2.9936690540918196,-0.40749328895194725,7.4487515708926795,11.782440315722983,12.594727246306325,18.11437802060309,20.979445366945246,19.03575500650224,19.84314346504708,16.210128663618786,2.379605438468091,-6.812746590335602,-4.632934958649864,-3.2899302282365754,-4.3172074314191535,-0.25217283392865,2.13515387470297,-0.4986288737044484,2.3776794979672005,6.8840711738368965,3.0010923748269858,0.09381155022652338,2.714201082069817,0.8353001457686632,-2.157230423475404,1.446820519124445,3.425103251947659,0.851536033839252,2.864873179830438,5.507131491672266,1.706274944896035,1.462328371437305,6.02688030683432,3.392948982893943,0.3027359718249423,6.9397166454635215,12.746834450360502,13.455053234435935,16.48528502315502,15.44469336933875,5.59356423265017,-1.33919934520336,-3.5263883262030307,-8.572283968946733,-10.37797418876375,-4.09916716881928,1.5648902246825687,4.877164784066423,11.623824201623444,17.131881493545308,15.75451196190825,14.475696443450078,15.250924020230057,10.870936368819907,7.302427178459269,11.252121584201493,11.40587465716472,4.5763633183923735,2.487803017463027,4.152004226338101,2.97638352839776,3.657870373048854,4.472499095745175,-2.313024651817601,-7.845039663176119,-2.514925014282186,4.190692547987881,6.285158241397086,8.439144012568319,4.1187361801599875,-11.187161950457803,-22.3456472488212,-21.773521145954895,-16.67988066100579,-5.562293991912033,9.519608177815499,11.472411060265301,-0.685393217898846,-8.848595796301876,-10.015372622009922,-9.777480087684623,-1.5835020582183241,11.292098477093194,12.163911456494635,3.964768103245069,0.01476528770037687,-2.539812047460588,-4.360318642486972,2.0218447165117106,8.01218321489908,3.5451277841982756,0.5647100508798211,5.92507250851508,9.10835764383258,10.123538067899357,13.155797300277374,11.131574515209149,5.861914517095391,5.1894662754957475,1.6096955263169062,-8.986914711370934,-12.655327900205029,-7.090519918969498,-6.023134799240498,-8.007947907904477,-5.803508653307316,-5.69542934966044,-6.134219877309707,0.38719421907688023,2.2977814736342137,-8.729975979508989,-16.220997765615902,-10.188241953482532,-0.6219683219774856,7.354643771589814,12.451404639470814,7.032274540822424,-3.8575994547519854,-5.08865999127352,-0.12830767967469914,-0.4565033659780401,-3.3631150955907634,-7.508196600190647,-15.821994499178192,-17.794298863592232,-7.635969787862813,0.4292959724677061,0.8091805868925476,1.607312482219495,-1.0683818277205321,-9.876367742432612,-11.033539279185561,-4.39720804978499,-4.771980253743934,-8.994412401990582,-9.16046297325089,-12.124626938940551,-16.400096863605253,-12.859736385287935,-8.654963311024755,-10.877531095701073,-10.479153660926169,-5.557275743871479,-4.6632773463552235,-4.023673137899446,1.8454102921343938,5.22025429079649,5.317834466733865,7.807786259231816,4.3919807746097685,-8.60513453281758,-15.924782895170367,-12.446736231584861,-8.586324608492705,-4.306940588356204,2.2599059911498163,1.093038868813798,-6.022201306067479,-6.174159291174613,-2.76284124780116,-1.5725259380454844,5.147195744768751,14.777631436171136,15.325396454817879,10.813779985016438,8.685051730863421,4.884310108289451,0.9775454377880787,1.3901784449464336,-2.042579470671734,-10.791668118511257,-12.644057541299274,-9.42897794259445,-12.102541332546172,-15.602056706041461,-13.420157845591675,-11.342942092347014,-8.191657085539997,0.9633232112154451,5.761409896542677,1.2087601890899267,1.2583952629663373,8.185889448201735,10.058349512922451,8.93166476812945,9.814627765735494,5.030141120146233,-3.2947918500892195,-3.012901441272482,0.3657437872351581,-3.4813720471822407,-8.138435495980893,-11.301306183244709,-17.869688861934794,-19.174000578437617,-10.848509469255813,-7.018120219170475,-11.372888157097696,-11.96540009965244,-7.941801887490742,-3.875628540594998,4.450884456025936,12.521155183373128,10.645770056601503,8.130554001594536,13.152316856183749,13.923295088251312,7.4865411143813825,3.7595570589585026,1.1198841694041426,-1.316877165890511,5.903375864521448,17.241619903380283,17.76801026374226,11.950126262565956,7.989702636584854,0.33684203681979596,-7.470492252528382,-5.4371054299139026,-1.5580636436814401,-1.8984646863716605,3.014301826793078,10.405570454546856,9.294560053607796,5.953735300488048,6.984548941215079,4.803036263214311,0.11937539874728165,0.48125610339755476,-1.201099268104015,-9.70480041440022,-12.929954603373064,-7.969967005788519,-4.3376887937893995,0.3943436401481615,8.664384153100473,9.447089761633356,2.6828768150148696,-0.07696707527603786,-0.08125211642537428,-0.9284475945512973,3.1169944570724146,7.607968183921013,3.4858756838250864,-0.3773560395042046,3.4692421299921268,5.519563053191352,4.133532908454208,5.339722554701431,2.5419297443447877,-4.977650474331354,-4.585072127847143,-0.23871158872950748,-4.74780250940734,-11.368471250082669,-12.604252289737587,-14.537603856528603,-12.641148383312116,1.1123868976881877,13.384584901374035,13.350750407849318,10.451045791709818,7.981532683753914,1.630331530237536,-0.4322402388403562,5.217758743961123,4.819561429338981,-3.0568975606122137,-6.497859579597764,-8.816717078751688,-13.294074975031682,-8.2945662324235,4.57280337883063,11.542817046163705,13.659322420098306,13.524979474914941,4.284418127032462,-6.669416345343396,-4.775610752859116,2.605028695798623,3.2967509752386137,1.6310504567048065,-1.7995759844822685,-11.580670682080477,-17.997208240450227,-15.431334442350014,-14.655354381497052,-14.836779985549756,-6.468792269219982,2.095776318625102,2.7971464813190883,3.478815824939804,4.149029969496309,-1.2638338660214181,-5.231186881760995,-3.9986118809250017,-7.145153322774884,-12.012574286488372,-7.759046152006146,-1.5485035006663073,-1.9204681703899662,-0.8389311380750658,2.840267016298816,1.771360804867818,1.39453264047876,4.457140056850725,1.2079835626444917,-5.205166383447243,-4.568297113750438,-3.7656762972995907,-7.885114492014097,-7.279233347919268,-3.340339497759635,-5.614762221912277,-7.136456535155296,-2.576888606357672,-1.9107242826220765,-3.3119565755816507,0.9388402458172616,-0.24530345894515726,-10.383986865254817,-12.558532965464074,-5.915504377705115,-4.52891843739726,-6.825651780169827,-7.903296708309849,-11.670056578433499,-10.404077936796565,4.416982360558276,18.045613475898335,19.028357136002676,15.864091090551454,10.11343877432823,-0.1609317378574544,-2.651134372107836,5.285779133825139,9.327807391935742,8.143060111470302,7.091210335042381,-1.9203955691064292,-16.68936167559541,-20.664073599859698,-16.673840994322898,-16.255108788719845,-12.47885189079254,-2.1908945921584344,2.4086245840975424,1.4057209318900863,3.9408458046276724,5.197132473032076,3.315055796947445,10.661749826047389,23.775415578158228,24.664062342659626,15.547644515632756,6.4684438890342015,-4.633145343595972,-9.859208698012273,1.6364750669010881,17.488101226325504,24.976758575055914,27.710351501352534,24.212019895355287,11.151409062400262,-0.9157258459536957,-5.169309490946643-8.757324996641913,-11.835018218309967,-7.6746082834420815,-1.4562205288267571,1.5595255364483225,5.627890329210283,6.439843251761106,-1.909823627542432,-7.816901043106323,-2.688507485790814,4.987245183327834,11.999936463719127,18.41784170940552,14.281597701077203,2.4344079796897073,-1.5603150105702168,-0.33042028992728956,-2.7471765170964315,-3.1114338647986095,-0.9172200171655975,-3.6759732133089895,-4.363445615937982,4.846474643718668,12.015130639350872,9.436079783679407,6.58453799842838,4.945638640275925,-0.06401884401677949,-0.33265982985524567,6.056860968004985,5.889178392825742,-1.1103570170449015,-3.7588144115469504,-4.268073213970596,-5.909488252553281,-1.7671928214934969,3.5609119711109702,-0.5923487325096106,-7.623325568828428,-9.729623870804149,-11.214530240513632,-8.847160733022882,3.2397484741531017,13.154033930254743,12.762717435216214,12.551803486800399,14.476078172191905,13.367764382082749,18.283228414462844,32.65046760943894,44.9551618373922,56.45816717982664,76.28443165247727,99.27150076968098,123.43534932570309,156.60513505663016,189.4758558794412,205.26388251857435,207.0719053191464,200.56890175649082,183.45382892000305,165.97780114354362,158.8833753092789,150.35532173528202,129.12718167851403,102.83119079831705,75.6035147799937,45.67019911411933,22.64215994695252,8.466378588303137,-12.976189112815863,-42.49055970307938,-65.11070782433566,-81.25302890998228,-95.96258164778394,-105.97659680098212,-118.58168777992117,-141.76987810961214,-163.77743234843138,-176.60223235048102,-188.60771823071258,-198.67059712838125,-199.2506074268655,-198.41217328291816,-202.0170928087162,-201.15642418832294,-196.30221255943744,-193.3721352224519,-183.8210343973975,-168.3691563692334,-164.86965575247336,-172.3153647916947,-175.5716512264618,-174.8666831814948,-170.66809845459014,-155.41606462237007,-136.4923033793348,-123.94878099036781,-109.0325701552804,-90.02706598391691,-81.33971181291872,-82.32830650593795,-81.68484733433785,-79.10607693960986,-71.03210030931228,-51.230726992282825,-33.093418446224575,-29.99492188815882,-31.201492857876648,-26.588987625468764,-20.904130609274045,-13.421830970335598,-2.569270780323227,0.12830484759224103,-6.038503311906634,-5.570446804465012,1.1826219548872139,5.215663914869908,13.246210745913356,27.295614371155466,35.83371256677332,39.759657472353204,45.958484642275565,48.33244102641689,47.20248128794634,53.590399553916235,62.22767428489092,62.29954508607554,61.31527158364776,62.7746144120964,57.00038091091578,48.18399023762439,45.08734844656422,40.07635246824978,33.63876173666981,40.22127262476903,53.7517961717455,57.490209086525695,56.65386802867701,58.01056983617654,56.834606030687084,62.15389771425458,82.03914598713354,99.08220879362781,101.61245642243074,99.80768378507682,96.92434034771526,90.42209538631383,87.88816877474758,88.65256236666752,81.63834008060532,71.22354118923656,68.31670835228313,67.14015888905942,62.057681860189575,59.27189691008248,56.30093124554247,48.915741012788544,48.49393484533018,58.56708385226394,67.90426841454253,76.43765882237852,86.24998026890492,85.57595660530559,72.49830955150053,61.262478268475434,55.73549930779612,51.66308187359803,52.72869378161101,54.15508880564104,43.12840644488239,28.82973876998105,27.556395531839655,33.423567639009256,39.018051126688604,46.25588343796999,47.754191309329094,38.83777004026001,31.12076480949075,27.88173024218392,20.69434014894203,15.951383628981167,23.665167030722564,35.19301926698049,42.59091116580119,48.13536740057842,46.65599283839619,35.7502839293395,28.501079334697785,29.236616516129278,28.544360989046762,28.300816928121126,33.84076862931221,36.599295701215205,33.640236997547774,32.841621062572415,29.964841346408882,18.768548854080294,8.42244104209724,1.9018466199423874,-7.60083591354934,-13.09652269219853,-7.5129678109276306,-2.2863695317635226,-4.521569621775005,-7.777267848263974,-12.490144202938481,-20.723833378381332,-21.65315526117698,-13.36407621686988,-11.508005254102446,-17.54707831458024,-20.325427649856017,-23.500787566901717,-28.56081988093379,-24.61877551416515,-16.10630203101774,-13.36365007732109,-9.349811186264535,-1.511891641966669,-1.1769368677170549,-8.508439244862814,-14.59014847869593,-20.763580938220493,-26.703406811858834,-24.690772244875184,-20.842184589644585,-25.516566917542455,-32.76711233471032,-38.89696330353421,-47.995118900551184,-52.218868030050984,-46.91323616725017,-45.35523340991715,-49.915652872493325,-48.72791698270725,-44.98203353731142,-44.62607817872516,-39.27517726989551,-32.59819525309507,-37.10858616203343,-41.530878582396625,-31.606489670673387,-17.703513744524003,-9.836459861517586,-5.746892716365318,-10.558894564096597,-25.231830865173976,-29.437542140366237,-14.870570556813238,-1.0910467810104336,3.0542849849579365,3.4735960270617916,-4.085964347424113,-17.240911434453576,-21.043698101469353,-18.841723067460585,-22.81276062864868,-25.283683291129947,-19.794705930843225,-17.27096029771211,-20.500281921249503,-23.185814318596023,-29.08591786013117,-36.74588298722813,-34.99269773177167,-28.792960292577774,-28.856079621512325,-29.652706927493387,-27.279116421007735,-26.950620072049883,-26.54706899703622,-23.688183495588646,-25.689878561356814,-32.15213979026376,-32.51327160030553,-28.60433823549128,-29.926136144712018,-33.63465556698216,-36.43182283707641,-42.28547238747479,-44.34111413819166,-34.970618014579685,-24.97368954857282,-21.01896473336476,-15.972716438445726,-13.421873333197532,-19.19441121440318,-22.40248952613285,-19.240388797346952,-21.029791477448097,-26.247584817146297,-26.20636732904627,-24.790610923539166,-21.186888652879013,-8.348962912620618,2.074851566430481,-2.572188136903191,-10.668608990900609,-13.488236612755676,-17.781784855080186,-22.05003627173724,-24.953239811469835,-35.01708198517294,-44.020997296123795,-35.74395371352045,-21.20206840589841,-17.383475648607764,-17.447143230498046,-14.084157873534922,-11.32270254879265,-5.236310673734216,5.167555838322206,4.857071592309657,-6.878258784394231,-10.639567991929248,-3.5960804574932386,4.0822678896159506,13.145364527022073,20.735752150693514,17.573627500799958,9.155027477719795,4.531425505367945,-0.37559419443741016,-4.423402181025247,0.22722623020749966,5.083768450705301,0.764164879611426,-4.057179344646839,-6.32821392383813,-10.943008325061596,-10.10211558900943,-0.463349437900761,4.993830555599154,4.98713956062214,10.129439833687773,15.072316454430979,13.085192683537048,13.917746860122717,17.556770690300443,13.126786043166405,6.155567996983363,4.625726507687358,2.169629273184839,0.972758660386749,10.219010414162685,19.397805965301195,18.230373387056368,18.047469794104718,21.273173359341023,16.149350969707626,7.90381433250852,5.158669233584869,0.3198218445960008,-4.031692332711699,2.8235650406174444,10.09587864807943,6.078376903450882,2.4962848681588197,7.671835500505816,13.718637532293243,19.047480570753958,24.676675741649643,22.98797370936296,18.607097992335426,25.5910840395211,37.402760490679746,39.560323535780235,33.88403359218701,24.24833912382214,10.93613754075926,4.009708344002467,9.376373343939987,15.58064956122356,18.085623078869787,24.347524566859114,26.774610043629288,14.42992860316736,-1.8380280886771598,-11.79111111078344,-16.868437900859945,-9.431361687055755,11.996274389340464,27.835765405260737,30.698300505017247,30.785769505228558,25.288859993872325,10.493108242755984,1.437003743797974,4.737217908178582,9.656283614844167,15.5759874888168,24.03121071814733,22.147032592537464,10.710658506774639,6.361585948110897,6.068832484107294,0.023440402104354607,-2.8815836791415395,1.52963729365125575.248796479639127,10.318604037284032,17.70316455808335,16.32942692962667,8.966814118676254,10.56564260485902,17.181128982809437,17.48787985348858,16.871012503810743,17.841305066476114,13.6617131726824,11.798396999094876,17.933489290749694,17.34794243314208,7.9142275641249675,4.515953726925403,2.766120473846585,-5.722599088749905,-9.283037108423095,-6.149469110516975,-6.973006165278177,-5.61315851102087,1.7773673192158284,1.9171345695429884,-3.496270899234317,-0.6469342660507393,6.06008206758044,9.219978360307094,13.703766684194719,16.50147924783828,11.077680798586442,7.981354246497618,15.73653930777435,23.209766165453672,23.12063106470698,20.765686541310636,15.080910629676117,5.678523012566879,3.33445507084083,6.290760231092328,0.6047344347908048,-8.831681516547425,-10.395602913110473,-7.986909640142942,-1.4770549307567429,13.569010271082124,24.76601603314274,22.574544918546827,16.722249539392976,10.464891884915385,-0.3606279835169439,-4.626264170262769,2.878293889038858,6.037460930374435,1.630712193647861,0.6762263164629053,-1.1299578489880344,-6.364762443045216,-2.420748339031998,7.883984933860684,10.277537671480863,8.619177977048722,8.037022652878733,2.076197000468352,-3.249258880355658,2.7174092954244524,9.54680337312184,5.2118384480882245,-4.7755679072391874,-16.28887638903215,-28.04850947698507,-28.869519001289113,-17.064034459955515,-8.183287455367818,-5.9795195782814154,-2.6692399918992313,-3.2013359385212383,-9.597637701243393,-9.076064950189615,-3.073140363055974,-3.3819220916846042,-2.6028336423491716,6.733273645957846,13.866914264552385,15.834750144330425,17.719178283715188,10.188831863553183,-9.499356483705164,-22.092275741621773,-21.651386410615867,-21.853700776119016,-23.434775888349737,-21.986758412365024,-23.407447378225985,-23.444718134925676,-13.554679866883891,-4.012448353286069,-3.104467917214336,-2.0827987338219525,0.24578564148673532,-1.9949905609095073,-1.46017533780021,4.872540003425723,5.63104763230999,2.07854433077902,3.1718524346932746,2.4776207937324495,-2.9816473085112882,-3.763152063605309,-2.6946485217884786,-7.7664096064630455,-10.392530357839181,-3.76321732369494,3.6442271814648115,9.167289396568544,16.195889901461157,16.458898319273928,5.999300776017997,-2.6374142232356323,-5.18690774168665,-7.527774787188302,-5.77983905437601,0.4586140288482583,1.5566683197814553,0.5920966657151703,4.684029302082159,4.671104517879751,-3.49395986132283,-7.54234528303482,-4.9927785288391195,-3.7230385850033656,-2.2659779323263693,-1.593201001765386,-9.033535161466336,-14.067833080460794,-3.7230219424215636,7.052594973122261,2.396429163356377,-10.331161640822316,-23.403865113231312,-32.59275499676504,-27.87686273860856,-15.373766580397932,-13.929382478056032,-18.322506321596624,-12.211265212818148,-0.8179375938654494,6.118859869242237,7.965706210746987,-0.6101177792642312,-16.238977448503494,-17.12882278889927,0.6054748368396012,14.30684903537338,14.539018494369724,6.8961149847143695,-9.904640660441277,-28.00088847158002,-30.637829439607025,-23.805346438117226,-22.379230379001896,-20.456620642774606,-13.45468885661312,-10.681127204063607,-9.656133317411584,-2.7748067229648674,1.8840004105020303,-0.566170050525024,-2.9148912661205117,-8.360551494654594,-21.36120430429676,-27.275236732826997,-19.301969558522593,-10.96134781091886,-5.884536716766971,-0.2036620505268556,0.2070200409015266,-2.1347440711805703,3.3018776041297873,9.24330863966814,4.943915941995641,-1.1632930402214567,-2.819654067604932,-6.469431118841118,-8.647413732798087,-1.719802023746621,5.389535666420944,6.076667445696485,7.911640389367269,9.70118501155612,6.883203809067183,8.495404204109953,15.530063802145804,14.562987147570139,5.941712276638134,1.509794814186843,0.7396252419214471,0.7594371307260562,6.040309373592825,8.418326950839056,-3.008418324505138,-16.83696242375582,-21.560290499703626,-20.859345787014462,-13.401807260248063,2.0773324411869636,13.793296766063808,16.403062471907646,17.07146193602552,14.067380541874666,1.6150445607546113,-10.651189346299617,-12.971272614768287,-8.674586891370037,1.9798975014873612,16.885038558020184,21.558891308406537,12.298947342389782,1.5596083884413954,-6.294435852466828,-12.53320612877748,-10.859357307860774,-3.3693849040335078,-3.6833434369119127,-10.244962174852725,-10.659903790276568,-5.447001535451671,3.9807659817615795,19.626628511825125,27.771798292518575,18.680870136520703,7.723227046380301,4.573095356447639,0.7181442735938338,-2.779433737749909,0.6327207051105026,3.2957730693636274,1.5576163979707185,2.2354916055285727,-0.9860223700205822,-13.364898881187944,-17.663299892713088,-6.4927906621737534,3.1790304726183014,5.006934372527465,5.2062864564250395,0.36867419349075936,-6.2080530498521895,0.020882025359405088,13.21973929661197,17.09438299915861,16.4684069646629,17.152641696124142,11.633381895955274,5.835936219407172,11.048132177456672,17.182300066296968,15.094091790529909,12.542569948156338,9.66086821886877,0.994251344258132,-5.950986295282391,-7.267136152522188,-9.918393687148779,-10.306390030241573,-2.610714975877651,2.8267777864470363,-0.6147493520689742,-5.619533720932982,-8.674158968236327,-7.026603714454268,7.049693453754152,26.785306654625163,34.53140782938058,29.25181448596873,19.816177618171018,6.4793899017732075,-5.871271236539071,-6.093692304705998,-1.400508987268247,-4.475945063676287,-8.158653532914144,-8.95282984450194,-15.347144477804374,-18.89245592479097,-7.953258585892321,4.784467061684522,9.146354257462377,14.002390862909003,17.84352671931156,12.504163098916031,8.089842364222104,9.62364820458312,4.923707427906823,-2.0376831729863025,1.9069778706065206,7.923488711163661,7.984950226455561,10.788198796693354,13.032899294057188,6.7993636647403735,2.4701460111479614,2.7711996131467975,-3.124640578206586,-8.915430699306556,-6.273813298786925,-7.00334531831651,-13.530530238609382,-11.952954724776275,-3.229108061684697,4.383221919689342,14.19290771326606,21.397599290323928,13.432843923130848,0.22615887422333314,-0.651919782528319,4.931883960716934,9.021930917643497,16.02428189891191,20.12809917743475,13.669752206104333,6.703597380626339,5.185219180093685,-0.12648576724416438,-8.148410546530043,-9.943481900790255,-9.572197030936213,-8.251961725861262,0.663320872900726,7.63703668036294,0.33230273960259904,-12.94563449975562,-23.10462903245923,-29.38311199471582,-23.943652955451377,-5.415727708348561,10.532702772185731,17.678725728722956,23.119250111594475,22.49349645444752,9.210022233767074,-4.632847706675323,-8.808406073195009,-9.204006741089733,-4.800382388451699,7.913815790242001,15.663938487678543,12.973526212903732,12.301517197710723,12.937765348875608,6.8361462061087845,3.059292615218186,5.522428649165809,2.150286740694155,-6.0846027675976195,-8.746385633840676,-7.47134746499974,-1.4693279738928142,14.90755533994637,27.890978996799802,19.36023328477739,-3.336851969629702,-25.230052534340032,-39.89464363482134,-36.89701848134142,-16.310459911869966,0.0898045974138606,3.259741694543516,4.946473562246664,6.921454762881082,4.774401130096493,3.377003100779742,-0.9786609147647363,-16.71861184068442,-29.56766557754881,-24.02017916835095,-10.054416124864181,2.5797981514289443,13.738682976974662,13.128224432787757,-3.1479551434075113,-16.773555326765916,-18.172701346548138,-16.275596921455783,-13.53004663929497,-11.051777851414148,-16.934943848263867,-24.022648688544013,-15.391877028338731,3.525486213041554,15.665087521851813,18.166255517592184,11.25831460439429,-3.9346797159102462,-11.774730805006898,-3.60519105742254,5.2836861135272555,3.8921411399445818,-1.9920112458681958,-9.18686517571659-15.003596565732865,-11.095303772364977,-2.285276792947545,-3.0108725256895665,-9.953430285908338,-11.580571287770843,-11.107064472566906,-11.418217417735335,-7.018241022983914,-3.389764949114332,-6.54890728110648,-6.264656538997267,-0.9263167472096863,-2.4202430328010265,-6.109890168363489,-1.6377249135917724,2.998307332890697,3.2013101399725654,6.083199209536205,6.56664604755456,-1.6605228067446296,-7.504167998090249,-6.542171042596597,-7.439583361922328,-6.31936800891607,1.5123647376132796,3.9904872270617613,-1.949963338559606,-5.438903134234486,-7.405155483813448,-10.810622739366668,-7.144636544254675,-0.11374923062879372,-1.9624915397806026,-4.710000135790828,0.41311315742347343,2.654973611603401,-0.7054530347358905,-0.5621352705245302,-0.9454394199122743,-5.7773568533635276,-4.636428531924809,1.8183904333939247,2.010006599496811,1.5948845384097834,8.54029016339277,12.466121449751782,8.884924069576158,5.991337912667122,2.006050599704604,-6.470727402907245,-10.776250435231326,-9.794434108859914,-12.403214590478468,-13.489023306335408,-5.1192744133529136,3.4918552586129987,8.64993977171444,15.566270754082133,14.769688049517658,2.121189781475991,-6.29038714905006,-4.832768724813168,0.09580687313697211,11.983180043385493,27.306226418158097,28.652814591767996,17.902128686129636,12.50715890170647,12.445107004460839,12.08765357965699,17.828646982611144,26.99244073633548,29.06916767835908,32.22390753163447,46.65232283676974,64.48666920100392,86.3359735360294,123.45421193496257,166.95056172791544,199.7815375988316,218.05387257739693,215.60809286746948,189.84717864111323,163.18326872682067,154.90477119881038,154.489323738718,147.9187907728153,130.77079728770764,97.0691455730555,53.69172465954651,22.216875391630268,4.796950099405709,-16.364117620055033,-43.770025674051304,-67.96835506784045,-89.1828639949075,-104.89308531388653,-110.83873323658922,-120.21581611272498,-140.52076944751246,-156.32654458305052,-159.86373028200472,-159.61103161165926,-158.63859228759952,-157.37161458345517,-162.0774204077111,-169.16378791515677,-168.24194853972523,-165.4457322295629,-168.9592112108902,-171.59096100875922,-170.8052033249199,-169.8704726497892,-163.511661345343,-152.44866877617224,-146.82083157502572,-143.69247265756212,-133.59706675949806,-121.89396195646214,-114.20891591541202,-105.29435167279485,-98.28674967558068,-99.1198292832818,-96.67567462341184,-83.20048256239419,-69.66288431609365,-59.877504990747234,-47.52577317190516,-39.07886172950587,-38.098775085172825,-30.51234831114536,-14.543521410481194,-4.240549828051637,-1.0933462811178498,-1.130117040762575,-5.946980193257096,-6.091673181310668,8.36502055590983,23.800275153281504,25.628841850797482,19.502163955518252,11.281790957289893,3.984751008027445,8.289736625010095,23.527372927132035,34.89924923091671,41.07558852162516,49.285459853778676,52.95446194153662,47.267602114392105,42.73442713430872,42.30531399564001,41.3997341949375,49.56723559772064,70.33044243746784,86.40999022286809,90.60822809948364,88.56048516192638,77.48461997158829,62.637750870855385,63.25318070103328,78.1010709055709,86.36343658437366,83.49117766032677,75.59240547806368,62.455211878836934,54.68437119301467,65.03329260414407,78.63989926221518,77.33464298694125,68.91978314974281,61.816077476654,54.444137963346066,54.12936632897956,63.74353709385704,70.6821975177698,72.35339626975988,76.4922977318235,78.11582725850435,71.43755456349562,63.16631112292281,56.615994000261985,52.231174397724395,56.55591831587905,65.7371416955807,64.80258323352876,54.097108262928884,45.04097401831049,37.679089974223025,32.137531513299315,36.863263791370116,47.100824355375075,51.823440230963946,56.29216546518866,59.99834006785475,46.80565422851535,21.439743272201163,5.704309409647093,1.0595296985722609,1.2448482146931,9.893607076984104,18.513614032772857,14.814069401770722,10.5547922079802,16.473542357814253,20.871012004156082,22.09895248638033,30.505847651569525,36.10900958030686,29.54465581720902,23.188942922988208,18.970995708970428,9.546340508857234,5.869119985945574,12.918892161681027,15.193172740792802,10.85951102071769,9.341793443579931,3.992180421500043,-7.150287863405756,-8.798532616942943,-0.18468835809363604,6.501616015276551,11.620509592505083,14.222685939043181,6.194938555112964,-4.517036553730646,-5.396973155403273,-2.750739571285231,-3.5201192088446134,-1.5790762496153692,3.4028829760304298,4.2647770052914264,3.906689069522751,4.382622432832829,-3.4690234183209676,-15.495375133935271,-17.380854311929507,-14.149189986269159,-15.088100068202024,-15.118604804786482,-14.960530996158827,-19.456490931141797,-18.542599045140957,-7.352813121802398,0.6971588971274583,1.4275979984956897,1.92399769955558,-3.2439943571883765,-18.637503915395616,-32.03241882385497,-38.36336141902234,-42.315975182770664,-37.34266299964217,-23.008113633943296,-15.921043839793017,-20.235302848136904,-25.879847381791222,-31.066034622052502,-33.18957604135566,-25.124333805589664,-16.322512373483526,-20.393459712335634,-29.568339431430264,-32.66457507167763,-30.639601757893082,-20.723382599337096,-3.2751185405408574,5.530982785361381,0.3418080364194336,-7.365565450464366,-18.807881139557058,-38.248357654915445,-51.45223969443847,-50.13706669328138,-43.16808909697029,-30.728195755830576,-11.716882571762708,-4.163362455539884,-16.754167694659035,-33.88397808507991,-47.48369722430393,-56.91291515789894,-49.81497908578202,-26.96717683441029,-10.79935872344487,-7.933264236939707,-7.829908797094785,-9.141626409245358,-10.902940443795057,-6.40922982358592,-1.6976208175122356,-8.03752071866633,-19.750197863863775,-26.87188765412755,-31.196125563051222,-32.0281152456355,-25.504544741308074,-19.955848712459527,-21.1598650782268,-20.787921202784513,-19.961795288341367,-27.59673192883831,-36.842670775002055,-40.67529783756658,-43.22078981018502,-39.81099424263298,-26.314785974963275,-17.625368050242944,-22.467895165975676,-28.865672864722555,-31.647152676003802,-34.04273170171251,-28.253367139420323,-13.47622826564676,-4.932417429035045,-5.2197496789504525,-5.35521363897605,-7.997240901794283,-13.394641484491713,-9.67482436184643,-0.37228996003407744,0.3216901245737914,-2.7230565680755743,-3.248930053344375,-8.621922077462077,-14.199672027088802,-9.855278255273673,-4.861459751539773,-6.2917035011031714,-4.732570249544002,-0.7053549231495834,-2.1000737253953066,-2.37734187184685,0.9660572581907234,-2.5592073232859835,-10.16752861184846,-10.429080234595233,-6.031122241982764,-1.862254112313654,4.105974951119331,5.838016796708693,-2.267339638111115,-10.300917202785723,-12.019568993693504,-12.760550599844038,-9.58958596439893,2.8262216336280797,14.878260863032239,17.570118313851903,13.110328899712284,0.48598980528546676,-18.229302461441147,-26.031890447411392,-15.817441975230519,-2.7078060978004452,5.27854306630999,10.535382983520963,7.759886040005122,-0.40171793411289336,-2.5450756392099905,-4.5287359105893845,-13.98220404444256,-18.864806678065722,-13.030076248704841,-5.725518494487306,2.230678646914969,10.620675956020188,7.358572514561573,-4.5906932630161315,-7.533011707099558,-3.4298191059785,-1.7504587662541138,5.04150642027126,17.833899313347104,23.50730461546086,23.222694724028702,24.544819972361914,22.117803268327652,18.15045831955488,24.096239664477707,32.00399839546754,27.979244920722806,19.270543450335044,15.484714645185193,14.555129458845872,17.64673172256489,22.48511879987685,16.507908518514544,3.627443554887058,2.6711776657259665,12.118453095313903,17.22540839705493,17.191596152629668,15.302232790368878,10.433160648516747,10.305966926735044,19.568454921766442,23.4869019151903915.392237583012434,9.064645478668695,7.096990800525574,1.9964817237403991,-1.0190949249103038,1.5156728097911112,5.555918558657643,15.994734336888188,31.479905580283518,33.29392913531567,16.551614477988288,-4.060963013699199,-21.80777554631728,-32.29158375165321,-25.585722207946638,-8.84567732127367,1.5123349809791327,7.77777296347703,14.149252088756366,10.74844502590504,-0.17267323941472768,-3.0098688293157343,2.3794667277231625,9.48572182567576,21.446200983727174,31.313847102199965,24.849997056329244,11.726842522981304,10.244199256570989,14.93183676892773,17.25558096373846,22.088762295055552,25.102057620880274,20.72534510367798,20.752982469540598,27.444154053630868,25.33126535980039,16.00800883632508,13.1780781580932,13.416949467191873,12.182028172061338,13.785343212102484,10.960265609737863,-1.5737328414907301,-8.230410869164587,-0.7566430756060498,8.694871822765979,15.173212086365634,20.238175964458332,16.088245053001653,5.521444234060974,5.036633298063998,13.9088329643423,19.982059975894188,23.26990919537884,21.85025043684802,9.348793926126241,-2.7492027145313327,-2.740264324584164,-0.9986659082579482,-3.212260579433157,-1.0106926685195203,2.6044761505792593,2.4843940500695236,6.2524509890323845,9.846977996341103,1.9693686684846883,-4.247275601234687,4.4884297070383345,13.755968887325265,13.089606053269822,9.18060560130702,0.5380597292194733,-13.401182639163956,-16.770969948926933,-7.397455183839732,-2.067988135850194,-0.777577150508607,3.1362342715884455,0.06845640407998,-8.897144933487509,-7.847180371083616,1.2749390222883497,7.542913183483509,11.488817118223636,9.51028076763079,-3.1844660391831896,-12.152358750812962,-6.362425618745327,0.25008840639502306,-2.2188975084473714,-7.077345557368855,-13.602798995163413,-20.0083728511369,-14.710820484671107,-4.508212949331524,-8.371191941372064,-20.290130936512842,-25.38236239103975,-26.015235223086073,-22.126098138000224,-9.906301254203623,-2.4119018346894876,-8.17752374534209,-12.918594209104732,-10.683368411484114,-11.32222272793829,-11.350184022264317,-3.76762608420476,2.0582642896845504,2.0815295775218763,1.9817855085825344,-3.9069534870255054,-16.62836925863285,-18.63834095219825,-5.733303528371087,5.185160100572954,6.516601261323373,1.274811388810924,-7.895107286745941,-9.523481951481592,3.9302345399676515,15.321003913804812,8.659532221848343,-6.427148418012761,-17.04726976286924,-21.142117796422742,-16.511688626160378,-7.386088317809953,-6.842684508070429,-11.646057858496155,-7.620800759297832,-1.1863491984935564,-3.8551370680144394,-7.58347013681299,-6.212023203681711,-3.760739067782395,3.6164257555404866,14.218230886358322,11.944888100735998,-2.380287957806803,-11.734748881662956,-15.726986339188961,-20.674722390495976,-20.555959014006582,-14.473776944463687,-8.834125143894955,0.5177242630478363,13.696490775114334,15.476843739780328,4.510639830713678,-3.0165068743062076,-4.209416579906465,-4.507062151136007,-0.09351751103818895,5.3734209528381855,0.44896346441180546,-9.16970442190682,-14.144136528818393,-19.905004496061945,-22.424595828460266,-8.545261083194305,12.377127386297184,23.123839156080265,25.114194414812015,20.319856563676588,7.421864965508921,0.33465208159326454,6.002391542173827,7.759998207416876,1.5589444046178624,2.309413966122767,8.28493117465514,10.455832280162667,14.382021732394909,18.272785398166242,13.531017856597378,11.269065251224474,19.955963929510443,23.10295962558606,13.043583133176542,2.187196003487356,-5.544934823273058,-9.13902256549822,-0.6627246424844833,10.46706823658284,5.677765591721738,-9.272276215134514,-18.935862852845084,-20.948470271700494,-11.506684674879885,11.281629949712551,29.309268557733382,27.87249710399262,15.972033932605589,1.9151679721022736,-13.343767306694938,-18.05144812646826,-7.083037187558398,3.980068105760486,8.632020156386638,13.258225107458241,13.088018168153056,5.916771384344905,2.4994810285738565,0.792303992187555,-9.037632134970526,-19.086792770788033,-21.430082334080865,-21.85777892728737,-18.078699698314463,-5.556158533394761,4.573513658748052,6.477098499391769,6.99018581764944,1.9632701276022744,-14.303237907707961,-27.54267571933957,-24.681504024598684,-12.001735087195394,2.033153223825839,11.818185535754248,7.673713581766764,-6.723451168437498,-11.023149062230228,-1.8438207138385345,4.794529708958632,4.6218541071735615,1.037838229387174,-7.671533525169308,-13.09635321684312,-6.60914163872993,-1.0916086366132622,-4.949948393764834,-6.489221441423814,-3.6024255860106758,-3.415466561002259,-0.6428763761629621,4.160778591128758,-1.1130219830660817,-9.502590967622417,-6.670632063357721,-0.6289292337788548,1.3505669283430213,6.350969386861442,8.923230499382953,-0.8824514863487156,-12.718884599014073,-17.185937802055243,-18.908097057806113,-13.614257408162809,3.3528676277023033,15.499286912421466,12.423921548508048,6.898494944036315,3.0809548896828822,-3.9294473156673577,-5.206985248287784,0.3960988985630576,0.18787854582305386,-1.4596182585563968,3.8039408065672387,3.9959463256908285,-5.362468323996028,-10.303988318376007,-9.290342790741061,-8.844747850120113,-2.677332243455954,8.82030247134945,11.408558504399705,5.236721314688541,2.523476159729746,2.2658336397569085,1.4656125846080172,8.243243966664693,17.700588482830863,13.39454811773472,0.68732742955449,-5.905254691224774,-7.103995237875934,-0.4047280202607977,16.471923020355973,23.548481899493098,8.705696644764922,-9.754573407726083,-18.101491866681627,-17.537662062908186,-4.9766589974115805,11.608297341450204,12.059860271603636,0.46061450713632546,-2.995307889887747,0.4434249944304294,0.6093544017979303,-0.38603828850237587,-3.8260168616767265,-9.926255755841222,-3.76138075841608,14.924829718365848,23.593392346244777,15.8220261946559,3.2074654015999897,-8.933150705313686,-14.907067756754424,-8.669951819925888,-1.6211446449101345,-6.069866910398124,-12.795483101944862,-13.933526843211414,-15.8896743989181,-13.849819946643098,2.335439187094356,21.550824609316958,29.428596320161954,27.186355269508017,13.935994066848489,-10.08177323911621,-25.35780817805401,-18.500003279614877,-4.327180396226652,4.525124517181224,10.86882349347934,10.225780488466697,1.8731171392751118,1.5715545951841952,10.072509628203271,13.117375235751886,13.911000635817283,17.35194433548405,14.727413839938045,10.600814677327739,13.39905927933597,11.661641344185348,3.2577604092063868,3.3739680925474267,10.26754975814734,12.261536273921552,9.574268466277523,0.2151216922127639,-18.879843300621495,-32.417776963128475,-25.353508149782414,-7.207950647973725,8.026336602668874,18.46942784719507,18.784785211650785,4.720805840158416,-10.639914239018573,-16.474574599926292,-16.30329544376892,-7.990606757523919,8.251237465117503,13.914544695509461,1.9790134672839033,-11.582734052718283,-19.23039487392201,-21.700514978407952,-13.580273891075745,-0.6379136469361182,3.4864917003837474,3.143231339546224,6.7089083889854955,6.301364415007441,0.10129829693278447,2.172645482181834,13.724303077762107,22.80445303467501,27.970705308954756,26.74363619398284,11.295802325475655,-5.75053810369762,-6.466622015959161,-0.5358897204663986,-2.975036602177469,-10.053918673317611,-18.336001362771697,-26.026370967117966,-20.995924329342813,-3.45959179790856,6.956696796793021,3.133020714156423,-5.436767136496527,-14.47516306849312,-20.202198012431758,-15.076768295876958,-5.94249027028525,-4.71731311232687,-5.722696508076159,-3.735665831438351,-5.069241323227342,-5.598973436750722,0.5629126094855108,3.8013942393257865,1.7825700859157845,4.409316047572018,7.648711019183498,2.2379117069026675,-5.086493927826467,-11.435257305896705,-23.929901156066492-31.375500155533324,-19.132203406109902,-0.004487083874230358,11.129497810330088,16.67790118348191,15.002965371207967,4.798090755610704,0.5601090880690023,8.455907929354236,15.416560385146123,18.542587644364957,23.720649524828453,20.581145638015915,2.4756541773810232,-16.069246008878647,-26.945820716058805,-31.460729380855632,-23.157048552861717,-6.618839603659596,0.34921783778867993,-0.8125960311108005,1.0376070757916491,0.6768520847537792,-3.1610736110762807,0.7366689044980896,9.8927588845095,13.856788812560112,15.623700325153088,17.363910153093673,12.258382789229568,5.155845972397032,5.650516381317248,5.644970051079942,-1.5212639850545764,-5.186080563684862,-3.32260105945614,-4.765137697186051,-4.469183807701205,2.650423871496391,7.925613468096553,12.39947395169684,21.59938776565155,24.788745166443444,17.095864848186288,9.138829851705896,2.7716126906351866,-4.184850866502611,-3.563401724028295,4.400245804528198,7.319947968693809,5.506330634970222,5.3802520084770595,2.0178028261891123,-3.2323992079859627,-1.8028687032918316,-0.46070239173296396,-5.5970402494321245,-6.656853287732316,-1.6845658535563046,-0.3414994839214567,1.219833604037652,8.892791143046109,13.039254869687506,10.567011329756747,12.869687483204697,21.08622015939187,32.726350954885945,60.22705330920731,106.30674887750644,153.68358818079295,194.2932783531674,228.01786617659107,243.94537353486956,239.24975571057914,227.46740546633046,211.11249622484172,186.06115408195188,162.0036184532962,143.41748477162082,122.66775279351694,102.80513812589186,87.89739240956176,67.37042260221946,39.50780847359563,15.571062841427663,-6.666635351264203,-33.595919840891945,-58.05157569917598,-79.41366486004227,-104.91877933972789,-126.31519392115601,-135.06048311246514,-140.66759553898186,-147.11357351138676,-148.051235586024,-150.94599249495695,-163.83984126059667,-176.17268809930303,-184.13555496790457,-196.43766075180832,-207.47611109839775,-210.72269623704886,-217.03564448143618,-225.7819519507587,-222.47700710889654,-212.15232295676276,-207.41506090174516,-205.07401634515315,-205.33943968273783,-213.7364675887632,-217.21778913914687,-202.69417448841236,-181.99885539421723,-165.3789478751051,-147.95164465350635,-134.17281803507538,-127.94937118955679,-115.04316953909557,-93.75461277174557,-80.87992292133809,-76.6820384494412,-70.82261585894327,-64.90815871158,-58.06136975711873,-44.528634205638795,-34.015411151671934,-35.18165950032921,-34.64079934797424,-23.189645583754814,-8.32594130972219,7.5360019938796485,22.784298052622347,27.311903872470978,23.377130231309046,23.82420308807133,25.943249583636014,23.955156083496906,27.829052456038873,39.12649223386697,46.706380490146806,54.34651666951463,67.54541159619882,75.33095115764557,75.45610290497189,77.96454529582341,79.936885265202,75.5802250765782,73.6583040820408,76.93380270200981,76.56912660872,75.04766122233849,76.95573199275793,73.99210138240225,66.91980533142103,67.60894432188229,73.7908266019253,78.98192844609451,88.75788682970052,101.46027541909399,107.06173759325,109.71690814441257,114.44188704667536,111.69440420606853,101.1435099687936,92.86855264647158,82.30734096607623,64.95606988261282,54.4209000343735,56.01740172674245,59.778301203031404,65.74970730331648,73.60531568414812,71.9207722942883,66.65018837788851,73.02136220744276,82.52821257197681,83.73676203611794,82.75872034373307,81.78451070567584,78.3985348703971,79.47207160652648,85.3636724339058,82.69449682370085,70.4703941941813,62.434883911580634,58.44273001165036,52.85091437475385,53.4865669983671,58.27294360721983,54.97842494909482,49.043958750900174,46.64961293531576,39.59002716636872,32.39382514759789,37.64948740380179,47.15081164558129,50.17631237834574,51.068386933769474,47.93066185345334,35.80369686948774,26.181507285090277,28.564116813676506,33.14518640978261,32.93205300445497,32.770463714258774,29.435448873189536,20.891765036631966,20.03113512066424,26.579510059483344,24.255931669685545,14.613232909133933,9.085994528453611,7.390676499988306,11.206173038254992,21.78881511260449,23.51296341335927,7.458502546426168,-10.351619477718417,-16.72805877823668,-14.701819192413947,-7.5833227112653265,-0.037340199789930306,-0.10217270709019755,-2.431811405540504,4.166637648337712,13.227840878594725,13.658059257524837,7.708403968603568,-1.4274234138688835,-11.703996571353812,-13.701114404272065,-7.493179666147276,-7.307475243074631,-12.882267310370391,-12.406485265538247,-10.038684699316692,-12.737626516147122,-16.064421147003628,-22.540566743036514,-35.087355767907724,-39.68605113841187,-30.88157387565754,-25.951710104847084,-31.040236681383938,-33.60312778030915,-32.912511423380465,-34.70076912330994,-34.18725045328589,-35.541871756791394,-46.67867467227139,-53.10927109590939,-43.906626432811144,-32.30721065124025,-24.70910445596952,-17.455050789813775,-17.906157317815335,-28.16249833069159,-36.841305085126486,-43.07587070341675,-51.62969963549112,-53.48018301056487,-44.99176709737975,-39.46590629988591,-39.51859999163061,-36.236459085142485,-33.62449794737462,-35.18015257140551,-31.592230264406098,-23.080516944490995,-17.957964156535667,-12.875367129249245,-6.577038344144999,-9.980750851024153,-21.388515363649123,-26.92631309471566,-27.859233425052714,-31.242154568540027,-34.29287565203461,-39.93238423291936,-51.3530579490704,-53.32536566687577,-38.07028453000014,-23.271502222439594,-19.55392074670379,-21.428705066982598,-29.249812742634813,-39.664526558524024,-38.73159357971561,-28.795005277330816,-24.072370072323366,-21.793742636564005,-16.67375528349163,-16.588392596166173,-19.67552769083126,-16.36173251188159,-13.565571623256709,-17.833964705586144,-19.70524895809617,-17.56545478441187,-17.695343168470835,-15.506671308128876,-12.49182127259649,-21.040210424921746,-33.992271177416455,-32.94151621873034,-22.911394244992294,-17.211599148228103,-15.437157717830589,-20.590579759364484,-33.28977524169158,-35.308447283197935,-20.562061278946974,-7.847983879711661,-3.313405815895112,0.9588518355830233,-0.29448387875866333,-7.898720230740526,-6.966799164012086,2.663104087287372,10.70663786150871,21.446308719143662,34.15239421516464,33.058732538251846,17.498713449489326,1.7705499769753348,-10.357103330394496,-17.752209453796148,-14.1713296814354,-6.979060985245031,-8.479007837139129,-12.258958960319838,-10.049051870490702,-6.119749249186398,-0.6075584897568367,5.628809136440576,1.6622337400743472,-10.620492201415011,-15.046340957535495,-10.732938500908517,-7.6557701422445,-2.9475992664179795,4.634409847106491,4.127350333377157,-1.063349855396254,1.4187176167637288,4.294453512647497,1.1252055561508474,1.9955053725794256,4.66759300144242,-1.1773077461236365,-7.62664903772152,-8.756908023488048,-13.011344748693194,-16.591548498811388,-10.17342653259952,-1.7278637186966646,1.306206966715869,2.591125142774221,-2.0017611259564254,-16.77349726236519,-25.14440913884232,-14.32177012174217,1.6437081259667226,10.465163100343052,13.071929171195968,3.9871353174222888,-15.320915186096467,-25.104815174544886,-19.167150825349655,-10.799712102523166,-3.6461352296591354,2.60241751027861,-0.29944369104760904,-7.536932391855679,-3.450362245215275,10.037641011626528,21.556249650550633,27.533132830447904,23.38253448923609,9.74508844185257,2.41343373110588,6.792588975738089,8.879296178437919,4.84218827578059,1.734785186242347,-2.663378706936757,-7.773783397519877,-5.760502812746471,-2.963514826109522,-7.474905412171871,-7.950218323342454,0.45056473554333376,5.6089901100183175,8.416009623794299,16.46092052673168,19.392398242810007,11.17695807623093,4.77156213658726,3.333062302511204,1.20825494836147046.1552064263346375,17.834967796926662,19.29020713715149,11.72439105269532,9.554244315929513,9.84603252157001,6.831928487555517,5.7608911329331365,4.552383259721148,-0.5272403279114135,2.0686815377539487,16.517780314771965,27.195461186423408,26.91562296483112,20.147083026881624,5.475561527211548,-9.545312722843448,-6.281864788220804,11.695351227861961,25.4335063016765,32.471118341431435,33.15625841500932,21.03075047007517,5.647539400712381,1.2262588026093462,1.4660763326426236,0.7737695842631123,7.484495868293814,17.345532611669473,18.141458951393563,15.734705726975882,17.685182585858136,18.466874715039253,19.891703943614495,26.260976688192578,25.092267826517226,12.411624791121318,4.879311102059049,5.945214151586916,7.736949776299107,14.41740877379713,23.733487398535537,21.907835782921662,12.50032767789109,8.027826267149658,4.3049509102064505,-0.6741386185652847,2.9531059507761555,10.13145924386432,10.147000089992742,10.800390983043705,15.848305479756984,14.884235507343618,10.723024836346951,12.356462363972673,12.994016968061517,10.01474187143061,12.682421958805364,17.576142810222645,17.083000767968393,19.320936040614693,26.722908218246957,26.48771756876969,17.494523045499374,9.652705557263488,4.361450321287057,4.00353186525513,14.534420007034129,25.21941805058054,20.554292905939462,7.422812410724223,-3.056722940290367,-12.698395605347683,-16.651803740083253,-9.822465369711665,-4.7708358928953265,-6.437861379945777,-1.8588641117660862,9.077103632686724,16.07721148631544,23.131951249125134,30.919355384753885,26.197990083382006,11.75156776721953,2.4238693958844415,-3.5306511760171055,-10.155541122547463,-11.06283819328874,-11.238334824642578,-20.282991173776352,-27.392996734608275,-22.78770278094453,-16.40086691526774,-12.027467547285516,-6.433596703639845,-8.349524903381521,-17.60024292982772,-17.824081761362386,-9.498617239016298,-6.368218496716621,-6.904970077802371,-7.448678245769523,-12.323470670670437,-12.401865706844257,2.606893081205552,20.260158977139355,29.27788607601676,32.555997596277116,26.275635407954532,8.629522165941527,-5.119183667421354,-6.26953841871686,-3.6611652149144267,-1.7399022100902546,0.02872027552743428,-7.295287241718869,-24.550722488653314,-35.006026036934976,-34.44270112615494,-31.98842278700087,-25.91691699532374,-17.957468872036152,-19.399048470570126,-24.96734005485421,-21.764901004199363,-13.430603923889246,-5.313103012603607,4.291625712853989,8.786844711140503,2.8788316931532067,-2.874769163623517,-2.2498866450752635,-0.9374047229343341,5.068261856600764,20.66032818631216,33.92737071003621,37.82238290604911,36.595810188746974,25.238956231124,3.310965995260439,-11.521188139166574,-12.491548258924597,-8.217104069025403,1.6231540068830692,14.061224579690268,13.093668023237061,-2.124584430945191,-16.00786663898381,-24.15109525118399,-27.555023114614954,-20.23640696161695,-7.35139960767148,-2.112654289344709,-1.1857721790162863,1.5261259186079057,-1.811250122363208,-11.118099955584514,-15.108582130899434,-14.644014108374815,-14.872957960849389,-10.864142207630895,-6.084854589972284,-11.406389905786105,-18.081967605674173,-13.065167676884819,-4.200031330054987,2.211882629231834,9.484747161524792,10.551973808267654,2.2936495550999427,-3.453137441125902,-4.73382899112916,-8.58922398666257,-9.749525459532448,-3.510296687621181,1.0307933963310856,0.6454598289067313,1.572076040485229,1.3615480632459227,-1.4170137049943836,3.5338238109519944,14.52341130247767,17.786983062785424,15.502500951006503,13.766747210206805,6.63188291382078,-0.8204470824736174,3.8426617195110873,11.902468202823684,11.412122470864272,9.237976951299588,8.455446529701701,5.45218681905474,8.722273312375226,19.534539471079523,21.094020799003967,11.868032376879896,7.218712274255953,5.27096404582306,-1.9094215815097897,-6.023590890841994,-5.351699924535773,-7.955940337062831,-7.528082438127219,0.42286769062139484,1.1960585007505848,-9.207799213376408,-16.087284655177807,-17.267637028339507,-18.20524971003075,-12.470676917054687,-1.6758279124445616,-0.039140060481265504,-6.857910906400905,-12.23732226125976,-17.035958524946672,-18.283995620520518,-7.056327313959658,7.01054051124655,8.325268173655871,1.4590741620243441,-5.9385387697408385,-13.776686927192094,-13.041450647179316,0.2353883254385547,9.272131241181052,5.7550419278979765,-0.6178970159367017,-8.94992665045175,-19.80288385914746,-20.107147561930567,-10.406191525507467,-6.203527032883024,-4.816387226233994,0.036211957076007995,-1.4925648716525293,-8.042264518736385,-7.662141021969825,-6.384699272901553,-11.571517995876057,-13.069524255975915,-9.629406557530706,-12.350345632864997,-15.437826379570843,-10.934427374742366,-10.51947365444926,-14.67418119775348,-9.760842019149358,-4.520827102107895,-11.127073948625588,-17.8684862630964,-19.335555254518376,-22.64623060716802,-20.54616974881656,-8.19889446715011,-0.24303819604831034,-0.33491155262734873,5.190768180175383,14.922545568006369,17.49399151727347,16.189512201650967,14.11168078557291,6.449937654262579,1.3061141612600433,7.1666814329036335,11.246937414686915,5.545799971846248,-1.1563110334901576,-8.848481397396922,-18.12114263007585,-15.49034978053419,-1.0743071081763658,7.265715410160303,6.094754281641366,0.39852507061419296,-13.024276272749427,-24.326090944737857,-16.911174261745277,-0.46191554500853194,8.354558256894107,12.547921582871071,12.180528325046389,0.5910014934558747,-10.607251753698833,-9.020752992309284,-2.823153151521793,4.220268371191195,16.149372636523502,21.060399096576766,10.530002284650616,-0.24270900369884574,-1.973297611709813,-2.0076333606392174,-0.3377065995624414,4.466982072152016,2.8482871836878156,-3.1110839608594367,1.0152800344162851,11.616985863425933,16.17247849494409,17.003062733444832,15.41754378426451,7.232539088715443,2.2226031236005284,7.96791056802671,12.658077080043514,10.996369002400886,11.39235084048487,12.343477382205588,9.878614294856092,10.785832841162396,12.379997542890434,5.508892470691306,-1.1270801966813082,1.2506160633093684,3.940750402353271,4.813761489179042,10.768084070496307,14.844329124603274,10.695385201039333,7.729861420239892,6.981604035045586,1.2390688427562897,-1.2453725182345703,4.89383236627756,5.524743701163759,-2.627393973870522,-6.684238917208758,-6.427813517998041,-5.04728750632749,5.21927107677231,18.752055889549144,19.756508165483137,13.467798069772769,9.949945501798354,1.9625727373432706,-10.038184775437463,-13.795273369941825,-12.184429762822237,-12.238206765293878,-7.49183126677584,1.4668144140633244,4.645399270224015,5.821445849475134,11.51181112605325,14.23870553240463,12.076973444644874,12.88516193164164,14.196166061117763,12.327505918548878,12.4297484224698,11.59592203049504,3.669593668517652,-4.865726211062792,-8.613060579087215,-10.114297886490498,-5.038958413910963,8.6886427187545,16.795823851571225,11.823939094813909,3.832338661062171,-3.010545985333248,-8.330830610202192,-2.9727264328038165,10.480190376034175,15.006335825563774,8.67927180569709,0.09763524295803871,-12.839532570477425,-26.72569922155091,-26.35354492088232,-12.474808960277105,-0.2980467735655017,6.648541369694908,10.347187524303806,6.839897780711075,1.9082727840617681,5.711320077404257,9.706981699715287,4.218517839143875,-2.8406619274572478,-8.364507929369323,-16.309625545389657,-17.873450444141405,-8.401725610025235,1.0505355598732045,8.258111592831973,15.642820825976413,11.806518427308612,-4.305261231184229,-13.630065826755338,-10.933855327902474,-6.885343408398757,-1.9690354121792604,3.854541721967011,1.890169805663662,-2.4828526830234376,2.8221379433492717,8.382321333833277,3.829821333712326-0.7101272691753626,-0.48939299258384084,-1.5441871616841973,-0.4649691088855583,3.7229854208498563,1.8643501654518402,-2.6490308128309143,0.12999853345683277,3.12777119825986,0.2847448381229809,0.5301341179923742,3.414341948328924,1.1172703436407154,-1.7276567035428445,-3.3054104888171865,-9.863985524920235,-13.896378111779617,-5.261423275609065,6.326407980623053,11.605768664123831,15.494699992970482,15.959963909043617,7.738237543169561,0.5794604792610993,0.4340440507170704,-1.590870569516521,-4.596747794647162,-1.4712272538793079,-0.6019631359650488,-6.466033003810976,-9.427819468360639,-12.079985225691184,-22.020092149514696,-28.714659671424467,-25.196741029256817,-20.773266865352078,-14.925020272689292,-1.3469695213664323,10.066987031962597,14.024383144549347,20.19519168364058,23.21675360958783,10.846444173727019,-5.275195110543219,-10.291062342417305,-6.903856610870837,3.15972396970847,17.080903288944786,17.393375006035903,-0.4724732960845346,-13.894370354600113,-12.143948412901159,-7.019426235789565,-2.349989643511744,0.7378491316865166,-5.68596498242896,-12.596683738590238,-5.785024879108482,2.3655051690948845,-2.679257753098614,-12.07549075724829,-18.855834015687527,-24.6764419404102,-21.710541085505,-9.376565005854385,-4.558282487743439,-10.970148078532533,-16.470450814941664,-19.47366085431107,-19.814291291506713,-9.746346298220104,3.904793384565497,8.574776447530706,10.723574065004316,17.565855275499544,23.11551965658099,28.49217600962503,40.313088726594636,54.49729946222219,72.91972524210153,107.1700383107611,148.57336245136838,177.64843930906363,194.47515805416276,203.58876064704594,202.13654196775536,196.1266663306406,190.17228021271694,171.73900073554512,134.90102028988503,94.84045347597873,61.36375200321678,32.14743595580832,11.26982206464355,-2.3487836364935344,-20.566222673935574,-41.22512728731182,-56.37621891887957,-74.00602018685731,-98.8185790546832,-121.99028387156801,-142.4011044730221,-163.34932250518438,-177.56727454639136,-183.96375247165184,-191.47197660297707,-193.8424045817439,-180.78829520320284,-164.6630254003328,-157.7919158227612,-154.28225662583867,-153.48523684735216,-157.73462186580454,-155.00514477721504,-141.75568332861928,-132.62164080201381,-129.52133858773132,-122.1238197033855,-114.67809441581537,-112.34507228003075,-105.80544984159833,-95.02958289791131,-88.67559632270057,-81.4035246341989,-71.83773974599032,-72.088805312256,-77.89622060850942,-75.62676810445618,-69.9896169932882,-65.54479914546556,-55.228831013639194,-44.12023852461722,-41.19396421635735,-36.68693587005202,-24.565273275522184,-15.31184746872032,-8.533014776540362,2.2457807259109095,7.809549475046802,5.4895288193995135,9.186463832463442,18.075968943326828,19.74641303041342,19.522420904951638,24.939879791787796,30.066280525055564,37.164106846294175,49.56324023096461,53.168142977680965,44.00207100659382,38.445737747383504,41.09161588769716,44.75662514494437,51.05600000331903,58.28403013423164,57.99217613738385,55.94192931050804,61.075694511703745,65.9110429812321,66.97084996672385,73.16911758523058,80.21942633296426,77.9749296798218,75.0056829388502,77.7966443145488,77.67381375418476,76.12425288863005,78.31316314943967,73.02264370018717,57.723545928774826,50.20041993570029,55.89397205633361,65.12714960928018,77.50974886627021,89.6755630511657,88.24924450700763,79.43223444572773,79.99102167956376,83.77739416153031,80.27227082163841,74.24615540141889,66.2337589235623,55.79661270676199,55.28901478195359,63.86519137534126,61.90338982790515,50.04055199960062,46.38873190388196,51.93883571773773,61.2499472357348,74.5731120520317,79.08363638243786,64.5598094293519,46.67949357181932,36.54459531519481,25.638687869710488,16.402835610511566,19.034015852634486,27.815102230979743,36.6427710322362,46.752157859838995,48.110782166945995,33.09606898401487,16.471602782274346,10.13696175991804,9.085122186341568,14.737787652283274,28.898628219987458,36.88023427165194,33.77213651055702,31.088969860461187,25.96161649184246,11.402062039650056,-1.7402546353150563,-8.469114098917913,-15.018260665202476,-14.664068900734822,-1.7906361393065602,9.33775280297552,8.517818362936215,2.6902929776098885,-3.79269660359643,-10.510590122470514,-8.6464735084198,2.7500701814956687,8.298110319275095,3.932754742224209,-1.0025295972381416,-6.827854810105437,-12.290890614807765,-8.382547596921354,-1.9353572967308832,-4.404208520510083,-8.209755657894776,-8.049127296012262,-11.297977225436165,-14.967317999054458,-12.169680950023977,-10.70208706027023,-14.599240413252152,-15.487693792491182,-16.104319159559942,-22.50310131400641,-23.525239383956738,-15.695356816376279,-12.779447487239693,-15.330575611226699,-15.637398997304354,-18.700284360724808,-25.39541088128301,-27.484772998804733,-28.45668861761389,-32.45462589973062,-28.301520530700685,-15.519435393710308,-12.07664553761176,-21.12018907926058,-31.494456633718876,-41.77732746729397,-48.32306604935465,-42.23668036798574,-32.76822388222023,-32.77130714341206,-34.86054918706746,-34.34676469264467,-39.769120077001084,-46.352506353079896,-42.530841487247436,-33.07214198561497,-21.380911079151893,-4.513353761636648,3.26459298507715,-8.327273534461378,-20.94772968530032,-22.046151471155703,-18.328593544645358,-9.10713960438344,2.582223082090782,-0.29284957426103153,-14.462183480965335,-19.85683062486669,-18.537095344838036,-21.427160953905084,-23.774206477817607,-24.346153309169775,-29.857555896585676,-32.95963234392922,-25.452850088014397,-19.711857865539006,-22.986430387949365,-24.648592314884333,-23.724165294890522,-24.809091662882008,-20.928723746697603,-14.041467609730349,-16.658842207012047,-24.36923116717878,-26.735335428522188,-28.64462378293113,-32.021417454492806,-30.472698981663143,-29.05157549668256,-30.470679711809215,-23.000640576598528,-8.785489237224686,-3.647127637557921,-7.8690817628975385,-14.99439305705074,-26.624445971456698,-34.94143243719225,-26.08484149907216,-8.674425276233503,0.7514886716152128,4.296151464815619,2.3785945660890913,-10.40851747521523,-21.709692532476403,-20.57874326201728,-16.898017423647243,-14.404286290066747,-4.924498505473341,6.801561527237461,11.05930635132254,10.020472223931304,2.888258727023142,-15.195413671786035,-32.62607761935539,-34.388505378087125,-25.129483584353757,-12.662887691065901,2.7399656176553515,11.887525577929583,6.857809663928036,-1.864765647854754,-6.292380248416343,-9.701542943030834,-8.074782106254563,0.21374733609589347,