15.066230566862856,-11.489331447401064,-13.092260748938855,-15.670814300899488,-46.61369206763047,-55.2937462673482,-41.00647805176096,-55.9955778048641,-73.45511359556619,-61.73388173929982,-69.33072360993306,-98.942940458459,-99.1296768011813,-94.59311197170214,-115.68134894281022,-114.78554546497485,-91.69277077251311,-100.57143659506694,-116.98005856763461,-107.22695628313646,-114.53766840166035,-137.4904676438319,-124.40413383330281,-104.23517729661982,-113.40385935684938,-107.96203437821035,-86.51919255922058,-97.27639986422868,-106.58465523465286,-71.2297141293754,-31.799526393242697,2.0094259594074533,62.25768997379351,104.70413461001817,90.24167776036333,74.96579725021581,79.83253661465062,66.50056832089251,58.89944812402386,80.62677161371947,80.23251781783776,55.37770308783277,58.91284043768181,68.43434277228313,53.00324692870471,55.5407118249472,74.15724528970222,57.83540016576086,34.30001309181088,39.39459658603761,30.938270424238567,7.215644550061578,15.637825153536749,27.881260989570073,11.367992662147568,12.946689473568696,34.87986515518117,25.56299690775807,10.084556015417219,22.160233907015954,17.432697670915633,-6.199050484910599,0.19525745426606456,8.234584670205217,-16.055190289454863,-24.826179373786182,-11.589288441655473,-23.16442124734624,-32.65642330219754,-9.566177210118973,-4.556530825422291,-23.92588839173184,-17.1880606839615,-7.088905158307463,-23.177961614853597,-17.640799623301703,12.22053275860233,14.168452418613075,11.328974673462763,34.459539410438,35.79199094885296,12.11497175813011,15.273638491031157,21.148835708789544,-1.5700715026681369,-5.358320887389558,12.157823694083914,-0.5848628190378253,-17.13509148810795,-3.1829398396085287,-4.247983486253128,-23.072719611920526,-10.563855397799934,4.27080540117676,-13.715137025767685,-17.25669296635258,-0.19683469219417482,-9.920982484852928,-19.73974280420314,1.7339525843748387,5.637867412239515,-12.814130971406826,-3.2853990176591346,9.232628988597767,-6.698801146844269,-3.050223537635807,22.565422205407256,17.12172709546902,5.211279174378804,20.01393658430226,15.92319600171319,-7.157877272217693,4.616088569760507,23.42780577364327,10.89865919860377,11.954261349324888,31.06437443600452,18.475798552885614,2.0618097700141282,16.817351913041534,14.58898106464646,-9.527381248535352,-3.007379798335685,9.610261159348541,-7.234887020072247,-9.594338076713937,4.678459804060857,-14.829083523634583,-38.55903122868658,-27.780853225135488,-27.79516253620629,-45.72781322742131,-35.30756962875455,-25.183410209107386,-48.33082722656575,-53.44367628631605,-32.86951462641123,-38.34790549645609,-47.57131035548616,-28.693916242463256,-27.4840781108125,-45.75353011784801,-30.63454824424081,-6.088566687386631,-6.993559791746501,9.131128581839535,43.10107011844555,41.54091684555036,26.917922752889098,34.822498608556955,25.681013908048552,-0.28816596499241953,7.072981446198012,20.438099633614573,3.6607104600627913,1.3637825135448374,19.42863380804667,10.246648084021851,-1.0786224924263643,17.411483873563153,18.803589958348585,-1.2239671698874162,8.424764124717832,23.790939168148533,10.970570526714924,14.553900558817286,37.944274344920515,29.97186761325782,14.378031874248215,25.21309490147553,18.97177677635638,-6.497990902563448,0.45017803383835364,15.295913503138094,1.7366034781472877,1.4182372109927277,17.59018159223484,2.4794488319836843,-15.685920990281174,-0.7031186122401589,1.6535755867351334,-16.07789612967165,-6.4025532966733865,6.218117805701092,-9.967658344253202,-7.912339593382817,16.13620576187914,9.404351656183291,-4.8124605562792375,9.09194007688199,8.084583529324899,-11.704741990103713,-0.825298889605734,14.730512515929728,0.561709283856203,3.737758212938937,29.380287195777026,23.143764349570965,4.576339205065514,8.139655547983558,-6.510355656722046,-38.452534113602646,-33.546132952596174,-17.91893556890866,-32.33965602063883,-34.5715562131133,-16.51507349400317,-25.32775295953275,-36.47289338581272,-16.707337967866525,-14.019589277454573,-35.53182578732165,-28.684814110518342,-14.62422619767317,-27.902160465108214,-24.121026136858518,1.878218102646965,-0.5605477122627445,-6.9214943195946255,17.242411843087634,24.070206979980597,6.022949929835994,13.72348515386195,24.315756997923177,5.658907446515701,5.488844480340644,28.057362239029228,19.81616242656184,4.29911877011283,17.641009062643214,15.862489703150018,-5.053470783726342,5.7142854481970975,21.767379199221576,6.391746787751753,6.0693050018449375,27.913419937564168,21.222487000194583,9.828298567033542,28.668977789059962,31.167831946657174,10.132147398377668,15.644342658838493,22.858184507835563,-2.9300683461595547,-12.3073753245734,4.813443691799569,-1.5781532437701316,-9.669514537970759,12.05209207254164,15.142610367182996,-6.151997712536676,1.2179085744641567,14.47368328940156,-11.487093676055242,-61.85541563769103,-141.52504067711067,-245.63178892348955,-295.83526844725645,-264.8759836345092,-208.50653985392984,-156.76050035879172,-132.12379419869075,-154.98772078082987,-167.50659099389333,-102.61362612007066,20.93891233150653,144.49930540542834,225.00749284231867,243.85553982390326,202.3731638574357,137.62496611473568,120.49385900633611,154.71671504376098,161.6682102001544,131.23868553028794,119.7572933397612,114.85733904903769,94.62902187908486,101.23585033907507,123.31784511166005,103.58284396366733,77.90803684872543,92.38512459100204,96.22214975184852,73.37731271524602,75.56845573140599,83.81387807945046,60.117311361931485,46.51367533993467,54.52629803555057,40.84281986468465,28.8132816290337,47.70508356078879,46.98223658061651,18.929268346761425,17.478406311779235,24.869240661600816,9.3676971388003,14.853600066319197,43.202515647247026,38.905966674141716,22.783295678197092,31.992538993726953,25.0174144210158,-3.0570920810845834,-1.3668514377527519,6.902632085590026,-12.994731948479025,-14.497904864337086,8.818519157500386,3.140849248462877,-11.697934955519443,-1.1032946786074298,-8.586166131732327,-38.123007172354285,-36.360818026840306,-25.843531796985797,-43.72304589717979,-45.99734264592641,-25.62612445759328,-33.23389628364327,-45.42844473071128,-26.161489430261437,-21.807792487057803,-41.44404739407243,-34.70533573192057,-23.579646214696417,-42.31527066123214,-44.0648732064218,-21.683074696243224,-29.140778749858637,-47.04473063717874,-39.19606704402892,-46.45286386762087,-71.75214167261322,-62.42434361633095,-42.974821579499164,-53.94264511861252,-53.47146022938665,-32.921552383538184,-40.27072293036705,-51.508958420315494,-31.506404134417913,-27.92030919487818,-50.284543712509034,-46.650940571768885,-36.51188010968365,-53.26940775230813,-51.28479133825222,-25.19443484400406,-29.903041835400096,-45.3980659193172,-34.42690473389492,-37.477913678789676,-57.7221885402339,-44.09994140308993,-23.762239120971124,-38.395468879748755,-44.558743371365864,-30.291421251720944,-40.242915197399554,-49.02608064048923,-23.280411483170457,-13.918157922887035,-31.809351848012646,-23.68188826106254,-8.00337320163786,-19.83977213075981,-16.370074911719232,6.917061570825405,-2.0851916176248304,-17.738271572788435,0.43601424039876235,7.123747383271896,-10.031963979734325,-3.565377194413386,4.685226965498981,-17.543026896828124,-21.263441958815527,1.0994866846105857,-6.135848807614791,-24.32312886003726,-15.231163043600853,-17.624970762083016,-34.809419535999915,-17.112786105085956,6.557433529441705,-6.349810372306976,-10.867552203157953,6.178627529719641,-2.377823768561897,-14.936431715199,1.2909122888340185,-1.6199252032868316,-29.798445925895496,-25.663591017587486,-7.807716686468033,-16.19682631433957,-11.80587758866644,10.101628151574607,-0.9885368417380196,-18.039175472280156,1.1480024151457098,10.87109103706716,-5.965309305191384,-4.573738489010971,-3.2374836293705407,-30.432140594919993,-34.42727653244926,-5.284950353342023,-1.7011465092572395,-11.369496744766142,1.1484996106730572,-2.625507226412389,-25.511872715431295,-15.96731195955686,1.2126267467601526,-13.446835367093222,-15.791290608075398,4.931250826619806,0.5544827183457475,-6.980714457101609,16.810426087020794,25.202420178954142,8.414459748157556,18.806682879082636,38.8352359334375,33.60638731108443,44.776521260327264,77.14866804314396,78.00930238480449,69.8884934026843,92.428872958803,103.47971767928169,93.22153847517768,109.46853931329855,130.14992538301976,119.77317572286577,121.95873005536465,144.14177380294373,135.8812875864372,120.29504459182154,135.96959301730985,138.07149140243618,114.73475883311755,115.30270913907782,120.24134915494886,95.96595116890353,88.6201654711787,105.63455636775782,91.86099409287439,65.63921159117054,66.39756468197609,55.406549258997785,25.86468863739307,27.043305805124938,34.60428753005853,7.167584409247913,-12.629154038155665,-9.75891593600899,-28.733018255351872,-49.24258225016218,-37.593053449183905,-40.27516912420402,-69.29953116888484,-72.93923801950683,-68.04771285253229,-92.22198729023759,-104.75866636504493,-95.29053273992021,-112.02049282522947,-133.65773048177743,-123.09498601868992,-125.18541452633815,-150.9828433481547,-147.5459857644237,-131.3235265929225,-139.78433718019502,-133.1942130193059,-105.27072760989947,-109.47569063194419,-126.08121368963874,-113.44894935081675,-110.05806953821408,-126.27607906474944,-114.32793151560634,-96.14391144471492,-112.1989592732268,-119.89701911690344,-103.49726010859726,-109.38727037550552,-120.04739504407468,-101.36982698579135,-97.94939279766542,-121.39515988046325,-120.03917361656457,-108.32591894322803,-120.55668201260808,-116.59424877373277,-90.04834379382504,-93.43077864417161,-108.5994303464822,-96.31454968656675,-93.40605785838386,-106.61923411370157,-87.98023518819075,-61.27424322465827,-66.92018931153183,-62.79612321528248,-35.728455119547704,-32.316344451270574,-32.72280651126792,-2.856491021488347,10.440719388117712,-4.853893565251189,3.677728530380148,20.895381875194204,12.673156305522133,20.771894612787705,51.52307476363265,51.80625456677461,40.04945247398022,53.80731760070206,52.878452553476535,29.598927436010428,33.97147077109359,46.220325232254126,31.17532882194576,31.88785168087176,55.922247233292296,51.922919812999886,39.52837125544467,54.41848758909518,53.93207955236168,31.65408224896676,39.543312791944366,55.958538694315635,43.455986167004006,45.52331681010197,69.52970226279977,63.27238761571297,48.577156536580674,63.928868014136455,66.23000484335093,47.327170531401364,57.04914342715903,69.96878033279384,47.414579808669956,37.52246414831529,52.45177017315263,39.98424846068608,17.809457634359404,16.698582668736808,-13.70347045495787,-75.99046138217011,-90.86403017258941,-43.042584231870315,41.71297311973096,173.7053677373643,300.165989970084,323.4126928569096,271.92258483769785,241.09430655190704,243.34601640258433,275.98644701648385,349.84126450577986,400.5018627830417,383.99395870362326,368.59944901385177,382.9367632364964,378.92254302409845,374.0443975912515,399.3221892709449,408.95313292514925,400.0758104588077,423.9778388656217,448.5439092281821,430.8819916926068,421.02313864594845,433.4068598481269,421.89995313873067,417.11347683940505,456.4577919448144,484.67386132974417,485.65630717410676,505.30221966405657,513.9770437431636,472.08500037249064,425.9297801566207,381.2792618638053,284.33690278670025,164.17113845727442,72.00063358200067,-21.235819593133588,-109.79358777707117,-138.62853905542516,-143.23988637091267,-180.75544558758796,-214.4373155095141,-228.0506216893371,-263.94336281287633,-299.61005409881733,-301.37495229606947,-318.2607541364088,-361.6526909376091,-374.5497891603519,-369.2142371766862,-381.8294335435932,-373.19474147104273,-338.4426222768999,-334.3696231695058,-347.28605035847715,-341.2340108131982,-353.9259026651589,-388.3035197685902,-388.78711070930774,-372.07671002005304,-377.3554106627208,-367.77278915703783,-335.20155883653376,-327.29717460353675,-325.3225935399218,-297.5635314602788,-292.7541588416383,-324.9589878602843,-339.72558907143343,-342.114064028565,-357.0764226766863,-342.76746591636646,-298.24535143964283,-284.0182542673002,-287.1295837072051,-267.025646417761,-258.2579734756071,-270.8633483073581,-260.00558279562074,-246.37379814170194,-265.5485647214092,-271.5018891079816,-246.1639487887447,-235.2454350535955,-226.05140485087972,-191.4563849589987,-179.48265381926444,-201.97565515687253,-203.95053826932912,-193.17157729401094,-199.95341764676226,-185.63513276066263,-147.60397400234604,-142.90115196387276,-155.89151671500412,-144.3988171443516,-141.5721075934608,-154.62951155260103,-136.3442390059657,-109.460990754672,-114.97181415279698,-112.35643130091078,-88.31428699597089,-89.99829687975713,-99.37968369610331,-79.72870283271443,-71.78882795944001,-85.38499110461142,-70.21473369889213,-45.50512911645157,-50.29431992105654,-44.02908632970843,-16.720561947504507,-17.795212027472363,-27.08543628870311,-6.967948670981226,0.03128116397472236,-15.926611669944702,-4.503984407442957,13.627241078929208,0.604301652466436,0.16874341841565288,21.954330218243545,14.198150982094369,-2.3196652688079435,10.461165674339846,8.512631974600664,-16.389062345504897,-4.1792666273464185,45.53292391664619,110.77738162861837,219.05906848280875,339.6395697189486,385.3164340997725,366.0840280061866,346.3537502680703,327.0596280343851,318.41490893224255,356.3012911087928,399.50441883612393,406.89263191371117,428.84841778718305,475.36972969234444,487.23840090159666,479.3200896491172,489.87953260562745,476.4415169946498,429.5714712791973,400.05943926276694,367.48373409885306,303.854248701865,270.23454069160346,280.88751578760105,272.2592961805021,253.5890660792405,259.3674796617317,244.90562154428355,202.92280493549646,191.28095822187595,193.74301849122105,172.83617618713225,169.87889008314394,187.74573370568828,168.90858520742202,136.669189184321,137.62450521139982,133.49785793992947,113.56299353358503,124.77256400208327,143.19263890038062,130.98152513381592,135.18767593455843,168.368395293171,176.17608293999797,171.14950200896075,184.77448537273108,172.12304467717468,126.46193801230899,105.3879850486461,95.0309484018495,57.516185686332705,30.249651824147577,19.838841952237765,-23.651021886547518,-77.68824053313519,-99.2156172130959,-126.3593852973885,-170.64341183552372,-185.3759742809891,-191.1178969821638,-225.3493947081445,-246.2938731377456,-243.24326605968758,-264.96356389544746,-292.0383866493699,-287.009778875281,-291.2995631388792,-316.2877966641895,-313.3654231204899,-300.4891556778264,-314.51675912872696,-315.6226235339729,-295.27771558656303,-303.69776564990286,-320.2484566240497,-303.52040450956224,-293.2790107489157,-303.0356899601563,-287.17848727239203,-265.84535419815063,-275.68361473522725,-274.0320435630978,-249.07776928457233,-249.8650307727564,-258.0319158326942,-235.44232906834873,-222.58263752622776,-230.59540422650707,-210.52363083626676,-181.50659464175982,-182.09039754532284,-171.91716565695984,-141.32136532646555,-140.50367021148722,-149.3917334107459,-127.88846323339509,-116.48917027345291,-126.0452796637395,-107.31114662457827,-81.20779773136883,-87.94511317089778,-85.99655051316368,-62.91807045051865,-66.08400098964763,-73.37328076403088,-45.98719913283189,-29.495827140620513,-38.936649299383895,-24.86009608198473,-5.5310136551485405,-17.113489803850626,-13.412030370686654,16.963018091794122,19.671001962965292,12.87466062089802,35.87172991254863,45.73471178149021,33.46288043247404,52.31297683606161,80.40796272985133,76.38357991223522,83.9095884734429,113.97161489370937,114.56574957062485,106.54515308903848,128.88859405720905,136.9173456769043,121.06478137315277,135.3065136205623,158.81022564373404,150.92118287547447,155.32377269389298,181.64240591991273,176.07433429375448,160.02171855213476,175.20976173715894,178.4121007403833,158.65080468625342,167.2075245423785,181.35869725075634,160.91965239899142,152.54688900670362,169.76571572567192,160.87265025797828,145.04896049984987,159.40622086992357,158.91606766441197,134.12387913856304,138.4245606762473,151.9424157892656,135.88456873916374,133.18311738484488,152.768460499396,142.47063523242682,123.32730413536936,135.48759661034572,136.73169603524497,115.69730838001513,120.96167415611961,130.64912900439097,106.42337330542145,92.9279759341493,103.49443003684789,89.83164914660667,71.7831119904186,85.48961521459209,85.82387207123323,60.40890146005695,59.2743866457969,64.60646073964173,41.85308021547699,35.2668664333028,54.12551189909802,46.66386157986084,31.53633165220907,45.45436800960597,45.8617293403959,23.31085058945959,28.91513912360266,43.707668233248725,29.565789050336914,27.042088051889714,44.83243977662452,33.0312450644098,12.764113967160501,23.645262739946702,24.506646809091496,3.234534481629554,6.916801035837528,15.683686334061653,-6.380179490649644,-15.09918413478127,1.7258370053432532,-5.764045648300502,-20.78925093816506,-8.56180709165108,-11.440365668798263,-38.21699215125901,-37.38660287499263,-27.23019305763564,-44.960395367280995,-49.24220079106006,-30.83709555728918,-39.814771870616,-56.03637515789044,-41.91032740712369,-40.424696498319996,-61.69351005288087,-54.983356847360696,-40.81832045431719,-57.86867670363836,-62.71967482799285,-44.10562057466221,-52.16588032806032,-66.14344086206084,-47.7644239079782,-42.251278475973095,-62.8832033815119,-58.99514825774068,-49.122525320600815,-70.52464354459613,-78.84473093335951,-62.79019896523464,-73.42529919001908,-90.25875117384798,-74.42207742827537,-69.75980324707561,-87.94225475549405,-79.21783944996082,-64.45908228258467,-80.47997343644931,-82.04151023565218,-60.042111842999425,-67.7229385031499,-84.25718633885965,-69.8049771520304,-67.2266561841816,-85.9688376084376,-75.01330701783274,-57.53358660746526,-72.95571398120649,-75.02420117311583,-52.2132204781156,-57.69556435649727,-72.45311291937908,-58.34047306123412,-59.03466555972328,-83.1023390283762,-76.17969410380925,-58.49633174992981,-70.85505077051886,-70.17363888649334,-46.07874440461292,-51.558886073249155,-66.47518436143757,-50.66220906419036,-45.823109364857416,-59.99286564427467,-42.203406265867116,-18.027750134323515,-30.49292944010217,-35.200068098500324,-17.088772505914687,-23.054172245350856,-33.04695802286323,-13.755605824036854,-12.663637323194948,-38.36727937517573,-34.470493458250814,-18.46630523071646,-30.82296050329868,-31.918202225196723,-13.053335969545149,-24.2192970673471,-42.65893740329814,-28.87064783485534,-27.64031646522979,-50.9923962743784,-47.546014571755116,-35.633008403036335,-51.70156127662758,-51.84908250303149,-26.708849472949566,-29.49156551364037,-41.95652377932039,-25.8311134724533,-22.719568358891266,-41.78629089459354,-31.95124740271192,-13.622216127003556,-26.38344239329825,-28.683069015243277,-9.237145021189566,-16.875948769806545,-30.819939874326074,-11.84742609804179,-2.401996466206463,-15.389072378519199,-3.122731170521339,13.637805844432519,-2.9673159759352217,-8.440132906362305,11.844324181682786,10.70405890705705,6.321564433706195,31.39946948585422,38.75248750919981,16.39308995919851,16.767135189518964,26.280306307801194,12.622792590436996,17.148895698462667,45.10252984330472,42.87021812611073,28.255326550733194,38.73153096825208,35.23678304402202,11.976757127086403,20.22571508893829,38.5715453372123,27.981223086964796,29.80876096964545,52.77944551624608,46.86761191173089,33.446221686961486,50.05294794451683,53.501821465914645,35.59789443355382,48.19070856507928,69.71099627650457,60.43972178365837,62.04155594194561,83.7907172199728,76.87359047801158,64.78527934502094,85.18561171612019,91.81102027880202,73.37236082298553,80.95851773661751,94.67256693244964,79.13153802143967,79.93779467748226,105.07486586764158,100.80913350084721,87.42807005353654,103.63614075963254,107.27749987426435,90.53826393826157,104.72712881756166,126.58903282499088,115.9953924932669,116.84589836985724,139.64962496240364,134.56150085535057,123.73354935162149,142.89117319234228,144.87327348734016,120.02901085776048,119.91809271830145,123.29754115257674,95.36802145613032,83.65355162206997,96.81042631009215,81.61799896254978,58.958337824051,65.26002578084467,55.6298232612069,24.09774314986947,24.74163114991698,34.729618564572746,14.646856919655686,8.205465935095889,23.433242690375288,8.435825709436871,-14.031106229371774,-4.821596627874505,-8.273393113817392,-34.26591584363891,-31.13182416449461,-20.04568513768255,-39.964241907889,-46.756946231983655,-29.6148832079892,-40.605303224056634,-60.48724346947919,-50.80655689173499,-54.46475329780016,-81.83057125574612,-81.47489565922636,-72.69743839554428,-93.29665081890926,-99.79917165886299,-81.92049492140174,-91.24805765441883,-108.60018067906373,-96.54814302506892,-97.30393270672161,-119.02902421604028,-110.70033793729448,-94.47667311260999,-110.26288391680987,-114.95220160103922,-96.43904768461383,-103.66795241331306,-116.16216926204427,-96.70401989379835,-90.1983365342604,-108.59528006336512,-100.19296133119887,-82.44404603817941,-92.98295881114046,-90.1490584820764,-64.76350992848784,-69.6288192555559,-86.0496964051127,-73.0833801113516,-69.64915527725464,-85.42920937706356,-71.87266335986723,-51.40105534768265,-63.522218449413565,-65.53526108504403,-45.642377691841205,-52.02405668285798,-63.660157834657525,-41.44560148114138,-24.807550483152532,-22.31581408427434,13.935200096543198,60.751203975862246,77.59967717840996,103.43475116930918,144.50433943874242,147.3638394892214,130.44837385858213,134.10228692069802,122.46050466845716,91.60409757921252,92.53030235039506,100.62569936204991,73.65415206321629,54.661873532676495,57.74785647293929,35.34190092349023,6.58406957028623,6.628243013298242,-8.529730871665873,-46.71817980839245,-53.5518617399622,-49.18217092951703,-75.76660725644699,-93.34285905985976,-90.15694420543508,-111.41427537808485,-132.79782392473123,-118.3962547965711,-117.3024966781495,-143.88712182039978,-146.00922626218298,-137.68960100418084,-152.01563088611707,-146.96605127594097,-118.09094044335397,-120.44691855498098,-132.81609750490304,-114.18444548935248,-105.80993368795552,-116.17313480962906,-94.67275149989258,-63.977735933490365,-62.47472068161396,-47.005583709567155,-11.290291815738566,-8.822616365028585,-17.531125665726243,1.7931218059898075,6.331622934007415,-10.977268656741483,2.94902063783935,26.700120252416777,21.377726289722943,29.637984076806966,59.102325507753804,58.1184603485092,49.8762524474367,73.34718518874567,82.9021107266668,67.74472427641447,78.57014589991756,93.53790004320442,76.43057845710092,74.32439598515671,96.94250641028748,91.4911229133059,78.71932997599197,95.9681017164232,98.48202287775953,78.06010313628005,87.17288048120547,103.0803782541879,86.2935037713971,81.79282487075389,100.87105543726689,93.21258757270417,79.47950745394562,95.16743351418074,94.31438216106217,68.51529716024544,71.24890552228466,82.78133939373869,65.80464275839832,63.03260931773268,81.79870092964038,70.20434878778187,49.353297657987284,57.39815169593449,52.69743801578618,28.13576799269739,34.646077917744456,49.308370173345025,32.21208323194041,26.189925061748653,41.79348675012251,29.617995967118105,10.79876408401283,22.145629114657346,20.205584640549183,-3.4736924655835715,2.0408845237791136,15.382110440307818,-1.163545394249688,-3.860083215810416,17.095890275844962,10.960545633591035,-2.232721641162662,13.99870546619111,16.41515633012025,-2.470179983155507,9.097730516647173,28.35101109840103,15.135358415566145,11.868451301153845,28.018058007441706,13.617301443888511,-8.395405664053774,2.4702159110203583,4.415860957982151,-12.884767541591703,-1.6644380823388811,14.04599414341424,-3.5493211626851533,-8.144835975812207,11.762448694545562,4.380623118211539,-12.501013146554516,-2.9219236645301994,-7.956674130278618,-32.755939028460325,-24.937621218691874,-8.00670216082607,-23.240226130880192,-28.282470093423523,-12.103900599470585,-22.907711044033345,-38.489114909832324,-22.357862008922957,-20.07515939144922,-41.765828941673604,-35.390629685508316,-20.315700446965323,-34.39952738522858,-35.69099110406414,-15.390398018598056,-23.280648943474226,-36.82391499011079,-17.756757683203674,-11.003675979315183,-28.344383563669474,-19.916363118592237,-5.107454692885239,-19.17188401835218,-18.05736640847487,6.090843275871627,0.901117074034306,-13.032016640326445,1.792724604336355,1.421759608459371,-22.674060207551243,-17.73298958659868,-3.6049226274521917,-17.095320950417182,-14.360931241600255,11.42359756145321,6.404638144050296,-8.13774660089409,6.6850708376637344,7.574348876693915,-13.373826213814699,-3.5099730988429014,15.467979166896294,3.7783706938249093,3.5680779922329036,23.90706646508844,15.474316636626384,2.0862976797354804,22.15226264954453,29.509013710062654,12.125502534275725,20.533733710133927,34.76052866789887,18.588015958881066,16.374449262386698,36.069731530003764,25.09098337148806,5.4358314532947,16.93179805173928,17.386748022602582,-1.5108806047920549,10.323131855915605,28.758080496144768,13.895945511902411,9.458823566933265,26.557818421667733,16.95474294316303,3.114522478517636,20.796071391464366,23.499198896794393,1.8733235655313045,7.675582060156113,19.890599300301787,2.6263561394490296,0.7318027660553619,21.522436964826273,12.86162711465462,-3.2822534614016448,10.259455375516948,8.781777126078218,-15.788346373410565,-11.739352694647224,-1.4968353247457595,-21.97199157846865,-26.580706512445662,-5.439574440306909,-10.872099999351281,-23.20296741001411,-7.044774959883467,-7.229615656777287,-30.613189885865168,-23.506986655359064,-6.525658051218986,-17.189565339556985,-12.57519759744133,13.93192989095565,9.851847413923503,-3.6001141464834903,10.634720149680266,9.169985318248536,-14.889264967478159,-8.866977852728628,6.706840448111031,-4.880580162369409,-0.6513989674141345,24.71479797579068,17.290891028359074,-0.6467428712216758,10.96115375988653,10.279577024233687,-10.521717379353158,-2.559335836684909,8.102529539003312,-16.833113305221996,-29.22079781163037,-15.982978153054034,-26.3873291516309,-40.081495724805514,-23.692780579507215,-24.18721025761732,-49.115399890051364,-44.22786880387632,-29.243296173513237,-42.10133705559414,-40.92393284488076,-18.784849431651782,-27.14628623213922,-44.09209030300978,-32.17640479711589,-34.51602800562698,-57.14104305950842,-47.368389275831795,-28.59239449635579,-40.919075709221744,-42.368641861729735,-25.40165836074559,-38.65893199761898,-56.79563066363784,-43.36315179549747,-44.91993506927512,-69.51507435677583,-64.38833304883372,-50.10687383889892,-63.30100354730313,-60.81518487624879,-36.44547650450276,-42.19431772150861,-55.14184910379077,-38.08230286962101,-36.03983820984315,-55.64663792213219,-43.02856291737744,-19.987389403864125,-26.32775522490505,-21.78584914115259,-0.25234133395813707,-10.633310750324192,-26.64024455438091,-8.85628815643073,-3.148922540708722,-21.522227509417622,-14.25890607834782,-1.428756591564989,-17.761914552414034,-17.309057525344222,8.734415953191561,7.577644744672381,-1.737452970649585,15.522463251057555,14.599934373464388,-10.548557094827714,-5.045294539096521,11.283776524206948,-0.06990226904277819,2.034953268561903,23.94235409501142,14.73650622681878,-1.7025394821213373,13.220383942999717,14.669842612638137,-7.078659188395637,-2.0565296044677135,7.918005896262068,-11.249235370491625,-11.749661001006778,14.740709430016022,14.311721275108368,5.262390784660267,21.375420962678334,18.935236197579734,-5.666243072836567,1.5834095989728008,17.48613900797221,3.0324337551583227,1.2360461794515039,20.016489520072298,10.498766718571375,-2.7462930580817173,16.414746662650288,20.88733696767347,1.0975720362383026,8.52047933395599,22.87261513659258,9.355023354778542,12.32820205680086,37.23789696516694,30.61585478235658,14.970591815462603,29.52691246272399,31.749212203524195,13.916949189270863,26.091558493014713,44.49210412879208,31.898855480740483,33.79274894915336,57.68728487308579,51.079760750886564,37.35036149068562,54.785216776356776,58.83735825213864,42.23185097714079,55.12748474927989,71.80038802376684,54.81457796387403,51.0965392024473,69.97925086300887,61.512898650370914,49.28095852945127,68.51521248044683,71.63135401006912,49.75384850098897,54.56914291456663,64.69201633658977,45.01626120109099,41.04461029393926,59.753856443003755,50.09747375693334,35.81712917510393,52.708755687002004,53.825871504120734,30.60292574543905,34.14510421877044,43.051519066864685,23.607172208114264,22.015920563812045,44.097769927757625,36.068283671932704,18.750580215557502,28.088838615913147,20.988091926669348,-6.565812205336162,-1.1125326172884478,13.157214972128285,-4.613672758089519,-12.2086921687801,-0.507650261819216,-16.87368939751411,-35.58127931377482,-19.46148223799611,-15.077023414061294,-31.305268530184065,-14.099684796342624,18.868136347703853,30.545166047478116,59.48338981528508,107.80760132394347,121.00882607382604,119.66810015774058,141.55603652297393,144.12183912766758,119.48825127053348,118.45569585562296,120.43992819243378,90.87453286741241,74.31125962877593,77.6874922455626,51.00340116898728,17.75374335307366,13.382297654555265,-7.42445839818652,-50.70908560231956,-63.053596114782756,-65.32269613810861,-94.38335900007387,-108.1797342651306,-101.09936413075532,-123.02528836578298,-148.95800280732766,-141.6080865601097,-147.01496455697242,-174.87322002795736,-174.7386284432506,-167.20472831385547,-186.18243152945848,-186.71346575772623,-163.37400751216927,-169.48025672938547,-183.56165833642606,-168.56793119386825,-167.11991523477107,-184.94278458741582,-171.31314468012283,-150.81518605795472,-160.63854107478633,-155.08181315897298,-126.30079585833073,-125.82526752665129,-131.75839585441918,-108.55599883369644,-100.88947633119258,-115.52055776327883,-101.4545268091745,-81.79393707888761,-92.70257191138654,-88.37141959232129,-60.24779680009951,-59.6106408245458,-65.8196112530818,-43.761131538518526,-37.1517271878258,-52.27935135783544,-37.3642617747953,-14.246382119651484,-20.278367673204677,-12.935200962949938,14.339952696267023,10.978881521522496,0.6797735968287162,21.423481795557276,29.828465420015704,18.327619424022583,35.55716951900383,55.47839621980386,40.562582529361705,37.531135707940116,57.34417537554171,52.244715017494165,45.13736791198099,69.3560660878607,77.70754867263793,62.4775094306978,75.10290028539643,93.88048126412134,83.10921817412672,86.51149631586645,110.64724169050604,104.71965846962816,90.68739135836945,104.10745555146168,101.82951610558138,79.28267583678152,88.25555186234996,103.92385915245086,87.23395953817004,82.06868956655128,97.5788714362867,85.82285942779413,70.97027030513452,88.05559815617731,89.95580134484626,68.52234452698556,76.24895118767742,91.47752058135973,76.99318524517793,76.61648027233775,97.62188171455608,88.65873458149906,71.40033884634423,81.49752009468948,75.0306076612788,46.80951060193745,49.635859409727814,60.62338371739533,42.287167667465575,38.41681308981884,55.94736687946336,45.39312885972127,31.016016856739597,47.15676824337817,46.424883614754606,22.147562416388563,26.82873308026703,38.092174444485345,21.244862009449363,22.4622797587733,47.012365654621036,41.430113580970456,28.095713510098875,42.95785246535646,41.58087154807788,18.65332874890323,25.4309033214958,36.9932430171373,16.20893263830389,9.184426983957849,24.954414445254013,13.848989754648287,-1.4380229114784004,13.404372461529544,12.196505841662255,-11.123616008919958,-3.996253484339408,10.263598720155656,-5.763220804292153,-7.048933895138457,14.64310621131435,8.638091766744717,-2.9095266543872818,14.664972571907855,14.550081704543924,-10.723930934623969,-7.13350770356148,5.656350104166359,-8.650677408690571,-7.096598651690014,15.65100104356938,6.753119921723233,-11.377992866621856,-0.14594865153709335,-0.9642702128594434,-19.658271883592587,-6.669144816734991,12.050683006877193,-2.6670055964664066,-7.041502204646387,7.697054489659805,-6.520904017404171,-25.61599261415718,-14.292934846169157,-17.422161713786956,-41.30080784269114,-35.343818750101974,-23.100215370625513,-41.30171175109503,-46.738306217699524,-32.1666411080074,-45.62420004201003,-63.194488318326194,-49.49420401893728,-47.92709803832621,-65.09753682748067,-52.87044570360459,-35.98484694670594,-51.0509088753319,-54.33880440195303,-37.32726428731522,-46.86267374687924,-58.998183049186125,-39.72003831088068,-34.592778461601284,-51.79692048817467,-43.525484887767675,-33.220364845458406,-54.28424428991141,-60.23544353704115,-43.09132343448658,-52.954390453831365,-68.61363635567557,-55.294006956700805,-54.507364412599735,-70.21018962445045,-53.75793325681068,-32.2839001860046,-44.47608774390648,-46.18219400452875,-26.750083222051217,-31.20930280807162,-36.42564617933115,-11.036896716175503,-1.7745801748640793,-15.85000547332119,-3.4351063473161885,14.372681590580513,3.675333332699789,6.54222977057469,28.36151005045819,20.392128153763018,4.804913336870203,15.875950575434427,11.051204884301395,-14.483636663748428,-10.15072624925062,1.6906350301956632,-13.340260704452476,-10.75709143866262,15.308461994027418,13.756876903596646,4.886042095225997,20.30533408091066,15.865838940118909,-10.05436409263806,-3.0491817111823476,14.32050094411813,3.850972816309432,5.438081282507984,23.761601588187563,11.635888973577957,-3.9604453860074273,13.488288789709166,18.44603020407402,1.986194374760606,11.29715865964687,22.072021337539983,0.08486064518108805,-8.55017410737127,5.887483263312443,-2.7328206510109707,-12.005097280979344,24.716130961574947,90.46736344233088,150.86418293700638,189.1796605105929,196.3208167932773,165.32365209557997,115.341069638937,103.37594396835999,131.60623334983566,127.8129461471342,89.46784391818456,77.86981989977609,79.67118394906475,66.16830347791199,73.98382427966627,94.04759136281127,73.88985433232978,47.63567057858393,57.60501121626926,55.01538547574884,26.3294599698804,21.984048953537734,23.80106089532076,-2.6170026536953,-14.20469672100282,-1.0437277032735333,-9.627364930364674,-21.628407723683345,-8.647965738418987,-13.946026664499518,-37.40077545866846,-12.719173705475278,57.382603973401416,113.88297300521285,147.3317860286137,162.86894274271788,129.70464947709814,67.96811772259423,54.56171135833448,77.83061429004796,65.31356152273601,35.354682925087914,28.552581240434005,12.226805607740628,-11.996196955713192,-1.755434303819217,6.767981637121235,-22.53273073480548,-36.77395180327674,-23.514299074643564,-43.79156823980732,-107.04411446901044,-190.83718713484186,-304.35962783698693,-409.4902140987847,-429.3471995409652,-383.57969005551325,-344.23392729335154,-316.63902566858303,-302.20110700556404,-321.1042366432192,-329.1943104973486,-294.89971783096695,-273.6680839573602,-279.36079068238286,-263.658829748248,-243.2907939002635,-247.26185554090904,-235.0021707066905,-204.54443878703347,-201.4872515499261,-199.26125025146433,-166.98389243295875,-152.21878296274946,-159.80432036976953,-138.93555924919931,-113.13447786888446,-117.67868608155419,-109.16079215666647,-80.21445318217852,-76.91490139334887,-76.2554938131848,-48.03320676570833,-38.610795293852334,-54.0088816560072,-44.241312353842346,-28.98324965019133,-39.92114803461198,-35.0886620684117,-11.099166481531936,-17.777347097706553,-32.0281667738113,-17.58629690229796,-14.834471515821996,-29.513870922517782,-15.59758211333892,3.0246695298585387,-6.022947829802788,2.0013277669061518,32.73902340365096,36.30343693248909,33.28060896851375,55.72879067374937,62.02979040615067,50.18266738806902,70.06342639581398,97.6474778987076,96.40630865897678,106.16494519594238,131.9198995424686,128.02939425720692,120.34504273031567,143.01268112872438,150.22415364422437,133.22426551199004,140.19312096816836,151.51175412825597,137.42556658872445,141.35491959680255,165.1102206546245,157.78568566443056,142.99227848124454,156.39377565120253,157.1536743871277,139.77494949572258,149.91397870240957,162.94383710931763,145.78232892964263,143.76097686060888,164.2582886280963,158.95172395415747,150.52473083383103,170.89752860013897,173.21422772258066,150.6311080438878,152.84985366904482,159.0909062419368,139.05422051302477,138.0161001011624,161.48969155259567,162.31446190023678,164.74718187976578,200.40236791114455,221.69015800490743,218.62863478933915,236.8340977247385,253.81873377088098,238.29201915858215,233.81900694005282,243.57722164126906,218.71903679125745,185.26226013525473,179.62299812190554,159.83454467318825,120.3438138313865,106.93153395098942,95.54234516616351,56.54954597460719,36.252323237692984,39.52651188592119,17.5821423902552,-8.439741774104675,-9.036103379028432,-28.217450586419275,-68.00228882808497,-76.96236773400324,-76.81035481955068,-100.37891004789454,-104.85327234232744,-86.42397166450904,-94.28087880512182,-105.70017994389778,-88.66692511544862,-88.0888437045322,-109.36374843724391,-103.10755348143314,-90.93040152625831,-104.93011737437111,-101.29299072098013,-74.21428563139634,-72.26717887154135,-75.6868868977659,-54.797710901956,-52.487753579800966,-71.37442611136478,-61.91853670429429,-47.04633926318245,-60.74431793193839,-61.05734171728891,-41.90374929102745,-48.62858991402054,-58.04740290104975,-40.22785517015686,-40.83428264907676,-65.39870463172151,-65.12915833616495,-60.86567215603095,-82.22171373643482,-83.59841460824379,-59.93457258815978,-61.18803980121791,-67.5915326105354,-49.91920244706324,-52.30791224868425,-77.16981140898164,-73.8871812802247,-64.15274511051351,-79.79290885231711,-78.02249232352392,-55.38818664582291,-60.457735887655865,-70.68547160866898,-54.68970835861862,-55.42922802759405,-75.44390896862569,-65.51664496850273,-48.96810160581303,-58.78315809788517,-53.48007813187956,-31.197846970427438,-40.40173037355004,-55.29444539350061,-40.309963414065194,-36.90110663512594,-49.89501779051399,-34.678411047594544,-18.80434356799379,-35.393465356951566,-37.970094350284235,-19.065560596942333,-25.656711415984702,-35.48306224241816,-18.3902401225147,-18.142856405370235,-37.082230862110116,-25.645923426230123,-7.5481267528945475,-15.96274895071964,-7.985023181164051,19.870167157234803,18.45533689474007,10.83933595998571,29.583469366919324,31.59128858634282,13.900575458820912,25.349177177057797,41.06963132770659,27.807358966887435,29.86287568175844,52.26237254134898,47.11346304293275,37.414754514879334,54.84434148287535,57.11467857059699,41.88661467913197,56.13187199112805,72.81968050241608,56.47288582038538,49.2964056968088,58.76942003091617,43.921476884669744,32.63575470891149,55.74973874934501,64.93713754943668,50.33688848417293,56.78614787153473,63.055033956490526,42.74754622677359,43.249554685658964,67.69106317362177,63.40518567425285,49.121899211601864,56.47010966952494,47.387915885762865,24.65940362492922,38.25558555023168,60.12246852853107,50.762142571542974,49.0539133525147,61.07736145419861,45.88147091995465,32.419593094803815,51.79923178859983,55.86137061891584,37.10585964738854,42.48149853678771,50.01233743530772,30.681509196712867,28.314406435164727,44.11930491765177,29.193269054126567,9.037207918664173,16.927833394273907,9.595033961497345,-16.480431610269505,-14.290262300771403,-9.857594383152641,-35.154153329905036,-43.61778429709106,-29.238180916934013,-39.44376415516554,-50.405150045532736,-31.48851294928994,-28.1416382742499,-44.293441728798896,-31.214286420397613,-13.36983384684911,-24.940166254670878,-24.621400189228353,-9.136300738165279,-22.958779720248074,-37.0859423610659,-18.249961976879618,-12.43827284003868,-26.689397249124635,-16.546734541890366,-6.7416888412035325,-25.16771600736888,-23.678138479931427,1.598942807389884,0.46879374443248967,-5.678699198173692,11.207229859236628,4.651915228751272,-26.654578782385595,-29.121202060798513,-23.060491180774044,-39.46084016061691,-35.554135181527805,-11.441424768113848,-19.417451289508854,-35.92028755181489,-25.536076170315148,-28.214657825308645,-46.254623259871,-33.534273941539226,-17.755951287870964,-32.777985006490916,-33.26587994799042,-11.787481807330934,-13.976103099676255,-18.23078175065804,2.5547884039376942,2.2772649139683003,-21.631748323612815,-18.2323139686023,-8.852888032890156,-24.849951693602726,-24.51060046496206,-6.784311730321881,-19.755562906669038,-37.34875089259426,-26.22861869007302,-29.674761400289547,-51.721141130628766,-46.24775212809877,-38.572716073051815,-59.53969215729543,-63.796626566409216,-47.386509769090665,-58.1468919910067,-71.19557159670977,-54.58082330083219,-52.61260064516299,-68.82199903466429,-56.07426864095008,-40.68247495145096,-55.55582519844329,-56.43560062998508,-39.00734522812653,-49.22162339060697,-60.51857416230325,-41.02659728423433,-35.82345341288452,-49.5801077854798,-36.75358699559942,-23.629795396925854,-41.093101505626855,-42.91143515939882,-23.342499999700753,-28.1193670282161,-32.9696198586214,-9.34481692163097,-4.218714559198953,-21.462638176555227,-12.401692486220849,-0.07346529852979566,-13.76097221632515,-8.697477925432242,16.275938054384273,11.662112982117057,1.8383673973952819,18.069570447896727,16.980534656572793,-2.731116406394057,6.695175100349803,18.623809523821887,1.2779781667659798,0.18150203962015832,18.485930014460077,7.6954598341642955,-6.842911833508159,7.392311331961784,7.375183409223557,-8.442333971399576,7.225916409886357,26.130919933503073,14.089056673883814,15.618964897418403,35.660518034162784,28.44088928501094,19.308374177913127,37.66765539605634,37.46791671751946,16.374094678277682,23.754204409011056,35.5652960154326,19.959870690473224,19.35992160223406,34.622073485442584,17.72239962015388,-3.6500770465076995,5.229201161102831,1.0205517747531414,-20.19086157722557,-12.715199086042343,-4.268252550016111,-26.62983237373809,-32.33020921679662,-15.317810079266016,-22.52020331574156,-30.218057741790957,-10.368008934279173,-9.88862911692274,-30.59670373661287,-21.239799549424106,-4.119107142797382,-10.796475367849865,-0.8111750490252154,23.368738794094664,12.409944023810038,-4.619075380224977,8.554896549680258,9.227631997531198,-7.073722692881292,3.836635081792055,14.027439440708408,-6.598195693070677,-10.5780529386758,5.532290780966303,-6.2456411362850215,-19.81312079748589,-3.5528940916004714,-2.628270153932914,-20.514125212618666,-10.335735634328746,2.198346335912112,-13.0786214989299,-11.69394742402993,7.010593930639289,-3.3027519353524317,-13.001340335909745,9.862386566857515,18.621903079775333,7.481900794839965,19.603968715721276,29.34454357749322,11.778433121475363,15.779266867424573,42.05416149169177,39.08783263155366,29.2697409341881,42.23794232142319,36.22234958907457,14.911376178630837,28.78032663264109,49.24060198402556,40.53701659940676,43.341311332907075,58.428262712106985,41.366441290659445,23.509108096739737,38.51857714400157,40.30512847824115,24.261324575154013,36.289194289993866,48.88399306583362,31.07676613149534,30.28517670140105,50.783845748397475,44.62056165983361,36.122991027519426,54.151786120505854,52.725280830015365,30.283635006426525,35.97295331320294,45.40365110924443,28.753453912728762,30.77367987933779,52.47718875785264,44.744925715166275,31.540605147103527,42.84730004249162,36.90847903880169,16.840532903247738,32.29594279170583,54.678052284670464,49.011323771782756,56.398547644786376,76.7791523205272,64.2899831839991,48.73703826191526,62.569471756625056,60.900706530860575,42.186154177225944,53.28708421421847,65.6802535240987,48.08046903852542,46.852215665479676,64.2972100787394,52.952994059512775,39.24037368046124,51.70960532949199,42.91842591415768,12.825772628332086,13.27711838531058,20.21193398302115,3.0418290728220363,5.047995172354966,24.86659299035198,14.122804276425235,1.2227467401195664,17.90289131070526,18.33266722663712,-0.07947128551507276,10.70470924836551,26.77547443399789,21.162029546381575,40.72482200711878,85.19293518246194,103.89763580034484,120.26227234551098,159.5817886112697,171.53637079594378,152.79316633940408,151.68826125868077,145.14108945382193,108.59731681741943,91.4216246614998,95.08101213360958,70.23830463171336,42.10191463434621,39.998486373393604,18.787278841201246,-21.16425749555613,-30.47826522180778,-35.707160817131125,-68.48933943460356,-84.69734186172148,-83.00399533036232,-109.90944615811337,-137.12666327581366,-133.4300904069617,-144.7500402873442,-173.4850688394354,-172.6815534253481,-169.7428244400118,-194.90094246842028,-201.4607689817643,-187.2500815504641,-200.29524086857228,-214.2546872391635,-198.66506978320876,-198.6601476074034,-215.84829473992747,-204.46386705278633,-193.57139534488374,-212.95201910129086,-213.848471708605,-192.22583653473532,-195.74559721856565,-200.27034501811107,-178.2614151470318,-174.124018564155,-186.0297768973486,-167.07728375347978,-147.5839735431876,-158.92295067700752,-154.73898524633674,-132.0935723186565,-135.70445153299545,-138.23669840084477,-113.07634356646369,-108.27373153743582,-124.22249099922423,-111.90239117660812,-97.06342273935158,-108.14249880002775,-98.73504091919403,-69.21488173459963,-69.22483428273935,-72.14440200124648,-46.717678371762034,-37.125603299875614,-43.910022234823224,-20.481223379370498,3.3356747457577907,-5.211507115742311,-0.06382294814555056,22.879955122842222,19.139130915706808,16.809408566258192,43.7871497696666,51.617346964989366,38.53878965719037,52.61244698963798,68.11714353142031,57.62705625448838,67.57609174076484,96.76742324362714,96.77542089859672,94.82275163012565,118.34158728586539,120.19694572318753,101.44791309280674,111.10742851537974,123.23496039524217,110.2309200148036,117.29106447183759,141.49410471578386,133.0902833557734,120.12195280148978,133.7076166024724,128.81165208904002,105.40823083921053,110.9344886772206,117.89053209932214,98.33577540011697,99.0124321005579,118.84178101960036,109.87029561416196,100.28597052827786,118.93736316822014,119.01840544545217,99.40655529063453,106.11864044070107,111.62009052800587,88.78790932236407,85.0600833114038,101.12493794264275,90.5365043363698,80.46086860153466,96.57604136005364,89.25112152805953,58.32379023582555,54.8001478030292,56.14457704098643,36.7363227818782,40.52722522464466,61.3581534179558,48.840865475651015,32.55304228331654,44.014509029673114,39.58090431901027,20.751072766995613,32.63836328367822,44.59584081803203,27.49837904774757,27.22350195423126,42.873208165532255,29.453415329714343,19.290846328434935,43.04815172684084,52.83610672218332,44.90461615080692,61.37473356485795,72.59142576802842,54.206820444533264,57.02066693092778,80.45699705367385,74.38997895089717,64.24543319257752,78.11653821492244,72.77435895642722,52.35558132346124,63.74849940111818,75.79362654097177,58.60611827590024,58.86311335543127,76.29874114523743,64.24604162375414,50.964524125005624,63.4173145232438,54.46973725523243,26.35183258802941,27.584646585929995,29.42425887376903,3.141859571899319,-4.990377386901621,4.030082327584145,-16.067046200527756,-36.21498734475197,-28.951356121268454,-41.198937717655426,-70.23776815111329,-65.79589802402745,-55.559967382701956,-69.93584532818177,-65.29369008231643,-45.036467495935156,-56.43793873088829,-68.06008044529734,-50.08927600019728,-51.087894948216544,-72.06202582442802,-65.31153189152305,-57.94319939495911,-77.10750889694012,-76.03681213287346,-57.17383420649863,-69.58518135395221,-84.1453453707014,-69.88836633258784,-71.13011681215114,-86.58550365502333,-70.82301703798802,-55.40490261143114,-71.04987007200194,-71.14179179084167,-53.25206752708988,-61.37754768386506,-67.71330540141767,-47.01798465399686,-48.359621847302414,-71.19809691836633,-65.3158994190025,-55.33329511557504,-68.73547086196145,-61.478300194736164,-37.40455695996282,-44.82706612108943,-54.61213505112537,-37.37185552536738,-38.59083228249368,-56.60190144067978,-44.15146594863101,-30.676190524645936,-45.751962984772426,-43.15303253015035,-22.660457238448366,-29.517003513302935,-34.370127048439045,-11.189751251137878,-9.209924352561336,-27.476044756292897,-17.67186773504708,-7.5293419794670955,-24.503756021426256,-22.310586838240464,-2.3010864444780745,-10.009223878120526,-16.125519793124308,4.0792359847785455,0.586013761078787,-24.705435495047706,-21.85980573060917,-16.800676036842432,-35.33682924548613,-31.64643869964838,-9.905556165347978,-18.984865092797133,-31.28910554560413,-19.141440781895422,-26.34915686167201,-47.58393360164957,-33.92446183989426,-15.786635643787223,-25.660986840398355,-21.63424444596626,-6.187523995007754,-22.53021044050075,-36.37730114292401,-17.764249490107115,-14.776995083563,-28.324907385937127,-13.93483967684319,-1.7477867229743427,-17.640334845998474,-13.4692495559378,7.572371005624732,-2.9957737218718545,-16.032809243130572,-2.7566723138357876,-7.135319486491383,-25.46799007078543,-12.668983553522821,-0.8464020079187757,-18.10165208614277,-16.27243110602821,5.798366612557234,3.6789794321552494,4.39102006027193,30.26866288604504,32.74824221257187,16.977673225265512,33.84965001825839,55.15891054608356,50.996797523095275,62.57351649750704,83.34937359862909,68.50864114787947,53.59697130406262,69.48196782360215,68.68596621890552,50.43166941762791,58.25334458545503,61.30927290733644,34.27679258360733,27.46838163862224,41.167693109861496,29.46274683238523,20.211412046096694,37.32850081148675,31.938491860079864,5.750748811645519,7.086645605175635,11.064265212754238,-6.193263711245862,0.14296310216474595,23.72026097499998,15.171466979703474,3.080331894750367,16.436503499456524,11.37443120249451,-10.194558513159505,-4.020233810249746,0.213537641219821,-22.231872450732087,-22.611500662266053,-3.629260270677424,-13.967635104917093,-25.95103192793571,-11.92671212996499,-15.229449366201177,-31.301234876974338,-15.70228427333303,-1.7027453283797462,-18.255264450490337,-18.961105099576805,-4.482585120200108,-17.804313656213118,-28.133051742041236,-11.522008032785203,-19.36119537481851,-53.4739184995658,-68.86757921926406,-90.77613507829281,-137.84162771589993,-157.8405762391836,-153.53430825303542,-175.09109414301656,-196.33136804736586,-190.0422301376714,-198.26158201769127,-213.78748860504479,-190.21325784810287,-161.36566403364665,-157.41261976585307,-131.9589863987194,-86.34118668839048,-65.2322970519436,-39.28120113951206,13.912122512031905,43.93749768268648,54.372682906603764,93.72998091816777,132.91221153891183,145.12704940362897,175.96470457361357,221.0539843595069,233.4542984477353,242.53340165400556,273.6735919535141,279.6214608218887,264.69915911932725,277.49826677460806,288.7995213217597,269.96688551148964,264.3550366565205,266.9946616515009,232.3262205584066,193.17492441011603,179.16110526780602,145.52111077403143,96.12099825376177,76.75700926569962,56.59944853052899,9.900257697223731,-15.775610761282907,-23.848478833128468,-60.15175098443651,-94.10911384194274,-99.20902284773948,-120.20554554415943,-151.93771840189126,-149.10339202913696,-143.19042242028144,-160.36289437805038,-152.87848023151935,-122.38078348831895,-114.10500102254035,-99.92057852954709,-57.08470033406673,-34.30674905058661,-28.996140700666114,4.468902985882481,36.296403430646976,40.95272296087845,64.09058590846332,100.58207610255683,104.54378407993889,106.0332695210204,129.345394132779,128.19841998935527,108.17389800426477,115.44870437460276,119.64633213280992,95.6255273979997,89.46914437742318,96.45877386338715,72.33918627570135,50.29125448416556,57.30283797634502,47.12004571950469,24.949222202449267,38.68126716480879,58.74803718955856,57.94252793012774,78.69117685656526,110.54181555460899,103.0050566920319,87.1196708902912,92.5525859214239,77.97975149067761,51.50675818303093,58.91486058780813,67.06535490036497,47.88395939228663,47.248153092666996,62.4232790917496,48.88450638307063,36.5122953634263,48.74543427100439,36.69694290938284,3.756194993418374,-3.215524524324445,-13.056516063259338,-49.829406036078446,-65.86493262265044,-64.63157925782207,-91.37314175417681,-115.68799587965489,-113.45931929715518,-132.72238364390154,-168.9723612937244,-175.46623701761902,-182.51860546087417,-215.81990307356347,-229.79525209823015,-228.56117551238108,-253.89615732269294,-271.0216093757459,-254.49328227325617,-254.62452699124836,-272.15160129930496,-264.3676294281295,-259.8967196828505,-278.83883602300676,-271.1571053470278,-241.4727603358284,-237.6763641284907,-232.02873686281674,-201.77258153903117,-194.25965695102045,-203.1493661883982,-179.92739629427854,-154.11423641302616,-151.24177597423585,-126.1247816436223,-85.88727202048028,-77.11701745240731,-67.54350650924859,-30.63052985641757,-12.727068453858998,-10.450210486674763,18.704777530752516,41.804778282526414,34.91553594530528,47.668960144909036,78.19207373211731,81.78138866269137,86.28531566380668,111.79362991495226,109.36093967220663,85.44463026703274,88.95894812225058,92.03128459621672,71.68262797286586,73.0742817794877,86.41437037042562,64.32001809407633,41.20993032440647,46.203324516076634,35.64047314006187,15.172717704324848,25.695096904024297,29.70860586933743,2.884290188552706,-1.647327637008202,14.704209186548148,6.8470122825973,5.477277043726342,32.11006130339133,36.909175619454814,26.412229466732885,47.05128098249307,64.58339082243012,52.317761968127385,58.00412794358601,77.77002909759796,68.81919487846619,65.195700534279,90.23671070352702,93.80346492859412,79.40572394795326,91.77608799580851,100.71153256716063,84.13260155046991,88.77433339243558,106.15870517421129,89.23179811315251,70.93837788622861,78.96467144067654,70.43269574266677,52.743435421873684,67.77848869642769,78.56845371126806,58.90372159095385,57.606465235461016,72.43598389679377,61.6302591898519,58.13239805623921,83.16649886834183,84.62598649648284,65.79466992752715,72.45028266899307,74.65202785430726,51.432034362824105,51.707606956266126,67.88727278969631,52.83373886115301,38.63876108260207,50.030717779899085,40.94993303012828,18.988617294904675,29.147235469846855,38.17457707875261,22.531043790005093,30.176602767373936,54.569134605693755,49.83229277799582,46.628021362644375,66.88394111148475,63.236416371019885,43.50476851550994,53.9993134149233,60.83854969186425,35.1614434281152,20.936517275358135,14.746813485762127,-21.705461673361793,-48.87276546795604,-38.52242332214179,-39.99749358685297,-53.93413353636237,-41.32272711727723,-36.563861282610546,-61.84068635583807,-65.92078032382382,-50.51352439927916,-58.205556718259636,-59.04750394129161,-35.244658569378124,-38.74966704939229,-62.94315219723907,-58.26893146687972,-51.75252602477065,-64.30046298466112,-50.74912931214219,-22.986083053568976,-29.05600598436597,-35.21413989242303,-14.826169552936674,-12.54070539809957,-21.82482073803128,-1.4182306409465433,12.458166585796839,-3.9600956738497963,-0.9160319449991281,18.31482003255548,12.017647519639835,13.131588163557318,41.40061240892643,44.91057966497123,27.423899015280966,32.75347758291906,31.482029462789505,7.597889981899489,13.27537209093855,39.357805393085144,34.214381023417076,24.510336311314482,32.4376889616491,15.526135223816938,-12.763731598712178,-5.505468565435438,2.7814036933116553,-11.055063759229698,1.8485177081100614,32.78505901944821,32.32131776012123,27.880132074089893,40.39186068381072,27.751312161484,4.752450664276472,17.283465421340576,27.486500559647787,7.838620666667491,6.019926845814172,19.507389359619562,8.309818428741508,4.699999430308409,25.46102251272595,18.442359446936155,-8.001619868744896,-5.958790139626735,-5.276371195248314,-25.460517271839915,-18.917396348231296,3.433448364064013,-5.2176770302368585,-12.306442067003552,3.8866407232582,-3.3135646638614,-23.564350363571155,-12.304843951060741,-5.626601956400911,-26.90849512644109,-27.09962838845253,-12.4237839250229,-25.10238245625553,-30.848960346235685,-10.548990443649611,-15.444407427138886,-37.93775640188204,-31.89206540734464,-27.441222514384837,-42.71656317098384,-29.448745416444183,0.20792976087611414,-2.450143069373249,-5.786741246856758,11.730048091055977,4.15464516048143,-16.643425214365962,-5.736804252915191,0.8629551984554071,-18.864407729547256,-15.722321311382514,1.8880636786125624,-10.053903751805477,-17.003067910091186,2.1425181492745367,-1.356685818175281,-19.108149655669756,-7.145569883830786,0.1702616215946724,-19.038504032217656,-16.584591621177704,-0.9770400851701089,-16.97102485738023,-30.59329144468177,-19.431243227000436,-30.754127662069138,-55.27183260364143,-48.131503747315456,-43.37717857879163,-63.06053542563941,-59.75625173457985,-42.618728261530556,-54.76585822192831,-60.36137362300526,-38.76139016457761,-40.84377698278219,-59.382384045585454,-49.31914316874979,-41.065429548361664,-52.027550857371224,-35.80401925314452,-8.016888042963629,-17.840473679108886,-31.08187449168453,-21.793342166442542,-31.572049240815485,-47.98537578127238,-28.99560981014003,-14.174716790607519,-29.0094545978182,-26.713810841842744,-14.50388973754089,-30.812375883388125,-35.93680804492463,-9.491948161091253,-4.879474459270511,-18.274730139403434,-8.822912472419887,-8.632501598194994,-31.678262272067116,-25.439611346706872,-0.7203041617588681,-5.102093578322037,-7.218179457352559,11.962204252071338,4.463223046065461,-18.196471997328395,-10.022628071615639,-5.282356365805148,-24.650088577553987,-19.17412536709383,1.0570153086454832,-8.87173093802129,-14.566616484082742,3.9924299431809125,-2.5050775732770623,-23.89105127797791,-14.13702916986109,-7.6156398996270696,-27.418142529583434,-26.68667719272763,-13.170896555030737,-27.379243775952112,-32.866048704902084,-10.507087240279397,-12.400963549638181,-31.300869063160693,-21.519555406923484,-13.92351124136636,-28.391682837185332,-20.093537811771387,-1.4516186553459054,-15.089158712845665,-23.366859740650035,-3.5163456315850263,-2.9716743958000547,-13.239712122268848,7.201546172052295,22.290825005036183,10.269491157891101,17.485544108738175,34.32201149048273,20.410637317908563,14.13470484674295,37.01658558720303,38.84805855641552,25.022695639182576,34.64737246798183,32.88528994001761,5.153325202302844,5.362640570927288,24.558900913457837,16.9699697238759,13.93257228996906,32.773211416743045,27.380463855395593,13.234018250799243,34.92890713558758,53.700668757565545,45.78101436466852,56.983368946909934,76.39812659582033,63.3859263515637,56.93215329050179,77.76462294207728,75.70505346296147,58.96949630440916,68.7835896440759,69.11875100543571,43.10868583434696,43.552522902327375,61.32887935286065,50.86760902249776,44.070984070371566,58.759242054595376,47.469124060141965,23.13715567396521,30.876835377865838,35.213696877881596,14.180234184191585,14.3787447838086,26.668598565176357,10.75269272965612,3.2451743885209217,23.438525256681178,21.75422621158647,5.96670287948523,17.438920675917775,23.173111601984374,6.708015686453248,16.31141024329234,39.72979300010052,32.42721652487543,28.646650417631783,47.62083840676928,41.74268700602802,21.90647379405614,30.653352699814082,34.023139593746734,16.049448391918762,26.86857319275894,55.79550241453319,60.77042872983869,78.08874354134329,125.494013214701,150.83680697444794,159.980642865987,191.0053123529021,205.7470937676114,187.14952540936756,188.25639532785553,199.25406484517686,176.00316880729162,154.6736128171041,154.7323143548001,126.94331906183928,82.6541924980908,65.54582458213821,40.42231471537998,-9.408438734593789,-31.329408419830784,-34.21053335439294,-63.20362542887392,-87.33389132590604,-89.7531011278048,-116.48640260589556,-152.04738443028802,-151.18130531426283,-151.53399024873573,-176.7566064247801,-181.1580385442319,-174.1408689417644,-194.5919238213041,-204.28654622533014,-184.940952802632,-188.1235131448931,-205.3474578511796,-194.90542428093028,-192.8540070664103,-216.82140929610034,-215.60539161241215,-197.76315715122075,-204.24320794237772,-199.69597342904467,-168.21450654795302,-160.9763522808748,-168.46781151138902,-148.8293676591566,-135.84574486310257,-145.42328713226735,-129.41709914068025,-101.21991820089806,-104.88374383257346,-105.14299272904492,-82.49627271455121,-83.31679604320395,-94.94238468227871,-75.37205981659397,-61.75854347833827,-72.69519881925342,-58.66990163353659,-31.364597727242646,-35.00865875451379,-34.72130076204175,-11.692446211340995,-13.356725955505402,-26.834812648682465,-8.65734802263761,4.638040496894474,-7.437863957591398,1.842331067539189,21.54868125534359,12.035129941041316,11.275432999359698,36.59179170004089,36.896464080699396,21.9779414625416,34.17741504883963,40.14858607192697,24.922096803734,35.9611996670689,57.08162160322678,43.57299601866346,33.18189820514736,47.79785932157584,41.63182009542589,25.57727067185673,38.15737011378697,40.47537506257634,15.936301710248664,17.78775114672883,37.54162697606316,31.97712215207677,33.18872249599108,55.68709998525558,51.03728283897205,33.846498828168265,48.2219211711508,57.539236766934984,41.905966747925895,47.69471358988218,61.980507921359035,43.09012311170587,28.337112155074834,37.756974206621614,26.29319861578427,8.045581045574377,24.135977367865767,35.71628826366527,23.003580817993516,35.079878205400966,62.43185785972758,63.71189958319354,72.76974173713054,105.00558887161802,113.30391202516998,113.87513881017756,149.4581662269897,178.90370725308227,177.92778573858394,189.80752471032508,202.37552737655236,180.39202149896323,166.28344343684466,177.3575612933597,163.81467189982845,140.11445165249583,149.654134518456,153.5292157987981,129.9027510091131,123.11976425269526,119.26255161172656,81.85406478857311,58.102430927279954,71.97200475436156,72.75203507388849,66.6481048499198,89.01555545561295,97.83319104004369,74.33321259159317,69.98862372784016,75.66307336539676,52.13984833132719,38.345596188654696,52.252264497672165,43.8282759494282,23.23999154665474,30.482136212908216,29.216393072082646,4.6081837272977575,7.542227317558458,25.417342411952816,14.684265002216343,9.899840195295932,26.697659791675655,16.27683911132228,-7.755988784447836,-2.548116343379186,-3.4410227828593656,-25.705298127831593,-21.171174196892796,-7.036092047050064,-28.3729148522794,-47.06284339666877,-42.54627754478088,-59.38270039575699,-81.64107187334797,-69.02900310705593,-63.06531248090037,-83.32870410480224,-80.54948402962026,-66.03598240330585,-79.50530469314798,-82.73447308935208,-59.53461905026954,-60.382363459599645,-72.85706480632666,-54.72361183894274,-42.90077550175351,-55.62407939256516,-45.777320908796355,-25.516042290064515,-33.44275281491815,-31.144524707098483,-3.6505750022839774,-3.0289090487953296,-17.745194955698857,-4.195849547513063,3.9697163252110195,-9.073275590265528,3.10213763412954,24.116323197279037,10.786243333020254,1.623790509531256,16.149750434990427,6.289648504371817,-15.645646317651533,-8.403811170627074,-9.69860695951133,-36.58159136714686,-38.927975696130886,-28.783837044799373,-48.38816933168474,-62.10668109972923,-54.20514661615495,-73.05275620962519,-103.2347777817325,-101.02465696022334,-103.74641474205728,-129.66666682466882,-130.85054218390698,-119.25865919971058,-132.97790019044942,-132.46255308604157,-103.14773298965008,-99.0581989427005,-110.69994743796721,-96.59713611893011,-91.3963747193417,-108.37631706485688,-96.96223001266323,-71.90164347289712,-77.49340965357885,-77.54481671569887,-54.634619447770376,-56.82712588815521,-70.38634359541122,-53.18752897051931,-42.24623745979214,-54.48658997153454,-41.225505852668334,-16.17568331401519,-22.165429496856326,-22.833034247387282,-0.9742367072221256,-4.469974661645586,-19.56123961922536,-5.462789975301653,-1.3068566537912873,-24.12273497092861,-22.544427463239693,-6.439518490658543,-16.028481036447168,-16.698024237570955,3.2873054812742684,-8.038116163782682,-36.08496930333284,-34.45931018882436,-35.60854452211361,-54.39618210436035,-43.64490883687145,-20.04569150218576,-27.55500475539138,-29.198702837256242,-7.150810756964524,-8.6442259083302,-19.81637449067901,-0.8267294957033187,8.876273729567487,-6.458501321741375,5.774982096798014,34.904388129036334,38.73158296289524,50.58061825885659,81.47286509178126,80.52384961406533,64.33787416597801,76.94764220564883,80.2767966424652,56.92975164666281,55.86281838715421,64.42771144717148,43.40799278531398,32.521222290463754,47.9547237915854,38.916732413282226,17.816218438069566,24.6615470150416,20.393771906900486,-10.000380344153557,-13.748716297221309,-1.4759843563082793,-13.794301166376343,-15.182103199204107,7.266177407228678,3.2759824064903214,-13.256192666274345,-1.8697166150915052,-1.0011471401057752,-26.34469942367369,-27.37740035606919,-15.037699746597289,-27.560660075476193,-26.57290168872204,1.7385806276943097,5.513521393670877,-2.1374339637612367,20.17181008821206,34.209007624403206,24.03193932362081,37.872099036785976,58.65093219634917,43.75257522462747,33.12595151670501,46.12617584702905,37.45160922379018,23.134560621049918,41.824677881678994,51.050818003387235,33.373302854759324,39.68151233423134,57.15963406434614,43.61322174043716,34.13522802716631,42.41644786802945,21.697396513096862,-7.9633061563558565,-1.3411465345860227,3.4682832179452414,-12.038285402260968,-2.38505323637916,14.969166658909339,-2.092593083296716,-14.197673608826712,-2.646278340371258,-12.749114107426669,-28.499892666549695,-11.460508868578946,-4.5268322226650755,-26.097755807275604,-25.577803905868347,-13.434318052117764,-27.52020022836268,-29.239257171153927,-5.5104895716852,-9.025914499674041,-26.825559143513914,-16.85455506025285,-15.156129118050286,-34.68164270080164,-25.1866067552738,-2.9949873111752927,-11.019463297358842,-10.741723714546843,14.900649739324393,17.797328323738505,11.549333529413378,34.14991574446044,44.08598262515979,25.050225482552744,29.38987143456981,46.62408252573565,37.511696324541575,40.07662242291639,67.01827703666741,65.14739287584048,48.64706623761481,60.58575068731566,63.040633324487956,39.8701324898057,39.71250907627872,48.155149429824604,27.120274769551926,18.976969487653992,39.64254140707252,35.80504862737699,18.149267828722962,27.150901798761314,26.119450383918817,2.333018368369931,6.820747445494644,23.425186725902922,9.664190135308331,4.689235795366544,23.757092694556814,16.847006920429205,-0.5554399204427192,12.147042859811796,14.95318051255178,-6.433921123925726,-0.4665898835368889,18.468757912780415,8.975222691487671,7.641802813299821,25.905355342031974,13.489837207259859,-10.693664983127082,-1.753876830686841,2.203665470208768,-15.685506405626558,-7.956163696985419,9.95269493819481,-1.1421609881901365,-1.333699848191662,23.01044221312857,20.450730106392605,6.293916744780694,23.2901835268623,33.99215283981646,23.398148764014266,40.588191752867075,69.91539349693203,70.4272751115843,82.415387252529,122.77604374722206,141.58242232019853,151.20190187889614,188.32770031744053,208.4276980314903,191.64628022230076,187.74517421292765,186.3140159167945,151.6299298738523,126.26336862695155,127.2654541191418,104.87931254918817,72.61702070899405,69.90153211659337,56.639398957155755,16.459310166300845,-0.8405817895911025,-7.794661446499209,-42.465569884799336,-65.48900274989568,-63.938143264708366,-89.56655836780712,-127.25291926328563,-134.30300561623102,-148.18897314410094,-184.35495719717477,-193.18996706609875,-187.7907351520222,-207.16434221361027,-212.50904342262783,-191.25688614176227,-196.98109134412766,-216.07456667202823,-205.37109322973706,-202.18592764611924,-222.38528969787166,-216.53855257423376,-198.27802090319202,-206.71419237801197,-203.0215787323693,-175.2586597008015,-176.70034311516181,-192.8764759355021,-179.66267864493182,-170.998951935682,-179.00096348111228,-154.89219936345728,-117.41924468340864,-112.64160655834027,-106.07843996386248,-82.85695806145513,-88.05042766667422,-100.9837736855981,-78.5289006226663,-62.27193632738028,-71.80420723732186,-58.90073731980854,-36.28639796158501,-42.324528703153774,-38.39057897239278,-12.189575831222294,-15.336131752933635,-31.437935290747195,-16.727264513449224,-8.557808592066994,-22.35646405012571,-9.819072183752885,13.211304119105055,6.05162711483463,7.086830659102361,29.542563880740264,22.6151088399111,3.081325338341408,15.425252898990365,22.786247617072423,9.149645552585376,21.55975174939828,42.58186088870111,30.9418373956642,27.472523786865352,49.30542933286149,46.47981792863845,32.73218478440243,49.532151717064856,59.773920768812175,50.3118990192173,72.3434967830623,109.43082012859227,116.33314154809382,127.69229270240083,156.68067281502297,154.57765173535512,138.70768902574252,151.8361359245538,155.71895545875591,135.09259536570258,140.2845242913603,157.29369999815012,144.27988433878278,137.73332883241366,151.6289919510522,137.5467023841877,113.20169664714854,121.81845377077579,124.19163816872711,102.00057248300674,102.24954669006577,110.36721714854737,87.46464397027918,74.70705300451354,89.01464292724796,79.43019504037325,57.09462437577373,60.872231943538885,53.03402754220421,21.383628213045434,19.11467445417162,33.15740530891093,21.256420253362897,18.714121488717833,38.102860954420144,30.721345454029052,13.587977999403616,27.444898733634915,32.49641445646245,13.050063418535544,17.798970973802803,32.889344723090716,21.393307745096404,23.762068497903552,52.43214321444367,54.43275050696795,42.72999112642209,57.603125635943975,61.681522579562866,42.62490765891667,51.1700516316999,71.06717310360028,60.17318291293668,56.132078603283894,72.25122605924665,59.0863507269962,34.30230049481425,41.297972917447076,42.45247270351149,21.545174180696254,24.391646791232404,33.31344553623164,9.518384111191102,-3.712850153216929,11.223550163511952,4.714158375247662,-10.400638086462417,3.282036751553079,5.668872923580217,-16.349112203706703,-11.241942078998738,6.119544537516101,-5.687567277748148,-8.628447790489703,10.790981303662944,1.319859916742284,-22.248286271141236,-18.001406310119606,-23.272798340001568,-51.49495227075152,-51.98979013466055,-39.992777535041185,-57.82914177039385,-68.15655067707277,-55.75495405696708,-68.81376113373925,-91.0703631326106,-80.24877077328075,-74.1698241616481,-89.50368630823765,-79.91545184362994,-62.59440054326811,-78.46353092505333,-86.6507163576537,-69.3570841684627,-75.01666506850651,-89.93333090080367,-75.64650502462968,-71.54108716738742,-91.4563509649355,-85.38777884125525,-68.94535791611484,-83.59746526026308,-90.56544025478026,-73.25699652395296,-78.26864396920305,-88.13430652148077,-62.52430465058734,-43.53645403628798,-49.91069780077557,-34.653307973030685,-12.741411028992863,-21.68729517519506,-18.761182921847332,12.504875306108923,20.496214818043953,15.860115333194166,35.9282586012046,41.591255666614686,20.39875922363794,25.847329544469584,45.31251480741273,37.0539415614236,37.42964479300717,59.608134225970886,53.40811310927275,34.56693503066027,44.491546204383255,43.759364690263325,16.966569336057617,14.618653499216133,22.421812279616557,-0.9501125900274126,-17.058108411839306,-10.683537475803401,-30.874974781843132,-60.73587674356836,-57.944406535106495,-62.57492815203726,-90.91939301744017,-91.58661439085544,-76.35541493509123,-84.26230658251123,-77.82386360050529,-46.57231712876189,-45.08436346194612,-59.290615956998494,-44.28410374741179,-34.13190651720119,-42.60780293350717,-22.536339322041286,6.471203473335513,-0.7701100672088588,-7.113997466709288,4.273969775625407,-11.615939522046286,-35.10084544417505,-22.94084247461278,-14.031305300875553,-26.10974619502811,-13.782531771511845,5.541444495474283,-7.792682941113567,-12.755765008514834,6.765749292763507,2.133436057725606,-11.64317191167066,3.765020587660082,7.295603855133873,-15.404261738833954,-12.828693318075235,1.608149056490853,-11.79430893011854,-15.215623340715137,4.1155070997273935,-3.585110364400176,-21.278735423220915,-5.791043383901012,4.408621448577855,-8.101498929591225,4.059298325186149,25.367293190878236,15.789694958407441,16.201466276656298,42.642054249482584,43.88798145632882,32.40778701195206,46.636813191248706,46.78506346455756,20.09082190212734,19.876465211683744,33.10278225339994,18.699915354107198,13.243972500399929,28.78264134407047,15.583478678707735,-7.72132832421293,4.194799028005813,14.96336742295605,7.479186388189511,24.796845612906683,46.269040403087935,31.456349990905046,23.70497815667177,42.59987879572753,40.767839046679434,30.547078886433265,47.07012779095258,49.04298091424262,22.745025597397017,19.090202657478393,24.281373806264835,-0.5171966615387209,-15.307310584969388,-4.893294663609806,-18.155090716533927,-39.6122051765542,-29.31517516711787,-26.167448205561577,-43.74572464688806,-32.101419952005884,-8.097958204469013,-14.926105265007182,-15.690266356558347,3.725475855360381,-3.6566507184727843,-18.276736850241672,0.6265261839973864,10.058043033754023,-7.490848827826431,-2.6837421574523876,10.818496014863534,-3.8721476425988595,-5.483080702913028,18.274909188717462,14.198669528754614,-3.2337771617857047,7.558574317210285,8.7445913777507,-13.096092135899239,-7.634679657006616,9.61554950648652,-1.5461188423592693,-0.3791970311532906,28.292631442922072,32.06871583499379,22.164208299560425,36.697543299544435,37.73820056912626,13.982033064772406,15.574935078597889,24.559639954746007,-0.6767965656069137,-19.1522048643277,-11.821345705764159,-22.805281326189675,-35.2358760503432,-13.154646162355611,-0.8104431948498418,-14.810322421849925,-5.882064719874073,11.637176940300764,-0.2976433809144403,-0.9226529037636397,24.337493111162857,24.191209578619645,11.206467587725633,24.52305407866456,25.55045207938233,0.6534335060780414,1.5281626891419293,14.945806151987068,0.7212027113739747,-2.3126867652940097,19.89462976461441,15.71053076759355,-1.3467103473379876,8.796980507208403,7.7051361658240936,-16.157619004255622,-9.381791851127986,12.57307865103504,6.369868659906295,8.66383300145323,31.509416342566954,23.670467481284255,2.0541850880763928,9.439123305455912,6.31212509328195,-22.21252848904043,-23.182040066117764,-9.095501602888824,-21.305642163081874,-22.389629534815903,0.35647502563402256,-5.548339757111869,-25.328486139752957,-15.695146700463525,-13.382064805895514,-33.34067544778172,-27.128892236064686,-10.092866458467846,-21.95600686436869,-22.935283298301982,2.0127559420712835,2.7343828398297365,-6.887822788586216,11.866465682006972,18.62134442420383,-0.3334746311357666,6.8384086796699695,26.03511243026932,17.53196678147106,20.40034549326352,47.013552494170604,45.05715096826299,29.204600861744908,40.53180705521001,40.34797228008072,15.90909326501994,21.46506262633369,45.25636725310668,46.2581345327024,61.79382365250652,105.3420398114914,125.03185852192834,133.2561010582881,167.03415570177063,182.71720070178412,163.87988067745403,163.34869305915078,170.3840392041323,146.8811802782586,131.99295715755215,140.8521599472911,125.35496137105116,100.41273084086595,103.38425872313337,91.45908847031355,49.447851679430144,31.405835564178012,26.630671095965575,-5.239701236712946,-28.13951525288992,-30.14657782625676,-60.07577143733407,-98.211404512786,-101.03400688884095,-109.12455261990686,-140.28153297788194,-146.18703433806664,-141.13049887620514,-163.07049588443763,-170.9570143984907,-151.52809694511026,-157.9541196358217,-177.06126427898852,-168.34234243404407,-169.61449508395128,-193.81606981507963,-189.78440123905733,-172.13867994025009,-182.21528458342715,-182.10656863544094,-157.95927679581035,-160.9335535019778,-176.00057603041,-159.54547293545605,-148.1150467499581,-157.43278529487293,-139.8369898394577,-112.13480598766827,-116.61645207373634,-114.34372542595072,-88.197222760805,-86.30811239537898,-94.31823966456068,-72.14807159483294,-59.108029172949124,-71.82471339392934,-61.77154832989018,-43.35610583456804,-57.18022142828641,-64.44748113232981,-47.690908665179336,-53.38926094218876,-65.9079836002585,-45.10897749779798,-32.00109531961069,-44.854769016775776,-33.60153039309536,-9.887229670926306,-13.758386821130273,-8.23140259775709,20.78364558987078,24.832334216402337,20.831546268252048,50.31140043955051,72.19484898284412,66.5603490927945,79.68687166954834,98.31805562436688,86.38976445985504,85.47502339798618,109.26653622937351,105.09808803412332,85.87919128194198,93.36368837250949,93.82913831346936,77.18014576084568,92.37069783245501,119.04275237020413,110.53633959134103,103.75795873931284,117.88955245904145,109.18365479070208,94.34730027835462,111.55885763945739,117.88276799010507,95.52994865812215,95.08571474545644,105.14707949737108,87.63753963093232,81.90079702869613,101.70699970306933,95.11557911410881,74.81592650771591,81.14796147077556,77.97164501618516,54.22240405284586,60.927419507530274,80.85665788102304,69.34358787845005,62.28761943347884,75.14627031392523,62.28532971232166,43.07280296072605,59.69299956380199,70.30352420327107,55.06387903996195,61.289164666448016,74.29039389808597,55.06285428428455,46.06869288783448,64.7249981926232,59.74352214544113,43.357537060141844,54.88650928041906,54.07578782760793,25.75019709959762,23.037438151038156,34.88223637119893,20.103628026678358,15.089802853089703,34.18700960905085,27.733001936611064,10.69241872267628,24.878912643921023,31.336946954975115,12.350664038720106,16.18914795618072,29.948652612457877,14.718976832885161,9.07744422420392,27.36462596565952,19.23322563643336,-1.3324195542098831,6.757801095773231,5.958469557037581,-18.311527285060432,-16.583432035181133,-4.64014626175965,-24.38433177868157,-36.17430443478861,-22.21068716778671,-29.81896912504723,-43.78938864580955,-25.390259372923406,-16.74428757188557,-33.96152376008096,-24.87573102089823,-2.821924925693012,-10.824039260615844,-12.84009931467504,5.428610162918596,-5.1430989448578766,-28.27607744922884,-21.99422051226322,-25.714603200314777,-54.46226854746069,-55.017718435878436,-38.674265546723454,-47.45282486261238,-47.10690807278226,-25.297743223891025,-30.53774496425442,-45.48204317942217,-28.54138054840198,-20.01529588986474,-37.41526018942184,-31.388970463268308,-13.545964089452767,-21.750559904469036,-18.06395090830158,9.84828532148783,10.134205064825078,-3.3293578076992816,10.593962790239106,13.588748736140834,-8.36573604422507,-3.179578172971813,14.563155109070037,1.1541556168581906,-6.449625665066244,7.270888701494898,-5.398809466603499,-25.686456318043966,-9.740234796255274,1.5287891700735676,-12.8003260309212,-6.7119690655046735,5.583953794864982,-14.60658118410585,-25.27991196556069,-6.975532130134761,-8.78120509426473,-19.897946504407713,-2.0938757740219085,5.682399285309957,-12.762550493274986,-8.624257336189135,4.3134756626325075,-13.896999979980352,-23.82578627371034,-8.382639139770726,-16.994502440042346,-37.589022976819955,-30.670840821524955,-33.92899924154473,-60.593773642542914,-58.908505300192274,-43.76192119966876,-57.68829169166749,-61.606948855152346,-39.020736660932144,-40.09530354269899,-52.04398401474589,-35.72581629393645,-30.094220352344653,-48.71840554766609,-39.579612289099614,-17.108144936031312,-25.01658677398939,-26.99865844831862,-7.131229968000392,-13.927447514587442,-32.91034716485311,-22.751033101840527,-21.36474261337106,-44.164178927223844,-40.74073623586153,-24.437889231241307,-36.29576438916432,-37.664789388573446,-12.019611033323828,-8.762002330100207,-15.769146896446147,4.316984894331229,11.18370432387055,-9.317906689533128,-4.265192647351379,14.095047234027057,3.0609702937458225,-2.365751756656036,11.492760959807509,-3.9325664189873413,-29.93607230731892,-20.965573114920097,-15.529654321895762,-32.246883416841946,-23.993309768081136,-7.320533374293257,-23.85311801827826,-31.518894633946786,-10.386569191609343,-9.910001939895059,-18.964660097227007,-0.019578007428593835,5.828074353748818,-16.48538412645177,-12.73083895163022,5.350992468989542,-6.913805865232888,-15.233265848138181,-3.8361861404184836,-19.20654004197601,-43.14150336632548,-31.70401405638305,-23.71702638431673,-38.35605076952625,-29.432655620373378,-12.198665784240255,-27.060311930459264,-33.80346342525806,-13.787346580827398,-14.925509741249094,-25.143747970754706,-6.978272274673826,-0.12443335042042696,-18.616070827189894,-10.026859632929382,12.080035167074175,3.410103724540206,-1.5556373871146678,12.244746397031847,-2.0462320189410264,-26.340494876549215,-16.40798480381691,-10.985157303927393,-29.5902321255165,-25.52342064609803,-13.446792335015587,-33.68266427744188,-45.0089982542274,-28.135398778047904,-31.483176603549463,-41.47887627161609,-17.901880600521416,-0.623984563059341,-7.3235077334757905,9.931558478555052,36.28731837151041,30.61217332191884,31.444964997507427,55.56970049851282,55.15367704562219,45.41803299503986,66.8783095395248,78.55754635810885,62.03821188251868,67.29056112610343,83.02308208381649,70.49223813141693,68.7031847088494,92.18946018631061,89.21314938651102,73.1192500499557,85.02729884768904,85.09069221369433,56.77104699656274,51.62817440428398,58.08929354502557,36.17971835998749,23.06599800256557,31.82035772062719,11.053286809174061,-24.465764676876205,-30.52351516306292,-40.99847912302883,-65.49963270450249,-49.32637861674225,-9.233673023791031,3.9012870091305145,19.195441167676144,49.27198771545048,48.38828649279931,37.11459935744192,58.36539098635602,66.9780223053743,38.082184896960854,21.765406695341362,13.838431309974263,-17.84379586879421,-30.691294355962782,-9.38293936185472,-9.033103230569193,-20.710465431596397,-3.0873868451938407,7.393683650758995,-5.869626461855677,5.017868499594806,25.587453619231525,14.856689982088572,11.411938019802013,31.56614010205214,25.83593505682679,7.5590067665849885,17.20626135101689,16.56874371953804,-9.03960155280848,-7.839061444020416,7.266421222097639,-6.005053240922696,-10.420137836104564,9.137500630571932,1.8657323376507335,-16.862707003784784,-2.01199887971684,9.034122517572317,-2.7217391440690673,8.168083900604945,23.862972119453985,2.2923326448236487,-12.826228086668939,2.806139845923001,2.9045427308874148,-2.8899248441743635,18.489177263772646,21.799730794399625,-9.452929947171173,-18.801316579872736,-12.215252368419835,-27.70450605293398,-29.134349799994794,-5.480782731998852,-9.232484414766397,-24.449528940908806,-6.355895958573123,7.521666090393343,-0.9023962517917123,14.997401809117239,38.72380837177879,27.581248355970416,19.779723152991416,32.36485249155254,18.045189381992405,-5.146917582066946,8.524190504867676,21.895306000522094,16.80938604238181,42.199555974959694,84.69320354117188,101.3535996230509,126.28892130864911,169.3158105873032,175.95662476073912,160.31580586902223,167.32991052861445,163.24427409526487,135.06564134472177,132.50566199405586,140.56384043598834,115.84806222530798,92.87634351020765,86.51935364028802,51.03144388598558,4.749196372563791,-9.304851336617556,-29.72608740974074,-73.74524906793656,-91.24873157591523,-92.60328510524528,-116.22538621846223,-125.75734690988995,-110.08800419259933,-122.02381540570775,-147.449130872455,-142.91067427611586,-144.7233728917477,-168.30494626351933,-163.9776249637584,-145.85950146064144,-156.31565813140688,-158.1358986040597,-136.24314454231143,-141.6631970481516,-160.23353456052303,-148.51696228078012,-144.1050251367645,-163.67395520587746,-156.91452953510588,-136.5588215508094,-144.10228406181028,-141.9206817346448,-114.13580866809329,-111.17170351815827,-119.54158873618117,-96.47212856761445,-80.06735404244776,-88.91081813208145,-75.0075165295663,-51.882325983938536,-59.957915661021204,-60.20001240035336,-36.94636992544373,-41.26399710802276,-59.45297545221038,-48.35989415665433,-43.78451620486477,-60.01136292899627,-47.42926518081675,-21.700743112129373,-25.627080061461427,-21.224248024991745,7.059301946122227,8.890453687882372,-1.2832101885510943,18.19652322220562,27.767037819015375,10.671078228279917,17.300525501027536,34.81127793927313,23.496854830188695,22.80335420316233,46.96571227585568,42.596788989369614,22.377189569782974,29.847345560582642,29.02959673235158,5.3797184618615725,9.805326115848288,28.195192778220974,18.934007691580675,21.6309458047673,52.220419758546164,57.69237817933522,48.90657077861272,67.14923220315893,75.71705688690349,60.372444920806316,72.2787276916115,97.06788682948306,91.57376045057293,93.81694790365192,120.41097174673115,121.3661402129413,111.21805788930584,133.36472666162558,150.44907981097055,144.95336434035417,162.98245871413067,185.78871031673162,169.13731970890626,154.07442680992386,163.26805615972745,150.56261680431706,127.45443865354179,131.29019301349757,121.67971422049206,83.72380549237387,72.18578787163962,77.920818285992,58.881495586356294,48.735572101603864,60.20760579951297,43.479504430598254,14.33557937493967,16.492706835771017,11.743425970455888,-18.191527758361445,-23.789058503622996,-16.210034788028512,-34.696347312777775,-41.169826228163345,-21.60335816168818,-28.077994706203324,-46.12272373378109,-30.316279653602802,-16.923667159015796,-24.97196071842753,-9.07291330199851,14.615519534923555,5.23046624962657,3.451734764920909,26.667513089437342,23.209887751429278,3.77582200919937,9.35075655415322,4.745407669601088,-21.858105636704828,-17.27911910546924,4.791841054851217,-1.9720941243497583,-5.175324051236876,10.353441784623413,-2.312907189599784,-26.639238007278482,-20.08453037838185,-23.0647794947694,-54.83847453200335,-64.23842124894409,-60.23017858437988,-81.5646801668132,-90.43457057268787,-69.7264183392229,-63.53051662020905,-53.05664569024802,-0.5952741057647231,43.20665256984914,48.35440719598111,59.87489301089444,73.14110571022836,59.37451689114247,60.24665890294959,85.63249782479743,78.19845346507195,51.3160210299539,52.87867559600907,48.93712787916934,21.059343824298246,15.031338292428984,15.927734359422423,-15.038844451569673,-33.92516396654786,-20.930952549802285,-27.996753927840402,-45.27668665241829,-33.00127067678844,-30.101890167239326,-52.89082725898005,-49.462623836136586,-30.724496846833397,-38.36402823673593,-36.53822325655187,-11.222073939886558,-14.741393826306682,-34.150055942811406,-24.764655966225988,-21.766647131750602,-41.22439955016357,-33.89743172572468,-14.744755063186584,-27.861224857109924,-36.10762614339687,-22.378569467149916,-35.76689669696598,-59.80761875021162,-47.690496554721555,-36.060888255591166,-44.77327972643079,-28.21449138900305,-3.9361472049596475,-15.780526034119973,-22.221811977998215,-1.5363249011774265,-3.123615583464147,-15.632123205267563,1.784424877014347,9.715036057631393,-9.572042257102012,-4.655247636070576,13.343807359220964,2.3146409095066005,-1.358995368476577,18.474697034795266,11.61509327906103,-8.574490601628176,2.636899094579846,9.078435421716687,-9.83366154018816,-8.74632584055066,-0.5670085011691417,-23.745915094773174,-35.99320083504019,-16.99548293055611,-18.324385734249496,-33.24317480799378,-23.696087305854675,-26.85370467165704,-56.521133428202766,-57.290932669795126,-37.542093231319896,-39.96587733338394,-30.785877004899277,2.0265925959940763,3.8291208727003,-11.849353827868423,3.171401480041016,14.54791665905283,4.38553899716991,20.943820471731392,47.69506633945812,38.457195854116605,31.31731928678707,46.93461305952811,38.08790317448703,19.60899572469502,35.02507290048516,43.26929844084258,20.303225605713905,14.146040276072522,16.82453857330506,-8.442290546878265,-21.16443950293706,-5.362281901735851,-16.820836090190763,-46.87954326133829,-49.75038528987683,-57.08620762689243,-84.61150315667383,-84.87018926606937,-74.28865491834121,-97.79748853924758,-115.9722615261561,-105.98366698429666,-115.02626042843815,-131.9953987963615,-115.52317307994761,-103.09464751537718,-113.15355464436448,-96.83235445696037,-67.93670447928083,-71.83935643334021,-72.49716591440861,-49.27378659271392,-48.04832285285727,-55.33561723700814,-30.194320425412254,-13.000786990654735,-23.88082253346015,-13.037333408672433,8.64218720764282,0.09663172283771893,-0.7056033623812601,22.972908394835386,19.884849598407243,2.1392549708227797,13.073598237250991,17.403240236124798,0.7758622821467007,15.218352681451956,47.34026721952767,50.37134998822981,56.095157182234715,79.63171519588404,73.29386161274064,53.26462687604375,65.38481661015867,72.96849700362918,54.79298700765229,57.30561139731162,69.1604610984069,50.343104233623166,38.355366531435635,49.955111732469604,35.22882778703993,7.683107586383165,13.488920481468673,18.325143903912902,1.5986358753489878,8.142427871287339,24.92699952743917,11.823726349817742,9.17702576648184,35.82825842949058,37.76830870431672,22.83010140107124,35.11900962865303,40.51889056289018,22.423453625863722,31.854396184453133,56.38505034891182,50.383820741908394,49.12313766919015,70.97535448160673,65.84285883756546,45.643081337879465,55.40935559225647,59.41228210897502,37.783874745918276,38.94120626159152,51.69976804594282,33.642184814680306,21.703495217287283,35.6343431361351,27.011325918709975,6.140294177919242,13.860067508699737,13.116429167970175,-13.416434598877991,-13.987850101769695,2.3851628597799577,-7.4685123355097485,-10.836578681145202,7.8935621592367395,-0.23727294849214786,-22.987929597016194,-17.715918017492744,-20.06287694268545,-46.19015068632209,-44.67751241280893,-26.481404685751336,-35.39748889101639,-37.01125980425035,-14.650485239879806,-16.554785738736605,-28.54030995825987,-8.528601152888498,3.5276575291798515,-11.687231226524421,-3.1516544354661162,18.629385231843557,11.115436255728463,10.214222081255626,32.41266537819074,28.055766968675336,12.210954200027668,30.930616155863277,46.54373737212087,37.086214867752346,48.83953194922806,68.35845557564734,53.40311837853486,43.594595135923186,59.763081213396106,52.5514987851044,33.4689654080606,45.01216472767858,47.772607603167955,21.407055234200637,16.870999609236492,24.313154132017512,2.4417509477864137,-10.400711210755215,2.4487176390696277,-12.71903157213952,-44.273813078019224,-45.022219803328824,-48.929794533757615,-73.2622681781476,-67.82227675119074,-47.25481558133663,-58.45986783188622,-64.50744833931515,-45.400360607680064,-49.94277740792293,-61.88538846815975,-31.878410615265512,3.37630550483534,20.71542842789342,65.08060491725664,119.95135155832654,139.96170407843823,162.45458274502997,204.0166491571128,210.5698151837459,192.38904248279817,196.0435414468721,189.73377617680717,157.998531342844,150.77191997699362,154.47263504585797,124.32078123115981,97.74185372903584,94.7906939488714,66.16946813411775,24.157143728520236,13.045811355097799,-4.26121796842163,-46.50634431297489,-62.472003834918254,-63.59935287461967,-94.27093904186124,-117.2832024717287,-112.96727021350176,-130.95448546518764,-158.99527879000613,-153.59592126181207,-154.17106889670166,-182.7378693302639,-189.54247928777525,-183.76805603274553,-207.03025076038864,-221.60198369756364,-207.61417899736776,-214.5231033527184,-231.49154207959356,-215.68945405103568,-205.16138140525044,-221.2643677393412,-213.21729365347693,-185.67552500447476,-176.02228712908908,-148.26298590060685,-90.16676149582716,-61.470200534840075,-57.86640204540158,-33.66773333282817,-18.42654369281688,-28.420990604940652,-16.117532429128467,5.105835249770805,-8.10472506334002,-17.438023570366006,-1.6154422158147357,-10.224072470812299,-33.748436448645755,-28.651615094716945,-29.827418432279263,-55.460004374111186,-54.95514638805311,-38.25080591042317,-48.58287267297779,-50.03085811621431,-24.33183759239217,-22.761288332257035,-35.344535457733,-18.193001430313142,-7.367909923930722,-22.629142858543503,-14.489266782809235,6.680556045156394,-1.945522862415288,-3.795479931569698,19.83585180653989,18.54676458289849,2.5017989950932664,13.986734472422196,16.46898462575374,-6.592936369946109,-1.129150011777523,24.25509400381153,24.264582396764382,31.279276804835483,60.80262168426539,61.273785380894466,46.04117818918024,63.81571446226987,80.34175570743263,73.88769997261232,90.3187195389679,115.49622254732628,104.8853188973039,98.11812576874148,120.01778964101709,122.75512012764682,113.77647719991421,132.17679645584067,138.73445900291847,113.65393028644108,110.57070428358394,123.9768051331734,111.35878944415231,106.9231541269976,127.52735628887817,120.59487224886497,96.7027807695026,103.06860024044866,105.61578961921619,83.5482614059374,84.80115529621966,97.29699145486882,76.39540430581368,59.88073576343728,70.04525310663523,57.828370426550514,33.730260900999134,41.6013064277156,43.81106812610569,18.67492229886934,16.195828484548265,28.73448124699358,15.138410611495871,11.868047666106962,37.04874383279519,37.663919557560334,21.230483355514536,32.371239960402335,37.39817282302497,17.09228252746974,21.905158275551262,43.44457785054134,38.485645103698005,41.016821395180195,67.14022309537188,63.03773228962886,37.11346483533536,37.34712699590975,35.276108077214445,14.419938815126649,22.847712729510803,46.282940492775296,35.67666857578783,24.883916707698383,37.09324467841847,26.952180627926644,6.457046650578146,18.914345809475527,25.670566692089903,2.6642228168347195,-3.299783720206786,-1.9837000347540337,-33.570487163765705,-56.1405991659928,-43.38638936837232,-42.18912400761045,-45.734740479492984,-17.516643770623794,-0.7215883820848834,-18.207056592270426,-16.463952467669813,1.2311232436429727,-5.914652651889088,-5.284365832599943,17.178347969826103,9.068341715026563,-16.424163522910565,-9.44552215998079,-3.325407703889888,-21.616165252389475,-20.015772503213164,-10.285624797683257,-33.51092266110385,-49.90362033914571,-37.21579747816844,-45.33206189520093,-65.81357627732648,-55.53236831463296,-51.074004210677465,-73.69027018965058,-72.53710056135805,-54.57817432244652,-61.2972257428077,-56.68457833504333,-24.72860871508199,-20.88888031448344,-37.211141854024746,-27.683005646977406,-24.77271277586455,-45.48566414902799,-38.857810905135565,-16.554176626062866,-25.311240334989126,-30.126589240137623,-10.134635050319226,-15.345856812402234,-36.22250045020642,-27.156928899105885,-22.344103346352725,-41.97158124155042,-36.41954432016656,-16.270825945391337,-27.771981837249395,-35.588573436690005,-16.44230831316992,-17.83626650944551,-31.133183059133287,-14.457184032336519,-5.443699019340496,-25.575662847997172,-24.003417020517276,-8.020528208633186,-20.37771548784245,-25.42415618505104,-3.9663095038288168,-8.17661664073192,-30.272115356720196,-24.806811371106924,-24.18001076873014,-46.78434844202118,-42.391100988497755,-21.736720113423466,-31.892493698807623,-38.79039553982557,-20.054232025790593,-23.63355855975639,-40.50249728958452,-26.396693141807813,-17.19217951606837,-36.470261934309754,-35.71440437507094,-21.254235202518778,-33.89310146695225,-36.538161942098974,-8.816013508857228,-3.067317941022785,-13.141741375868254,4.956373816022433,18.657311663718858,8.596367483664867,21.541092744710916,44.64132663233334,32.52415660644063,21.99515714316179,37.51540736740761,32.52179331101386,15.903552549330797,30.156085987036874,38.39638008476654,18.579385986914094,20.31263928392232,34.531034461804325,16.039490716412313,0.8637845389214123,12.300356607794763,1.4688949910572502,-22.932789499135772,-16.976499602673627,-17.32595516699537,-45.12809909325753,-48.881397103095,-36.94460544666863,-54.5272316634412,-66.3465645978928,-50.81299573507892,-57.81737598107343,-78.89518615481994,-69.32058913679433,-63.559041809834284,-82.22855373135737,-75.64106002729162,-53.39596629261359,-61.54650590677156,-65.47672054603754,-42.32860326956029,-40.697080298797445,-52.695106398534676,-33.489375461471376,-16.382328206313343,-22.419418351178404,-3.4077445445017043,29.9124082415024,30.183635701101352,30.925051342434234,54.58620211190849,52.5047509471074,33.49500183711782,44.18344817439845,52.427618317838466,37.54464553636238,47.31467641737236,70.34703722300999,60.57880037268876,54.07806435649018,73.52675124745639,67.75109375992584,42.906128033702664,43.70216408330671,37.80298504286606,8.29702386849086,8.097240842524167,27.289287302474424,17.75163155469115,12.390238630377254,32.00528649901959,26.87570726680199,5.727629006392779,14.04522366083002,17.781461701932965,-4.841204569715977,-5.177138359117164,7.967705418045464,-9.872875169938737,-22.655978794276667,-5.674133187242047,-5.349390892080808,-13.03149155007901,13.78479068639284,36.85388797939192,30.34502518412302,41.030996821635796,61.48091236084515,49.658714753709816,41.853870324455436,60.63068429702027,57.4358791406118,40.48969970544703,53.62091044376259,60.44789356483767,36.89679821999643,32.05062254259116,40.646650793208636,21.297152577969097,8.963958196938666,22.908986258597594,11.977305338031634,-14.41384269070159,-8.701203964264213,-3.903316494176961,-23.48222201213543,-21.19370290730128,-5.749159364961138,-19.499313834721242,-25.5950903364315,-3.2664601815411114,-6.043285153580026,-28.136040687111997,-22.478817264496,-19.58237730848966,-39.00904098882277,-32.182832265059034,-10.491917734628785,-22.273892090253344,-33.794457468683504,-20.256557522629247,-27.800390268661484,-47.53094218309352,-34.46794238303022,-23.507577281769706,-38.47545110909952,-29.90397752836138,-2.6067740134714823,-0.16366502759248824,9.052129496172235,42.865154737689636,48.668061214481654,33.59761601817137,45.393566178196394,53.59027596223352,37.17066935899486,44.12948576320126,65.24848941074231,54.70118147492179,47.433242020120375,67.74049843800839,67.24869729973292,52.619414253549664,66.60250630617611,71.66887359410423,43.30952112929108,32.29248735302489,35.03745381951903,9.530270342158301,-9.948613945316783,-2.8450445658886725,-20.714303547182908,-56.51241951064888,-61.70828213062781,-66.120614671082,-91.08290358554753,-89.08582036897087,-71.33172704738162,-86.64006302808468,-100.97169140857704,-88.27291086278456,-94.14813443148358,-109.61536020448979,-90.56192491800385,-74.1669212679908,-85.70083679326144,-76.23291131390626,-51.636651517079756,-55.23085109884829,-52.339745106527246,-20.195968058285725,-6.996537277896155,-4.841915489962022,31.955866415367463,70.72438424587239,88.07861599612977,129.80221900870183,184.6589465816641,202.83846450869646,214.59302261567973,243.14763481834848,241.6625456958154,218.20774943439267,218.65762471383525,209.94398003342468,170.35914147400447,152.01263613821672,150.21298199126002,118.52136241661961,88.44937202608017,81.95537312482236,50.36721150261208,3.0692644524580626,-11.587531274925858,-25.371134507910522,-60.59971447792965,-69.85153593723764,-62.82758753244612,-85.86729273642858,-105.22646577462241,-97.18404869436483,-109.33097943413982,-134.87540785736778,-130.06595303823997,-129.22548615444796,-155.26209527709256,-158.90340265273255,-146.7597858162499,-164.0807477522215,-176.79132350886945,-161.1156056509423,-165.9770587031726,-184.28337649340844,-170.15827999242794,-157.17704385848998,-168.24409784883275,-154.60615095264174,-125.23021928842394,-127.37698767513317,-127.28864705885226,-101.53830729933452,-99.07583227512892,-111.8807334089747,-94.02190476288757,-80.26581246604735,-94.18290837316546,-86.44753944150615,-64.51637364495855,-73.85863892776304,-79.42464064826355,-56.77791594218763,-55.0946303098424,-68.77604048274593,-53.43860945175124,-43.045172074969855,-60.61306730088547,-56.01823819165655,-34.44917949042504,-41.45220232076237,-45.71814672173278,-25.013905156933955,-26.691514268570543,-41.89296807178461,-23.912027177210863,-7.152674197866294,-17.676019340921403,-7.755863451026714,17.627998478377695,15.816516322709221,21.034154406454135,53.37398855842511,59.871533585965665,47.28737510758896,65.0957499925499,83.01831708426577,77.59078402645748,95.97551073555522,129.2359497055675,129.83986459614533,131.32594433669476,158.59334934615535,163.08108236484455,151.44218730803226,170.61955133956212,186.60995674224029,171.24748095329608,169.62311517195246,175.27207190894703,145.43419049070963,118.79138218338036,123.70994206601563,111.29275739722547,84.2850537662178,84.39725123000828,76.04205126389199,36.02228964157628,16.502470964484313,15.62526870859242,-9.140277956933852,-24.387234441399407,-8.339066510713504,-12.387721392461144,-31.93720433794961,-21.138983770074475,-12.529491316830311,-29.717907059933392,-23.313553155626195,0.9343413350062146,-2.740244421412833,-1.9611711979815267,24.95293856416036,27.296210187446295,12.041949353994642,27.807981725003213,43.5543819864187,34.73976643864376,47.87831612908191,74.53041605602357,67.02087808173107,57.759491367240145,71.83425602570698,62.584079600144364,38.451456793933474,47.59071566375981,58.30491552287964,45.230897335382494,53.40649229515001,73.2438265082678,57.742036442659334,41.278445781565814,50.553186431407525,39.776538778534984,17.008847371494987,27.66149466579865,36.66580029453713,18.238822650096154,19.989695424134382,35.25755999977765,19.28682088206275,8.078600571576263,27.943344126552965,29.254806350092565,15.100777007382879,28.25749663638085,34.3331931154305,11.587006083946171,12.886919934563986,33.54599813400983,25.614496220783924,18.9045661374235,35.2302964418139,26.125423769378468,0.5095966004927597,7.385432073515906,14.54182809494362,-3.9304069345532273,-1.9308679496970536,12.23974320395411,-8.151552381163391,-27.939480435090886,-18.93371536530234,-26.67877047083628,-44.06220810618695,-27.40139454779327,-14.710014495917775,-33.585110602747264,-34.46268883158768,-20.0874990743513,-33.10388704722574,-39.71217001454442,-18.77516007080999,-22.047015722557457,-42.6485140703677,-31.96345766483831,-21.720272759903132,-37.22647285271067,-32.25430490437276,-14.035912777155161,-27.5486813117761,-38.29021292251783,-21.228111920964164,-25.585986793537888,-46.1970434887142,-35.73806717534478,-25.25027995832943,-39.790125330020146,-33.04288117152621,-13.319855934482032,-28.418027051165204,-45.196993981048415,-36.950046964858515,-49.89383355430606,-77.12507654662312,-72.02257083953772,-66.21573563078668,-82.89939713216228,-73.5743873093472,-45.805974097141934,-46.43750566071488,-40.941746852520666,-3.1513990644972214,17.428285773943582,21.761344186603505,48.29487468072265,59.71833666762947,35.61723853161397,34.191788752547765,54.86450814622726,49.13382760858028,45.60429060709415,65.61501132797225,59.073659201427986,33.97472144005275,39.21190766444623,41.146387700293715,13.633471307612986,5.657100778602452,11.390784170132187,-16.019422426720382,-42.48324339579358,-40.616640769129425,-57.80300350968501,-88.88416060160411,-88.21492929247752,-89.67961181779376,-118.91771980256709,-125.4665131527649,-112.76252461290574,-127.70437295054796,-138.58029434797115,-120.76952372835754,-124.56226607285912,-146.21294620940463,-138.15656178962183,-130.0712827687344,-142.84386201489866,-121.35848292394131,-67.9653933106568,-36.08509103005617,-5.394574654717905,40.13082949470771,51.00001612097762,39.686258370351844,60.11352055451402,79.70701293143021,67.53640749770668,68.5159260250049,79.39934294003,58.237150791398676,39.98095628136032,47.822284597458236,29.455970896419856,-9.565418706957189,-18.148156408520315,-25.391895921968306,-56.321093957079526,-63.6158181493423,-53.30060170802897,-70.73314261149872,-80.88951213238626,-56.88180280345904,-48.67869582569887,-54.6200893438849,-30.12095654423073,-8.152148560429024,-15.35867405341699,-4.728595368257751,17.90055015353443,7.151264866845402,-0.5337605420368357,23.64952333928982,30.20507670738321,20.75365140669708,39.120295657138136,52.24643430351626,36.925656212058975,43.880883782267304,67.06137480127397,58.1226797521861,49.59838626668641,67.62114894280899,64.16101274212902,44.518274960488284,54.03434325645936,58.19520892410844,31.921074381115083,27.234272245599755,41.94445603059699,28.97001900318734,18.324248200977305,32.63259632437497,21.162006780299365,-9.777808132169316,-9.351349799939499,-7.556229614931521,-30.00890936831826,-29.013803592401295,-11.45055505750971,-25.61140528765931,-38.83896955340747,-24.669366138509794,-30.514883909592378,-50.5944169202063,-39.44388095967238,-30.361330991097606,-46.61574285469255,-36.87716871967553,-6.186899487392508,-3.8021397891818127,-0.9863632438257259,24.728829172812382,24.96069287390918,8.046341699026083,23.185050261810485,36.64027959542427,19.396614255692583,19.60177681752634,35.98430880475619,25.090946219602152,19.816631446035593,43.232853172493925,41.6625889375895,17.21184844467389,19.289431233016387,19.658627211719853,-5.543296632813442,-7.831083493534639,7.122480657155853,-7.87073202933038,-19.964093566598883,-3.351491410662657,-7.320643789541286,-26.53493292714571,-12.644930654031896,1.9785222024998212,-9.679042138093326,0.21215183456837483,26.13114726832783,20.625821415907993,16.61240956764961,40.03477275844879,39.97420715733268,19.524821674549614,28.054331566011527,36.73668778670478,20.654839049999712,27.475067243798087,48.67882284505366,32.30213567906469,11.616473220976577,19.705467083026416,12.957254208144574,-4.919081865268453,8.595364665544034,16.959669127661112,-5.532015582371709,-4.83700108184419,18.561440786998254,15.870535399953534,14.450764227387928,36.827603029695474,34.062619110084206,12.679227791060784,20.799755753434127,25.450944351846147,0.840661477431274,-2.3039347763443616,12.804099641472732,-0.6960148976143579,-10.420512660735886,8.996231228617319,7.518215123015783,-9.4285781619947,8.527363722213886,31.79154993052408,35.218610736112,66.38631949352657,116.76518232006049,134.3660944929087,148.4667577424329,184.22911926537105,191.62409192072545,172.91217632965265,175.4955115775466,171.77299387052074,141.50249581354086,136.32934783910218,150.29172029077725,132.90251640289938,114.03619311767802,119.32210963456711,101.12444038344773,64.79060478262387,56.647507066676496,44.06333075459155,2.6933221860409606,-16.823719698308054,-18.538146595935984,-49.12303895534906,-75.49576868873274,-71.58933946831955,-87.77341425492683,-122.50703336951496,-130.518576485226,-142.6617783004917,-182.05088939034835,-196.68234533838984,-188.9333732925387,-207.83414846713504,-224.42922104913183,-212.8758022559889,-221.21428466181226,-244.58333915495552,-233.92436696930923,-219.68018939373667,-229.12842376446133,-215.9759476625121,-186.07573187849414,-187.37117823022447,-187.67604208605863,-159.1383876681386,-149.7568438074183,-157.67597701728553,-138.34831728659697,-123.53048594609919,-137.76653230481912,-130.89074713208248,-105.80422730345327,-109.59435694061264,-111.15532472759729,-83.34785207231852,-73.23105271656658,-77.3234786106512,-50.78354538493221,-28.03013158986941,-37.247086311002725,-28.98120403546879,-3.593162163070593,-5.07297540489986,-1.8592486192099682,29.456740922409736,37.35773320447736,24.585657704582474,39.09745979298688,50.971797328926854,34.4481646000705,37.25403900795229,55.40943556422084,43.295437393461114,33.809878879438585,52.884506324516465,51.03469728603408,31.684413084656,42.273088380468316,52.42687327430809,36.537740860597246,42.97394652187529,68.25243140616978,65.46548457867891,64.88887048211478,90.2456056337563,90.23991602069339,68.25815633474717,74.49758981297262,80.99390494569877,62.714301252563374,67.62073513440251,90.24232577348957,81.81208356642769,73.9333208735416,94.34194489534006,95.31778333517583,79.86349192287769,93.59035926384297,104.0950389619352,84.82722666737374,84.39192067769416,99.80669034700381,85.239107374421,72.93226346214972,89.80215766100501,88.41031066004612,72.2167012570236,85.19411549022011,92.3180525461104,66.49659343936611,58.84619198071245,70.13124064909675,56.349541233444185,48.11599755833824,68.08907434814351,63.696849795106985,37.43399013227393,40.51472911402533,46.977537106584236,31.858023529695718,40.909242870651745,65.44223908433874,53.776400473223106,36.87150415565454,45.444297654061494,37.07665971130947,18.96468434018243,37.758683287916,59.33718965885729,53.5589644887788,65.41130485663759,90.41409827515386,82.71455916534381,74.42111545644732,92.28360048305757,88.2430026935904,65.6232229082759,71.89207341945408,77.15259805315398,56.04487537744749,57.67893552512501,78.38283124724249,69.0910209049563,58.339330828174205,70.90860297250748,58.76467336671064,27.085425569714427,24.38756551028501,20.480638521221895,-10.958470498988675,-22.90511729619809,-19.131319304610457,-45.05684561683711,-68.12790430734951,-60.99226980679083,-71.44492906433376,-97.23896638145975,-93.32012020246488,-91.43907758390336,-116.5782077489624,-117.20921833348892,-94.08952019122256,-94.86323669759689,-91.52447363060587,-61.13187165221531,-54.308012243553264,-67.30160774568039,-50.875484552883854,-34.79476166667691,-46.158318497665775,-38.339075825903954,-15.9868146352742,-26.58105327969703,-38.59057597274226,-23.55018337834111,-26.77165579232845,-43.66815444098452,-29.116671115752638,-17.51032686197309,-38.29853394528772,-43.5181567388012,-32.43822406474929,-47.77336328410921,-57.281234522200336,-33.77728876840235,-25.282945663581707,-30.875647305391045,-6.744418951263613,12.989695716918426,-0.7439847214976787,1.8885022019700104,22.662336656976446,17.190801967332057,14.340443261020662,36.29490684510948,31.753181699663145,4.083868586924857,3.4000463852849547,2.190927581792006,-24.743215289298202,-29.462384759509995,-15.889799386441176,-31.87952323097564,-46.669085629648436,-32.37626134106614,-35.198171176088906,-51.235392758827935,-34.674238785926505,-19.0644017469974,-33.82004926745663,-32.002818535148016,-15.686651726020273,-28.770289123811285,-37.42464358848057,-15.156839454731648,-12.284650215132553,-27.63240064808099,-15.615987437048386,-6.645568696985558,-24.42338556620141,-19.185306770559258,3.852994280712217,-5.154674695094296,-16.068810953471107,-1.247907847434714,-6.817897114496182,-27.587368479192943,-16.4648457923695,-6.389384124652138,-25.56807163127415,-25.924403132591216,-9.538672509121465,-21.60832048697986,-31.032923905525536,-13.342541602443118,-18.162160507197232,-41.5159979948538,-34.13774575692074,-24.487311161794295,-38.483408703284304,-30.55274661452941,-7.4801000132901,-17.154567206129006,-27.096481414574026,-9.164672050878853,-10.379625283084124,-27.013642649118957,-12.574905250587669,1.38997319829416,-12.282644974715144,-6.879743285589035,13.616169108299404,3.9306482139001897,-2.5827569540781146,21.323219150001158,26.381296101831587,13.2961445641773,26.315269403546296,34.747922482413,16.117609003669106,22.302518335505937,49.42153959359156,46.28685887335344,40.0524726576809,55.91469151329938,47.23443181016843,21.501391813757838,28.740748172832962,36.58654533507014,15.216666991344843,10.74243152014539,19.30341298274378,-5.382484099714569,-30.033763361503116,-25.60662802057838,-39.1559363706495,-66.91138101915001,-61.409543872579704,-54.06278754669793,-73.09967666987174,-72.3930675618517,-55.98735335252677,-69.95213994560297,-81.82276445896616,-63.95493704181251,-64.4470544503928,-81.11728366469416,-67.42158048016152,-53.24794364382316,-64.7675761182927,-55.27197593617316,-29.434536235806647,-34.742644578451156,-40.54978542266891,-19.51130805018557,-16.949055997114087,-28.078347849779263,-8.18012863462859,8.747982895603466,-5.6455542853701415,-4.668269213059199,9.553839779203317,-5.005644921498133,-14.714998034317556,4.000303596301306,1.043731737087084,-17.354456977732674,-1.0499238903144423,20.012450735292063,18.829682786770068,38.616813334746325,68.3902041864436,59.276054811977794,46.93100596450328,62.40505952311592,60.02860723735493,43.60247035438802,57.30656962082088,66.75674863528319,44.695958653841174,40.430652951780004,52.870187635683514,37.4553771608048,25.1665964056642,39.84844487537958,31.78569686468009,5.621657296528348,10.776395997855786,18.81402893968817,4.229060880853663,12.277392480836891,35.67568819959838,26.762885205872582,17.677780434061713,35.209180968223244,31.741567836974554,11.597417152904768,21.470421954857656,29.84689985813254,11.457859821013189,15.52149255801112,37.845398814366035,30.996437988512483,25.997864318430942,47.18583925204945,44.53913563012125,23.09587567293792,31.866165682856675,39.797448826108585,20.270564954017647,20.468354620484636,35.050848785845474,17.91953813357984,2.877900938687609,16.72058235788659,10.446306945758298,-12.233011047042744,-4.088013277835208,4.2710141886951725,-12.7886290237501,-8.732941461423184,9.71280539999431,-4.725919661824948,-17.690423392147387,0.997179246817856,5.36920538389946,-1.397417037533486,24.22360329510316,46.31178917168347,35.453765321245044,39.2215405394877,56.09516629454327,43.69640157457114,35.878157981445575,57.218043608884166,56.23593863163946,33.34753191160929,34.1546334617126,31.304975453224372,4.794204927870457,5.288311488112045,27.003951808086036,19.08269944714344,8.44952243379499,19.042464575260635,5.464829109997341,-22.89719847693199,-16.523461130439937,-8.447435701473854,-28.399203703697545,-30.985115659713784,-19.262646274927242,-35.25636051144262,-43.31715659899636,-18.100961979041646,-12.29505075336382,-24.60032574627163,-6.533271352328946,14.039760446042571,14.362616738747253,43.359877736680794,92.95126256972665,111.03290663815909,126.32463718006741,162.23669404914895,168.27479226678471,149.63058126553136,155.00927634167044,153.6466537237736,122.13135570642356,111.62438982110183,117.86156261759292,94.18839330527592,73.6203723096839,80.94189122238207,66.20045544186488,34.0873598064399,30.652707284882425,21.7478637756547,-18.712892330313768,-39.68158139654682,-43.111917610355235,-75.14563563564417,-104.09497234195547,-105.40573992510107,-129.0511052163109,-168.80373484335047,-173.598762631093,-172.78372009612758,-191.33587491405981,-181.88361353928752,-153.1660797290976,-156.08986182643494,-159.65260041695396,-137.48403325057626,-137.34811035586222,-153.71107252827645,-139.8773598782956,-129.0573636769649,-146.1356609934181,-140.84930409645705,-118.75604208975813,-128.01788877807476,-135.99040253189557,-117.1099365001226,-120.93298435423704,-141.95492853222896,-131.8744657408671,-121.7264044332328,-135.1911821380379,-123.91005720378206,-96.64578555778067,-102.35917708877254,-106.86656746843607,-81.76927877921544,-74.55521653359402,-82.5548992668615,-62.96135964942438,-49.46706176637683,-65.67973770508736,-59.9691445048236,-35.29588792600653,-38.877083892143645,-40.5211966668208,-16.55833812946625,-16.198773983073853,-33.88210830827125,-21.233718326276744,-8.952593518338212,-22.83584470335142,-16.229031005936548,5.146147577457178,-3.9264041578809072,-9.191491907090311,15.78051937868429,21.509685941065488,10.134334331808175,26.523205806491067,39.65889787894699,26.517501909107956,35.927141612482814,60.50141889013889,51.50662290420905,41.301573798654275,57.28080546907763,54.463616069786795,39.90845925991188,58.06762874120815,72.81579283137312,57.430098815697974,62.665563415672295,86.72009637917358,84.13063433799132,86.06275439135189,115.07022410390675,119.59026306078204,104.21169547552697,117.25048489260223,127.62263354885123,110.3836078794921,113.45652734023231,130.586570326956,115.14504554965268,99.10712624186252,106.71099450216086,91.48425576905902,62.64619419596315,68.58112748540258,76.40693551760758,58.15579073744967,57.40528915567514,66.71177144244064,43.781835161097604,26.61030634119853,41.07076129144451,35.71676710717399,12.600779750639976,17.275262472760303,21.211501026400438,5.335100699878098,19.57510380847344,53.807206744260995,55.16502611385447,52.23363542951563,70.21240815505332,65.06819670411114,47.46089043129278,64.23010263837413,78.99072050390359,63.22962494705482,63.336393403898555,73.79601402168439,51.991820383014996,35.6926676894905,52.178820820198105,51.5891323610228,36.1005398251683,48.60880330951894,55.23655952786359,33.43485077927139,35.396554550178195,56.85185223123209,49.68483795829766,43.3360151402124,60.19434265645411,51.667215315216495,25.22523661390902,29.338384877428524,33.033519816638425,12.145754084317364,13.898715555440257,30.12044660189796,13.167616230572742,-3.6319617636208017,6.521835887372919,-1.9140291264024354,-21.304594604051236,-6.6822499223595955,5.862933760966591,-10.672972922773988,-7.472661894457502,11.50889938348872,1.9563331946287805,-2.584029012040847,21.20384610388671,22.889890561705315,7.837727459024632,21.89865057336779,30.9357765507098,9.95635751484274,8.640566015578667,22.46696586340538,6.757799331939241,-4.70391708849575,11.664895135715733,5.388192841324437,-18.495544731373283,-12.942906660373254,-8.983676647013175,-30.147550919563415,-28.389986638659096,-10.995419838123524,-25.508650364908217,-39.1524790665882,-25.84171350023577,-32.94379373647011,-55.14660405366307,-48.036093873377055,-45.34211405031178,-69.5928480476325,-69.21928849185824,-50.13547847516027,-60.814401176252794,-70.33295860351922,-54.94784196569525,-61.63023998817765,-81.24630042084186,-67.18286349656636,-55.40826594309166,-72.73738822856174,-69.36149826103541,-47.291188757242175,-49.62159317293953,-45.475905594696854,-16.251596081161857,-15.101859798196188,-36.70277627940246,-31.589150596629302,-26.713125473549578,-42.32578535865833,-31.188265357050916,-4.243843084524093,-11.752976583360875,-22.628407447592235,-11.067085750649763,-20.469798201096634,-40.21045544381583,-25.097873102846442,-12.09476698950005,-27.85563331130099,-23.76758898496272,-4.526419330552979,-14.252763310204527,-19.967147653031788,0.6073550242050114,-2.273231940675168,-22.44228777034775,-14.273915161691727,-11.475784491684385,-37.734409642212626,-42.197052676631216,-28.842833639395714,-42.4949802946057,-50.35598409248628,-30.61247705242299,-34.25842859301737,-55.24883945231368,-47.11904648305199,-41.44212838347122,-59.42666773250617,-51.958120010306345,-27.893090245580872,-35.268578675230756,-41.97081247929679,-23.624504467613544,-25.756634508523838,-38.73626393258675,-18.43698829368656,-3.4810650709632287,-20.754996896556328,-20.736733115395804,-7.125890458056719,-21.164565768563904,-26.543458435438602,-2.2458666635047635,-1.964175475774836,-20.299227455386756,-9.31040236080446,0.9047037851416941,-10.557661239621146,4.517452191626838,34.96036148606374,30.82614459389169,24.48491162157128,40.21684046035072,30.993967665356898,6.849265323638456,15.713652899381778,24.226090870715648,8.88513545027634,17.188248024316444,38.80849443610758,27.17781111035687,18.00107377676531,34.768709454230994,27.13430953649668,2.700464902087047,7.564502962268033,7.433463346708718,-19.05055951860612,-20.84147121924173,-6.7941737107894085,-23.54706661942862,-35.24069979152277,-18.526075233516,-24.64058750502339,-46.42017442788231,-37.114395503201514,-30.974055547858725,-50.79628841684391,-46.59021128213124,-27.008670833851326,-38.425311227577815,-45.28942446937562,-23.904705767285133,-24.359879131524977,-39.976174857944144,-25.24562417391914,-14.191373423386997,-30.028265755770192,-23.00246482659385,0.6077486762235953,-4.24404440552966,-3.679953041072418,23.969398047069397,27.637682521414753,14.370519577294576,30.655123553424573,42.79906249743728,26.80395648710975,29.970106413687777,43.65313020885792,24.034333313946924,8.704810750968974,22.08364309775586,14.366122993500454,-8.117188875093879,-1.5287311469301592,-0.031906500743542954,-23.520974318218226,-20.334097613780663,0.813654016641725,-8.67024989699781,-17.09962323328385,-1.4237443165972525,-6.582585092534233,-19.714509887679014,5.496337046104481,30.801350490395965,27.823554122607312,41.35874165982735,63.022960571569264,50.60657400676098,41.18541882580263,57.98204253148953,52.584632361335,34.056349750656665,47.58147056544614,57.62076754581182,39.52131883363339,39.50743893047493,49.20893155483104,27.374188157499717,13.039324514240036,30.407502468812847,29.031832624338804,13.682843578246217,26.587142077626197,32.77225865163298,11.190878677821976,12.621810967753982,30.006414420588424,18.63102524350819,12.768416049150545,32.87731888919065,27.288247042219027,4.079765218891318,10.15444009166682,12.657560160166229,-8.316966054961597,-2.4925595850821107,18.999711273878415,8.482810036639405,0.9377656841072062,18.467475104344423,12.056339010300874,-7.724795327374443,4.767743455913792,12.982916092175296,-5.975638489882872,-2.4889372514745496,14.963252366840536,1.828365563589255,-6.132252263217797,12.120165984029661,4.784460389431299,-18.86320175863157,-9.725237859996422,-0.3658829140404003,-13.126657506131117,-0.993697327932856,22.489563104438336,9.180343612101263,-2.8855262762777993,13.47117018044345,10.744542525131326,-3.4019325883292693,13.765150244234974,24.437938760519984,6.285014902407427,11.052632337752915,31.161251527620596,20.606315340050198,13.201458771854284,29.719193349949727,20.499550363040925,-3.8053921389575844,4.510556048849147,11.892512165748949,-3.786123216967999,4.822880257306744,26.49580212150086,16.07971065288327,10.818059178378684,33.9727050763037,35.48856273625694,22.748961321994827,38.789847638482705,47.81130079404707,30.65007102851072,39.30711106659425,64.8319957095223,61.93601606795674,65.94723158382723,99.15315936929763,113.16695347911023,116.15894259021547,148.5249424108297,168.77454812584045,151.19369176350338,145.4145206950201,146.49457746784063,115.69841769629866,92.41901186621067,98.22167304581113,81.84057839361978,50.43606254323899,46.58487820127307,34.88198998057523,-2.4278767870635445,-12.487050169715904,-5.531100166884296,-29.373087835614015,-50.29872048065471,-46.90712621793064,-66.7153949558837,-98.31822247518424,-98.14709313979927,-104.32413735036485,-137.93884045873426,-146.4046462834007,-137.00726973445887,-155.44584087018853,-169.08627102241516,-158.58705212538987,-172.13984477913755,-197.23182675948308,-188.50515832848998,-183.12828445769085,-201.9793420219417,-193.1213906301675,-165.5603012949486,-166.00040767362782,-162.32174309795005,-137.3219519132872,-140.98844997742586,-159.08706707299297,-142.4812532818018,-126.64882443963336,-135.10394322858872,-120.96861947300118,