456.95270940682485,428.3308857967038,416.9740420484298,397.11723034417423,373.85280551358704,368.0356065283601,354.14460833009514,320.72717261408496,302.1173823198414,298.4464073532745,284.77530404249785,276.9296463462123,281.6615068988132,269.143358566595,248.29975543361792,249.8167963943146,254.65384536243434,247.20733051935986,252.156884722546,262.12570399413977,251.8597940019489,246.08944993394778,259.5284988604269,257.686684304662,237.63020482106694,222.55461748346116,194.79375712541372,149.07385433742326,123.24228942962199,115.36477253824583,94.25958718191244,75.95974390912988,75.89628536252413,69.25701863559385,59.10545665635521,66.64445070411523,67.26284065427632,44.90170499676367,34.13560974628166,45.76976457772859,62.12260698415854,97.60756583344053,152.63601925816272,183.40326541451253,182.8451460568367,178.07919148685147,157.24228016262168,109.07931365826751,63.78436339131915,30.35551524234927,-5.266892771561144,-23.9404062530983,-17.838194677395563,-26.497017135203794,-58.82227538465239,-79.97426409192165,-84.16119221506902,-77.90955609968506,-50.49930461757367,-29.561646290051087,-62.514037812841195,-133.57273268160262,-202.30299560750416,-266.72405902626065,-319.02388192653524,-343.57036204748846,-372.04321970252244,-425.10509142224606,-454.09919743363974,-426.17824468747006,-360.9673238785628,-264.43007957684836,-149.92829785744226,-71.49428867991179,-41.00785282897545,-13.264828489485494,21.084576731559057,48.39034520346259,88.67511431974566,139.0570546178983,160.1422020831953,156.71281654838967,154.67627821857116,136.30818952489503,96.45017339146753,66.91971064539672,42.387998179775806,1.4332201852816944,-31.168144025185253,-42.83393396414585,-59.201191618539596,-73.11659580459472,-65.41258345043234,-63.06230622272782,-80.50670530929571,-91.06322598822854,-96.37874335684752,-112.83498720657116,-118.95754175152481,-109.10651834089599,-111.55716880163493,-116.9880913797659,-101.65706738522204,-87.6471065162594,-87.00458799733927,-77.32776779281822,-68.50786616946772,-79.73583446428506,-85.43590764849259,-76.03620987638723,-79.78852050534934,-89.64876407037221,-83.49067278209603,-82.18986034923971,-94.61681275831705,-95.29517939942339,-93.02171557290811,-107.96306298105016,-114.92300010849786,-103.86629613633512,-103.34032912646711,-107.69418276359121,-98.05327584622293,-96.83111748190797,-108.65455079249682,-105.11438723134326,-97.09651405975275,-105.27367741924697,-105.11339969133758,-89.84023464430774,-86.87297147087827,-87.19904090022291,-73.14632718717077,-68.87478360664564,-79.32207930256992,-75.9160844256503,-66.91563322384356,-72.05814538716398,-69.95928197861642,-56.05452448406042,-58.35918479400091,-66.71967950854192,-59.04426290375888,-57.57617423566486,-69.86362099915561,-69.15233206430904,-65.26967199467337,-78.71271793263843,-83.97868494767748,-71.37272814298898,-67.57663484755263,-64.34302697007566,-44.34050343347775,-34.66500686861771,-43.32355551413442,-40.13041252639389,-31.36212009906756,-37.47985599775729,-36.3520837556942,-21.33922225133167,-20.661990499955596,-25.156006902854976,-13.707093331258553,-11.30951251617114,-26.755489537250053,-29.978141124513726,-26.607287263205993,-36.28029585134981,-35.51632218716077,-18.06069510410753,-15.61930602068838,-22.33175838753106,-16.03274482547181,-17.065895636065147,-31.100229245525743,-29.575049851634425,-22.94976141598263,-35.37038763923327,-43.279201074998596,-34.812634589313134,-35.828074883626044,-40.29414550147767,-30.15898729681529,-29.039476890694267,-43.00147584331334,-40.63047739062058,-29.34537416270414,-35.78883443686681,-42.42092566159865,-39.74726070500721,-50.47362609321373,-61.75685777785557,-49.846475263084855,-40.047633257817864,-46.108581127097175,-42.228808929339394,-34.14037281404195,-41.69993641806776,-42.978424677655404,-30.444004700972307,-32.216747383268256,-39.774244279693505,-28.660538914239947,-18.467373239579068,-19.109520925250017,-8.154424888329823,2.49329915651685,-8.709959577458406,-16.02984155494301,-5.991352888179156,-3.145583544258632,-2.2419325103745056,12.760397862658879,16.99219642500614,3.312998414104433,2.134918847601636,8.198691849044922,0.29242863125045204,-0.8230132058868451,12.914479132080848,14.606014264347156,11.787640402384039,25.308435620851736,31.87774186321995,21.53467200899322,22.68330740304375,30.67033028855046,24.724732083496093,25.523360603472447,40.305539873720704,39.29512846335185,28.36304583612887,32.49838149030884,35.49367605507017,29.276759532745835,36.93753058160593,47.262581503027626,36.168106855116,25.519256197785545,28.808724585441592,23.673078197508836,18.009078729565594,31.970317551540113,41.774115808076665,35.07879163033617,37.48419846356329,43.70787360569444,33.889938696426974,30.987834017126307,44.563043755736615,44.100679394075506,33.83724041938251,38.58046973799002,40.21542324799967,28.571006526080772,28.80466021042797,32.754612011481996,18.283984095873112,10.208638779172636,22.310346401699146,26.69651890576424,25.51789580364666,37.32110052137599,40.13944090146105,26.358422236306446,25.165930706568787,30.053180532640475,18.830658766267213,13.304888381759191,23.342162738721306,22.317145167229906,17.0410730997063,28.042600128825136,32.442294826347,20.83890105661779,21.157013704479784,27.084177913785048,16.836888525195477,11.922389313443533,21.89869830307433,19.751977037445904,12.18973290998781,20.735651357204823,23.469929163305203,10.931679787807354,11.041823147783179,18.232549279528225,11.003936268262724,9.265155568198564,20.332110999938074,17.10498900510107,7.724647194400548,14.694452966202064,16.988165302598013,5.206640289597934,5.660222358281695,11.622977783619262,2.5152247842668864,0.6472977788018064,14.801830578445404,16.255975347087826,10.829530783981301,20.60039410344149,24.290657089120742,11.913119796635304,10.458380061042554,13.962469308836805,1.433553204509181,-4.782223588235319,5.232562233167428,3.969266805352285,-2.1191114531338124,9.128997923466496,15.894278422561802,6.348128348990834,4.9240713385193935,5.597310519611648,-18.48456742087721,-62.64286414821211,-107.15495934243705,-138.68879825703112,-147.6618010289036,-127.31415943313637,-88.54684245398803,-70.39410551486581,-86.44111108265324,-95.22508642104805,-78.8977941622022,-66.1936106006616,-57.42205850567776,-38.009300022687015,-29.571212887182035,-34.57047974148991,-21.883781756498244,-4.17075156269833,-10.185951089163444,-14.763864392724697,-0.7425957984538769,3.2773880002343603,-3.1197945606795647,0.8211415851191548,-1.682043577872166,-16.49294415926642,-14.311858453757614,-1.1008836920737721,-2.000677044893229,1.507050919301898,20.267662966743302,27.389822254111845,26.954361865448945,40.50612420170572,48.333675073868385,41.94447470272814,50.54578620821263,68.4641696601489,68.60974469578679,66.83375771915817,74.8591576401402,70.67551625004158,63.00193159738558,74.39574211896283,80.96294917929578,67.34815887915083,60.098505241722364,57.85382029876848,41.69294919495736,34.36491316511253,47.952559470404196,53.914930562603196,53.52478874629968,66.2660847685872,70.68506623733653,57.4633544603079,57.580514660271426,67.84847092676333,62.558628072106885,57.70809738846229,62.94080652091256,54.400216211062485,42.13560380160462,50.11071932489614,54.60390289251483,41.141645694480516,35.57588754711378,33.98792128155849,17.614986841254172,10.49502563394953,22.82444136100904,25.286372960129178,21.880124438806718,32.939262076883125,35.85327611284144,20.92426419600912,17.759312827403548,22.085612561232907,11.579019653531923,7.722069806489268,21.393206447718143,24.12397228523627,19.78354890087274,29.718356611010982,31.742729707723658,14.410595660877682,7.037527575120807,11.25806281293541,14.996897559313796,42.03942268515292,92.25647734432783,121.99789212839147,122.79052304870758,115.12992993027403,93.64280272461724,64.86259165903668,59.404660224762516,65.78186549664753,54.907555795820926,45.583700701244275,51.06539981914682,44.41497333853589,27.327322936673045,21.75230497601856,11.689836474302105,-8.724406858366958,-10.789498272490695,-2.1264360510049993,-10.332101110552243,-17.610850638147213,-11.471993992759156,-17.62447830665315,-31.387696999453187,-29.042911491251523,-28.920926325282522,-41.742289377639814,-42.12556663650276,-37.19918139871714,-50.02165447331487,-57.428355217089795,-44.832541585123025,-39.765279553447655,-42.59876398305994,-35.27343368840067,-38.01328879248156,-58.002642823785024,-62.5958474511028,-53.91111159538397,-58.5481686436457,-61.896026704435684,-53.94053602746361,-59.4103230484227,-70.40579189795919,-61.61090129928111,-54.3190327192637,-63.780056705856076,-64.21924039237258,-58.21374870101712,-67.69752031695639,-72.95972091347859,-62.205686606527195,-62.24265510772412,-68.75645696442476,-58.50183878079103,-52.460636570265876,-64.65237127125087,-68.48037651632099,-65.15544811370981,-73.76348979095019,-73.45571107877701,-55.66830779837032,-51.868704865187794,-59.75952479427388,-54.08930555364133,-51.469301494401336,-62.229162122870335,-59.18533828669598,-47.71748995410752,-53.04004727905805,-56.12097857199931,-44.842755656262895,-45.626202950586915,-52.72977256480983,-40.61869671507962,-29.43722201382964,-36.07260721034332,-37.81001918967962,-37.3477539847297,-53.12718555147578,-60.1466244014855,-43.38520173335854,-33.095700480263616,-33.24869698204353,-25.039127394813562,-26.274074971591354,-45.13260185477337,-49.842606500343166,-39.80028786043628,-39.496368091096045,-35.05905375033433,-18.822382346358207,-19.524602162996267,-32.194925431626054,-29.226837074677263,-26.69443099979834,-37.417932583691766,-36.93646279156967,-29.993522978694998,-38.952007846037766,-42.000569198911606,-25.688981544275798,-19.36716440263061,-22.8430775460036,-12.859407613819169,-7.188737867678999,-17.690815827835422,-16.59869522861267,-6.589872755190708,-12.551458188237243,-15.948655537671952,-3.1844083152286213,-1.7075217702303964,-9.65217048920178,-2.23280843029065,3.7477265335849324,-4.3859277998233175,-1.4490918035083928,8.079939584728384,-0.4172131537679338,-7.002374242179538,5.214045105897304,12.287435504676578,15.53518323641542,36.14016150970514,54.81754020069993,60.001435741162226,81.16259893921395,117.4090252577355,142.09766601442175,166.59800555690546,198.20611729945583,207.982836870095,197.476503688249,192.53731654374383,179.86501150548315,150.65730304022696,135.09108892171162,132.0944339586384,113.61251797976675,92.97381077808402,83.2372593475357,60.65976192533488,30.88896213703091,19.72894394194482,6.576537043818936,-25.226981404683332,-47.15783645940976,-57.19933273637766,-78.64143871356293,-94.90919470082208,-94.68358719925027,-106.4352539682865,-127.38507627404826,-131.6075150350092,-137.51728863341444,-159.71703797774234,-170.10308289522777,-167.60340881038462,-175.0519286328313,-176.15650893582264,-160.72122285698902,-157.4027021851495,-163.21867519941574,-151.3249560087263,-138.73431347835344,-141.44063337032318,-135.18702090546165,-121.151903346436,-121.55082397009372,-116.8037096373098,-92.27535471809229,-76.4899870156382,-72.42133590942339,-58.36872925617361,-50.129333841964026,-58.343338400026646,-53.82072974782414,-36.46594565917151,-33.05623176818662,-31.53950482635718,-19.901300014590824,-21.634124786181744,-31.715883869577837,-23.26954703937553,-13.281504474796032,-17.71251067680487,-10.642069518196747,9.046985277481646,17.966641429969737,30.93016103993136,58.14419513670618,69.48915671816704,64.38319359745762,70.01761314106687,73.91492079476984,63.467468284724134,63.9598006302305,73.68824518390686,68.0501005743835,64.52729110977553,78.66490728597243,83.88551687220004,78.28915551278443,84.4593427137458,86.27060058536986,72.25972697650423,71.89002367323145,84.5735170140231,83.09491403834168,82.01670081990856,94.67406876879681,95.42376392171847,87.27183947027163,96.07540671725187,104.26660001607645,96.42621137181746,98.09527185867519,107.37131244027347,99.23763648977165,92.09783827356617,102.1030878952617,103.06334096250026,94.5672049521137,99.80924652878139,101.18230326978845,85.02358582505481,80.24406451391013,88.07408779719391,82.25300750784297,77.05336173690164,86.69395061837618,85.1944450735321,73.42692953078473,76.89528217843474,78.74089522355476,63.90081893692472,59.835836169519936,67.31140095365146,60.676145505619246,54.71480024703175,64.07626842105694,64.32090795975859,56.96234442686811,65.1890391699838,68.1295742886407,47.723653925508124,32.952327568161024,31.256725098545747,23.490033053879007,24.590321521896946,42.60352311593307,45.63711522579021,33.19820014128042,33.312272088665914,33.293779088497146,19.632577871298633,17.450211383526923,25.784055333994715,19.75757070749961,14.394286998544363,22.676725725701168,18.722704612841408,5.4696341365434265,10.736059412427242,18.230538432917186,9.77388356187327,8.596492343406418,14.273682770249422,2.6520433463355033,-8.962758898250543,-4.122593288609957,-8.205986915309943,-20.650434338987914,-14.704223148546843,-6.111737294763669,-13.476686611101876,-14.154103017050886,-6.754598267588745,-13.129628016138597,-16.574137712409453,-2.7626461611729036,0.1952013185132382,-11.506876732795506,-13.176333850666389,-16.319103035849484,-32.374999437682504,-34.83456541111818,-24.45278869481877,-28.112874484065493,-31.962120237624745,-21.01504547549026,-20.0555879521055,-29.03718493216231,-23.26925664235869,-19.036669634250536,-32.168075348296966,-36.09414418487992,-28.720636484682124,-34.035090494447694,-36.00816674785784,-19.520846790281894,-12.544210753988473,-19.240589944058723,-15.997401355274725,-17.148071527307675,-35.91742947349036,-42.85310549889262,-35.39452036513384,-41.57351066379257,-49.19669994064686,-42.719797330790755,-46.50507466695226,-59.431978125785236,-53.58302280522291,-43.87132995557285,-49.11142550850901,-46.08618766182153,-34.415397708050186,-39.48989142350252,-44.682666099015606,-31.692707482473566,-26.218241411896596,-32.08629107451733,-25.517636304717318,-20.644140628344154,-31.780250712326655,-32.36107360722295,-21.94974387203125,-27.515871146538235,-34.51745732936192,-26.23737937357492,-27.087779448008128,-38.08302204607198,-35.484166187973,-35.08889247022343,-50.60412953657345,-53.19974158551249,-40.23931603948306,-38.32454886332452,-36.439750346158775,-23.13498800503225,-25.577447438393772,-42.36649218108833,-42.34424071511823,-35.84622083018299,-39.78751191145597,-33.14107764837747,-18.97375749703488,-25.29495238846819,-35.82914748314353,-29.15410663867929,-26.794705147209804,-30.524680954373274,-17.54993004523252,-6.470244417902882,-17.43798438529155,-25.32446288131454,-24.16790406108667,-33.51876390719305,-36.12804608290409,-18.70049747185628,-12.358165443028659,-23.135639961747575,-25.35360939000804,-27.301055077913876,-38.32168302619028,-32.464383148091635,-12.833502880919056,-10.030063986767436,-12.7996832461609,-4.0295512154703585,-3.850884506837261,-10.053779226794092,1.6049709243459098,13.14254354737809,5.2924855126636645,1.7605335923729357,5.4538924679644305,-4.749547856063934,-10.60763120370815,4.519786415252967,13.147458380619724,9.197493364739348,13.625678407071929,12.116815806050516,-7.2405416441403885,-15.182959600583947,-9.001149404311198,-15.549302059782974,-21.841756570668455,-10.997946285387368,-6.856432837320458,-11.62938066726746,-2.4080449717266648,4.45904129572258,-6.0654624222720654,-5.428288027328129,8.90847532834117,8.761435352057465,5.7817484344791215,16.340319508464894,17.485207147284363,9.582894557234663,18.152193612383634,26.905075062512772,17.19318376102813,13.457604279996005,18.60624326793488,8.402202395115644,-2.117821356988376,5.079063808166577,5.7902948496764335,-3.2277094676810396,1.9729272290578095,6.139617352977071,-7.559715065196663,-11.797890702616385,-1.7928377078779247,-2.960746163313177,-3.2909435189669454,11.306812977008688,13.475744885581378,0.5358157557727496,1.2603986605620694,5.738769556704742,-2.80504493879359,-2.472177989980593,5.94656890692527,-4.844698760049088,-18.606039207375176,-12.436595116626414,-7.736434377919361,-8.487253769965648,7.560016860388886,22.683682160658826,16.234078350099075,13.618179556186051,20.81393596099419,13.865922829611243,7.6009085561893635,19.350914247695016,19.968285145533248,3.5738673531322016,0.7544136489198046,4.936166527436932,0.5142031211898224,9.270337787062672,27.954790497870068,24.46162496739526,12.389262533832735,16.69849616790071,18.503678002909794,12.80755843641305,20.367719099672954,24.68530894612321,6.9365992833647105,-5.709840905402681,-3.364386873848282,-7.161660120016601,-5.50125225046783,14.71366907884365,24.373487589044696,16.317210488042146,16.695203095507953,17.378360495110066,4.224545019368576,1.7610181714829358,12.290766505927659,8.255464903005407,1.418139278992145,10.777694198468506,13.424320687821254,5.934289288417601,13.969999916409863,23.02810171684382,13.186601648851386,10.719459043717944,22.511404507632424,23.412899873482363,25.238651614244844,42.71710495083573,47.445570233820604,35.62915654348152,36.137283228335654,38.359859656686595,25.66758239536481,24.344046110631705,40.91700867514743,52.57318075290166,72.89781923213107,116.60466929975765,152.7548301064682,170.4631091689435,191.83217614510193,204.7776120096759,192.60758447404913,180.5570028647044,175.3346687150058,155.04451068221093,135.7228658789574,137.58083849670845,133.85308822643782,114.12307008986488,101.04919268904625,85.08930377076653,53.02343715879016,31.16193038607721,21.385321374371692,-5.384488063379479,-36.01050378152567,-47.00277996370148,-58.40419638814943,-76.61826208797088,-81.9344071407786,-90.82062343052911,-120.90068561135395,-143.89809886728315,-151.5498097381764,-168.99717999782297,-185.89303637445173,-184.56202702203473,-188.03640190094714,-200.78794205211585,-197.8176291470035,-191.9265259774126,-202.1845437227288,-204.27719067559133,-192.9026428140659,-193.57009606229505,-193.91640874827644,-175.8926490987758,-165.70257521715035,-170.63577965133976,-165.12455543644134,-158.35403617730145,-164.9125468548029,-158.68156063670406,-136.77353255834373,-129.0885613524434,-126.03710615983405,-108.30958688526025,-98.29825859577087,-100.69103224208294,-89.36038847380922,-74.5429629740115,-73.95114823981704,-63.963361223882416,-40.9879800706553,-34.063842024178605,-34.06491577867151,-21.21181290517429,-16.945269791207807,-25.306578715161372,-19.329754014942043,-9.216697785000143,-13.598305709934731,-9.175630333941266,8.844990707112144,13.944874761040744,16.66331274598086,34.29193907627831,41.320442420693006,32.42933250141615,35.86114685795748,43.31941950008187,38.31016792082634,45.47999484082767,68.2955064232541,76.62143279232177,79.03465732203315,94.4341710211956,99.63963826958363,90.97167748475613,97.67244957795249,108.68633295216173,101.04914291939923,95.63896667201556,97.83806886698812,82.49620279864544,64.71810069708731,69.55068362539203,73.94611313303848,67.23711571264637,72.05802686998433,76.45624560942089,61.40366547778492,55.0618971225161,69.69454483310177,79.23735957829031,87.96590531151243,107.93154435416874,110.43711579733494,89.1989984563946,77.61318569688243,74.70848378077847,65.03518792970652,68.82460055515048,85.76526635359535,84.66913786260673,75.25827789428101,79.76454880323973,77.59798854346516,63.046111280034694,62.36403676876069,65.6551821988958,52.73425473762335,46.08374399269219,52.34161550934305,45.78066168432866,37.685872432896005,49.694188184002506,58.95944190111469,55.582250053277164,61.54704226650732,65.34060823542868,47.578892330004564,33.42626045543983,33.90490301980733,25.203080269896333,16.26911929993501,26.089251795509966,30.79931269285491,21.972701541302932,25.332298727806474,31.011814233440276,18.585954502259675,12.055723788150008,20.56010829662865,18.06035151927967,12.089649192142977,20.75618793327379,20.87813852128691,6.788679969725608,7.458700993763259,14.995982773755967,7.784951161537508,5.71650344341719,15.040738863230818,10.802743670179485,3.7858391403675293,14.438316212164931,19.006285765966233,8.366767407233667,8.56386200342813,12.487578512770535,0.9800638121047642,-4.295341322552739,4.214233887189634,0.8551022688239671,-5.592593216774115,5.235559945667839,9.597518293087358,-3.406311575753951,-8.147176912399932,-9.28946783812328,-22.713197454742208,-25.006167245566388,-9.87811732374823,-7.032644649457547,-12.16243452630256,-5.196134525978829,-4.138149505225097,-13.750780707086959,-8.270096452294801,1.52640114782694,-7.192966562881146,-12.77298336682409,-5.668421533625061,-10.596198904929809,-19.01149054344191,-11.144678432592858,-8.934157892684079,-19.01336768960667,-15.39672622737971,-9.475716130565267,-24.09512855866697,-36.02292001349112,-33.832760504903455,-40.44598069212548,-47.01400959842527,-36.01114951134197,-33.05704743649994,-47.93805461875702,-52.74251486898717,-51.009566999238835,-60.58065574143526,-60.95673999263424,-46.5182534130997,-45.43044789366745,-50.339251251170225,-38.880479820800915,-31.066241172268562,-36.53085726054067,-31.15789101443719,-23.019797729862447,-32.55017253270036,-38.0944470029647,-31.377529389595495,-38.46296777574122,-50.18907739613296,-43.78047388067477,-40.76435209004812,-52.15125321429517,-53.600241295442174,-51.331290151929196,-63.37115859406163,-66.73307387291051,-53.05956222069035,-50.10984489488515,-52.283852369947816,-39.47235186209937,-33.42180169435363,-43.58737787000821,-43.49053163153426,-37.93818221906991,-44.56181881853777,-41.85881765049422,-25.21508443362931,-24.67146629426144,-32.2372308091739,-23.426674348259596,-16.819976656916033,-20.799179853364226,-12.467599778342013,-4.108616532414256,-16.997281044297225,-25.340248955153015,-16.71739610016146,-16.208689039208476,-17.340598279224608,-1.7052631624504908,6.536879913248146,-2.8386195015211424,-2.9461569407942534,0.5829755074752965,-12.446385555038624,-20.510956867813768,-13.626874293117723,-16.48477065975002,-22.21804570225419,-12.122548507020657,-9.196652001987271,-21.802030300559498,-21.345064386155656,-11.94316760332326,-13.092491005496868,-6.4529448499267,11.528105350147976,13.176763078520104,7.987813442074751,17.956755637763216,21.122662995675416,8.8909539695984,8.859231088395084,14.933595366552659,6.70588985087052,4.848926859149551,15.249816803939865,9.622005421012505,-2.329404417338814,4.009367945898038,7.996871154405541,-0.4840765039628607,3.040202993032755,9.591448761814101,-1.977951950985143,-8.305183736631909,0.9796517702971075,-1.1402662157908408,-8.426566534179129,0.10118260076862029,3.560408060357708,-6.155024577334871,-2.987524074810428,3.8009864488269813,-8.07750978706667,-14.914333730120578,-4.4764106282669625,-2.8744515439120337,-5.504106944347155,5.392370268589424,6.922392027647453,-6.760396146687442,-3.700384277090502,10.271257819800091,9.408269732665758,10.721109483304557,22.93926588652241,21.075893208579917,13.959895265014179,24.685915561214255,31.149273438653715,21.454424584412568,22.069860189519254,27.714098566075638,16.26429262592405,8.088609295312503,14.840110607580929,12.702742501587151,8.343018169481143,21.409893322965605,27.354161044286343,13.357931025860209,8.215478211833005,12.47372800301119,8.263385414307209,13.607413092177602,32.22677287843294,32.787845673116834,21.16660418687186,23.681489302463845,24.674351907930987,14.882973309047301,17.413976502672494,23.99492360064364,13.692249420543948,8.106750100337823,17.356254612607785,15.124838156228211,6.621199948117348,13.36268288479356,16.777880209907597,7.847604504988215,10.963909611458426,17.94197428606888,5.734112582380487,-4.4974051755989475,1.1368747920773035,-0.0955711295811481,-2.8293677756497706,11.625604995568548,19.172065639132555,6.6027782409550575,1.123569164720632,2.251291442919212,-7.717058653200754,-8.690881706196443,6.643473569529791,8.59738146605,0.9515560973422832,6.896618896051709,8.882530622931032,-2.507383033329096,-2.0326331816535843,3.8315764541591286,-6.899762793219263,-12.905866636745515,-2.5461452592393226,-2.832681887753096,-9.804625261420934,-1.4061703180939085,3.24516242606672,-5.772139215668998,-2.6020637645498614,5.947650654118526,-4.179429129785184,-12.580367596620118,-4.377556791488846,-2.4328597709939332,-3.375884159018554,10.489659403159996,16.29012144071875,3.7826276798941287,3.171377547066596,13.046268203371588,10.288219462694922,10.271356511581411,19.85526646869982,13.026397030527036,-0.47326770588173517,5.236207945835567,8.803659522886743,-3.940240484620211,-8.861338312371366,-11.330105274043348,-29.515379647754276,-36.15051913396639,-17.923769561485535,-6.437451423655407,-3.8518657744551907,7.265453567830265,6.514885748808795,-11.414282193744079,-12.770429891899473,-0.4074560001642258,-0.7936590541470778,0.28624801986956094,11.030264651927974,7.004804937984777,-2.2513513637363,8.683614592011299,19.117149630717112,13.752984972596513,14.519734374349325,16.488845105217628,0.7352184915418647,-9.232551363294375,0.7361202523243664,4.257714932662331,1.8561224986183897,13.19120152290919,19.722730951323264,11.482373276681612,15.475342775460676,27.100972543189144,20.587170386095906,13.764368074859384,23.11316381787891,29.239010599079464,39.83971537482714,77.29798835000517,117.52009655274013,141.82818863948802,172.12642815264397,201.6193693533951,203.44651915336132,195.2121570071843,192.68937670516925,175.5456754603406,151.94361254173583,145.34034582516077,132.082144263764,95.24459917171119,62.62385747926685,37.47476820480804,3.1386000042551974,-19.899590097214638,-23.75315081617429,-40.94958370804929,-70.24739939529906,-84.85077961729921,-98.07275895418542,-120.09678797302283,-127.22377179723202,-127.80860831721998,-147.816259341245,-165.21739663181054,-162.38397041584298,-165.17876711062507,-173.25918562328832,-165.23647484247823,-159.9804172165268,-168.57847097541847,-163.2670538111104,-148.4115313712109,-150.47819720221617,-151.32351200120092,-135.28056619684776,-127.52988961524906,-127.52607015869495,-113.18265952208277,-102.44296539890831,-108.09522282336518,-104.29639934129841,-94.26231298778669,-101.05056369577437,-103.57780616691946,-85.75727448620609,-73.35529621392362,-67.01105093760434,-47.70606284190529,-35.25002350230747,-41.46340932824643,-39.022674296383734,-29.87264893673579,-36.482675103013804,-38.232357719706684,-20.047188305478755,-9.475661795296645,-8.294715740982836,3.317095734020108,7.213659803377582,-5.603701807159104,-4.760487070192697,8.20003602559688,8.306359356960897,11.73803691178523,29.388854258312723,33.33509359371664,25.8624072113728,31.62115777111014,34.16054204375608,23.667422217723313,29.0756159899659,45.44377851074961,43.83435277397357,41.09745702491147,53.21165870723355,56.23955167551543,52.5808527858499,64.34482274468047,69.92911665239146,53.04448393577499,43.39034874991491,46.78072637573416,42.94231354825687,47.07187135556026,67.35114269089169,71.71872356197308,59.125368601226434,56.96584399010153,54.95959407478239,43.956849456442,48.859029087886185,64.10134848516462,62.65881396077958,60.10707989195623,69.07574917696087,64.58634175584936,51.05844671611989,54.3280729383384,57.7770791232378,47.453148556790225,46.833616842205444,51.5918658585824,38.66365247016567,29.448507607245034,41.025405982979606,47.270471811689006,46.45473243870667,58.744235952021114,64.11802900622348,48.1766875991696,40.322343810759236,43.9677035384514,36.60458186252996,34.04999842633769,47.1980019081012,46.759475328070124,34.353914673734444,37.69951669264296,42.14873540124451,33.4646122888115,35.2579922046937,42.98088554471671,31.487519755792405,20.916412503772694,28.578263963654834,28.015895666990136,17.985321127972252,21.520332884781617,21.622229705032822,5.2237173186165435,1.4816425526676809,11.331704621047237,7.4408619056784175,3.0423365936731552,12.704578475724038,11.279457639745473,-0.9323754814247289,1.70470633877225,4.4389724960510035,-7.481197633431947,-7.968332404677033,3.9509992568324024,2.8378135674119327,1.9063927773167075,13.733433168162009,12.579375104979382,0.2876087781734693,3.2091016726464225,6.66382669793744,-3.9802957867127073,-4.954362104973836,2.634560553318858,-4.481368272794078,-10.12772203014097,-0.899487105303745,-2.559657172472101,-13.76164838660026,-8.860846985223958,-3.4937761524270585,-13.196398373985938,-13.598304962458007,-5.419862158110897,-12.627342386729694,-18.123866532359543,-7.417234162999499,-7.789208854369032,-19.001710240209814,-14.385974850250598,-9.569881890406727,-20.983414759545962,-23.856299009854652,-18.07664585126237,-27.06848354562896,-33.38658541690964,-22.401206728128635,-21.545183340081753,-31.56016493046407,-25.95873538196843,-18.7474752949503,-26.108327172405634,-25.16255413133411,-17.53833406899892,-27.93413461076406,-38.38499055121633,-30.90765114771213,-29.80238520902516,-35.568284995782,-24.01805504246365,-12.06722249911973,-17.65292024126626,-17.86559209068668,-12.5641704751181,-23.96695045604578,-32.24898949960415,-19.166248418839444,-11.16049513607509,-12.750075476564408,-3.285990396983216,0.2647954257107855,-15.439932632717644,-21.215225681924025,-13.669564948374724,-17.438594485586716,-19.215061184636305,-5.43323521721311,-2.1177114870205993,-10.50021568984231,-5.55432108420162,-1.4599628359728436,-13.669306505942238,-16.944030472912992,-9.420981715013525,-15.6608434732726,-21.027352549826254,-9.84040969218676,-7.852940208588314,-17.208289708319796,-12.805867030706228,-8.446115043973847,-19.589701099518642,-20.766575958774133,-10.04715164707073,-12.833684458174028,-15.45233814012179,-2.941153364161252,-1.978500255819821,-14.340676408950685,-12.81504971709997,-9.982301040671356,-21.398227902737315,-22.29077126070784,-12.11982015526282,-16.422783044942356,-20.000524235528985,-6.767759680685598,-3.39460568387944,-12.799917497860369,-9.153244116354212,-5.113735215508873,-15.502355798141707,-14.940693526043935,-3.2332469197275646,-8.350610299818989,-17.052580839880115,-10.705081167161953,-10.792695345855524,-17.831448998919022,-8.016767664137292,1.5637567449431615,-8.10748578774513,-11.859828923745539,-4.145228959124117,-7.3575532041273,-8.597374608692933,5.2929945783701235,7.476294024107858,-3.817169364503887,-1.5020610647293,2.5037226974518814,-8.150536350537301,-10.372137458201138,-2.6873046252470028,-9.064332710338252,-13.761743267800515,0.2783611641077641,5.889242283731729,-2.143837610454557,1.2204725183843994,4.050638944424828,-7.984607014748436,-8.756274633039437,3.017280512104909,-0.11491119554874496,-4.5603173415000535,7.774839537545917,12.38771831315729,5.216294229074978,9.236664255348652,10.173172058482335,-6.224257883613982,-11.794272470016425,-2.028737417329002,-2.499684631698925,-2.083915329939397,12.90630730452801,16.11372398611605,4.7766913812479705,5.136157949576049,5.810483668021193,-7.746786130570774,-10.30173318609081,-0.5756327208402068,-5.8587044012856335,-13.715054471589024,-6.554128344426664,-6.840219985416471,-15.36574381471608,-6.3671552466960035,5.3133565506701155,0.18158339003320112,1.153818444158708,10.955248351305164,5.197032859673666,-0.5287334094422813,12.386119278237762,18.19851410807064,12.083296691370611,18.099813442052653,21.714782715812056,6.655595619755712,0.4952883890149974,7.865432830303893,3.0627277115049303,-1.116950826864954,11.09480716526381,13.41520623429632,3.052152553771363,6.455527377461805,10.464420465660915,-1.373884976249447,-2.868635476733933,8.839741122514402,6.119183383272785,1.104020521711592,11.533235416494907,13.557688526359115,5.017932361574346,11.635574228395459,18.28262143196102,5.931280966302321,0.5695813565444889,8.415940715228906,4.6901331458252855,0.30734096883793605,10.360534508008701,9.706317280967397,-3.737275986958304,-1.3820207206809267,5.677328528569287,-1.6074364482665544,-1.574645885576821,7.515628200457803,0.14122010732178936,-8.375388103387518,2.3653173502611846,7.577994883329026,0.8502184800625465,6.198767744700186,10.803273130490284,-1.6513178181804253,-3.4418919794126452,10.171205445449235,9.811392823640421,5.224853107463604,14.869902447182998,15.820155727373944,5.1337116572314985,9.089800490021386,14.641245286629175,2.7540243527781225,-2.05696407784521,5.949382087350029,1.896112196702358,-2.544049661091465,10.033540375628867,14.998031758540492,7.409506004821578,13.6493843549456,22.54435297516638,15.68419444713544,17.09496331680733,31.78440973764265,36.06398598915436,45.43583012324879,79.18132190774676,110.78086455527374,131.4728874983815,162.25283098375434,187.4866631192947,186.71637395355717,182.44248646535897,180.00490709078022,158.40445657449015,136.19724287125246,135.3948373535702,129.84753433396295,110.1066995919767,99.60508657293532,87.39904772856417,58.10571171961385,38.26340626621163,32.39021727721519,12.778049420531751,-10.4265236839054,-19.02559805770989,-36.455589049490065,-67.508255919726,-84.6345614627288,-96.59285952249988,-121.7895072328138,-138.33001458553073,-142.22165027141205,-158.67166264084156,-174.83620515298048,-171.14521511300813,-170.87298006380817,-179.93141704423869,-174.99496536846715,-169.4397537152849,-182.00779526704284,-187.87811548721191,-180.15761183669886,-183.40822150687015,-186.50006013479648,-171.58135124859896,-162.81044035666153,-165.24334196349704,-152.3929946258132,-136.87862898770524,-140.34276577029897,-139.48241094065847,-127.00658355632342,-126.92850383120083,-127.22931406128745,-109.4732955284016,-97.61899866393799,-97.23260474162392,-83.32169394924563,-68.38106915596572,-72.13986542577864,-70.33009390033234,-55.29035190819856,-51.06805051233736,-46.91050970397495,-25.47940925775884,-11.082223911440884,-9.145874173834468,6.2624187565255,23.221910840614417,20.670426410879955,20.8599767048985,30.688690309521867,26.307307533798387,20.05156780882411,31.905497158755896,38.10877457231089,31.748416911925958,38.33332321326755,46.832726652516214,37.620396967617545,35.37941427870395,48.45349565153693,51.17145803308289,52.58540497304424,69.79509128585669,76.57194581301648,65.71844780419852,66.48234270945846,73.08790238216072,68.22962708718981,74.88945246439307,97.34800017951588,105.11004071709155,104.28199913905455,113.27583882004815,109.81715988812849,90.28437573275949,85.39390688225029,87.34669437850731,74.99173285060802,69.42930510225247,76.10895214202371,68.87588096670808,60.07287823496466,71.5594257652951,78.96333337264193,73.04378741679162,79.1767699746814,87.9421858139775,80.28469050404654,79.22509527351485,90.00201113426729,84.73012528291328,73.46466457870991,78.3866693950113,79.06116992159087,68.69417744874504,70.73451129454206,72.94505439398529,55.91206566277898,45.59179175669938,51.80892113301903,48.51406809031034,42.83622999807697,51.896233790252175,51.424877677977385,34.89540989413665,30.788281297914203,32.31012115801422,21.283177546616763,21.046092715799777,37.584461605409494,41.388953298676896,37.98231179956941,55.925145681074994,100.43027465714293,176.1517791628871,280.40988931827576,362.86868047779325,371.8332833165253,325.8497985563438,273.78668875008225,236.61981115289018,226.2622681250471,235.34293619140942,223.26414454263883,185.82175436224816,163.14004222338716,155.37491217760632,137.68693773607185,121.92489388886747,112.35792672196406,87.99615092952428,63.031570072770165,56.809736540562625,43.05364743689604,14.696476095664789,2.038523498235108,-3.0453647578472167,-23.97073304665468,-39.55057208006266,-40.72897490624655,-52.83895292507638,-66.13035078377432,-60.31125029330802,-61.55564415383186,-81.06238044767174,-90.81229997311185,-95.59136909700936,-113.56732890876741,-120.81629876071837,-109.70030479674222,-110.79078984115382,-118.86746162842796,-111.89979013832834,-110.87406900981621,-125.6478779345264,-130.52699392946957,-131.81961116336151,-148.63132999638816,-158.10592167338626,-150.90356835234354,-154.59885950119738,-164.86605644890733,-161.77041690129712,-163.4603279546577,-174.48730083803858,-167.94990829355598,-154.6215922338441,-160.54273793971592,-166.78098624237364,-161.02925399905502,-163.61311674172174,-165.13461574349378,-147.54154660043582,-137.88039305565113,-148.66826655065722,-151.47583090399274,-148.94257210986362,-159.64423932706345,-161.55863213981036,-146.9695752134118,-145.1366242776107,-150.28441674118312,-139.7340636659235,-132.77901077180638,-138.3069550022593,-131.52548221450036,-121.60021449698672,-130.99959433444556,-137.03220385210284,-127.15118173880582,-126.19640966243804,-129.7004337842784,-119.34307042198398,-115.86815876643459,-125.96056237518819,-121.28802482003238,-108.9747490130761,-113.01809023499513,-114.00724813337496,-100.74734568742801,-96.35206538314057,-93.5944124834154,-74.44677199972247,-63.84590896992888,-72.13138205205907,-70.81035689890636,-62.92587981983547,-67.30852558479732,-63.63051274838672,-45.080978793493045,-40.119223977507,-43.27766706035483,-33.04315497486317,-29.475225178329833,-41.61774327004797,-42.76364166369535,-38.60031890666609,-49.65678491606776,-53.58056200098534,-39.69454641440142,-35.787467983616,-38.1648045356229,-25.287434537190112,-15.253637413467484,-16.38090094864047,-3.5781173770681733,14.12301787221177,11.45678885318572,8.286860057118776,18.938740122440283,21.190863105172056,19.81250495167534,32.61529623795147,36.160348142485226,20.01106301349548,13.424224121207883,14.76414894283288,4.367302170947384,2.3560160102401047,17.194532122506523,20.625477232593727,17.44067610506808,29.068409375211356,34.86962110069702,25.590106647400535,28.79469451803547,38.574097941859364,32.78404289837022,32.67048460316309,48.22310789142709,50.93956934050432,45.65185608668526,55.91786073600833,62.180625253512645,53.372831216083156,55.84468409080152,63.595748980562874,53.492325717521894,47.403718699148584,58.491221148017,59.38571717840426,52.61374759505023,60.187011770759206,63.50779280799564,52.35222628356945,53.848775795786196,63.88688746629365,59.138522350410355,58.03626120539439,71.58104414267397,73.86421709975528,69.76703975805773,81.98545407489581,91.05813494094528,84.49224840920019,86.17585245663824,91.82214857017333,81.93335661246087,77.48174807497996,88.59785600799066,86.56986654663778,73.9155281762489,74.72568790559474,73.81347313809027,62.37947686581576,65.19330526235888,74.10608486609188,64.46731329352392,57.005408294314506,65.6376821867059,55.982910128543054,5.584973676098098,-75.37608774895676,-177.0295343009743,-267.6536660419324,-288.3421688346727,-237.88771287375556,-179.18863487565937,-143.15974988508958,-126.77487761229557,-130.7030072148412,-129.8277284307049,-101.30362216473077,-75.39014920939337,-71.50351430863947,-62.367957666605804,-45.84338700222544,-41.67702537785021,-34.188847853569534,-14.578390585249208,-6.097524539368243,-1.263489253828959,20.989919442747713,36.68933266864903,32.43465134058344,38.55235121097831,55.113682484840055,57.422661803248474,60.84563056524979,77.37776467146782,82.78381912333688,81.16705193123431,94.86434552770163,104.12353432318932,96.0638103646691,98.0763290865574,109.27114609342817,106.95589715663075,107.89052896931648,123.12908509033316,126.9175260995419,123.13718982960123,134.09519837896096,139.15118433422356,125.53861191437886,121.84061909088909,128.2037580662267,123.61827763293952,125.45766912993432,142.05995857919547,144.46804145664802,136.40633920495017,143.12934269549623,147.3065421312495,136.9171915405853,138.0303305472752,146.1318898621056,137.47117373006063,132.44704578320895,144.1285656777297,143.60887688976584,131.29502053305885,130.69113929746783,125.99824631545509,109.19711111992324,110.06925968516983,122.71269692489219,116.9423973806097,108.93332492309355,113.7782368177958,108.22427289760886,97.58815447404004,104.59525824249219,106.46585609936412,88.79221680764134,81.61350942730789,85.7183851611514,78.01043802775465,75.86270756592018,90.12255369520378,91.57260088576564,81.27868992102717,84.11952088408268,84.76710047034084,72.35292917696033,74.37286954103917,89.32808258937474,93.08128894703464,102.70233525055916,132.225054539434,156.31886369852708,174.30564715920582,203.50301626528778,220.1281566768048,209.29676844607695,200.99550487363626,198.91047278618618,182.04554026943836,166.17912160933486,159.7711282378543,134.24340022084903,95.52965915094488,74.29533852812972,56.57133740317258,27.405049925990934,8.178829053830857,-6.454096540309226,-39.22773425456989,-68.06108116505823,-75.23978639861295,-86.78423096768672,-105.98038132034459,-113.89524801605751,-127.5021783183545,-155.9511046875453,-169.13568320959507,-168.07924969027687,-180.13662586039956,-192.062214129734,-191.14290722426884,-200.7971637159638,-216.1105245878743,-212.38761590557792,-208.7722839292998,-220.6420037134629,-222.38964815181387,-215.7934216070655,-224.73072670999352,-230.1573244340522,-216.42277441797512,-209.69586753560597,-210.14713653595166,-195.70756922716515,-184.63431512577176,-189.53434872606314,-181.30591892143997,-159.72150475669773,-152.07129698758553,-146.40673460500886,-130.61968966948513,-128.49324260965236,-134.78008756328614,-122.61125633397306,-110.3250687638719,-115.26560614924,-112.39131943146563,-101.14905309588013,-103.77152222586217,-103.28604832693787,-87.65861663814715,-83.69058510867706,-88.95083728742598,-77.74120549928186,-66.34622239984489,-70.08150086629814,-64.79343362660873,-51.24114118969026,-52.505329576744074,-51.402894770146396,-33.96168601628233,-26.846669833952905,-29.52951969475149,-16.913132112003034,-5.500333985945552,-11.38170661177629,-10.756614516093624,-4.5386225986253805,-14.754598626583725,-21.183692411420317,-7.037238859999744,0.599079695340842,-2.0834145190945144,6.082195042060994,9.432889075622,-4.0763485972888835,-7.153426439447525,-0.28733697437426686,-8.307636720886153,-13.948779233643524,-0.9260910147870325,5.680546794802176,4.730794562896232,17.461416249865977,25.29496437469388,13.64378413888035,10.146772304896775,16.524276661869127,8.647635896830447,2.875792064534054,15.189387643566171,19.707967996102894,14.112327072340683,20.67598935311115,22.93012940050779,7.51026519900939,3.1663790958315796,12.570413546289265,10.263062666365151,8.27947121034692,19.351273383002006,19.15018098105596,9.451449518351222,15.833696774541739,22.76226166239683,14.2286115406369,14.374960763422033,22.835825446964705,14.824108451506392,6.702031497012941,15.173474032310471,15.5721985205315,6.983105111309269,12.529299900607631,14.544317866479624,-2.3760225556423302,-8.967243791044318,-0.3284828767905408,-0.519569057666788,3.547831307826159,23.110186203718435,27.726074391440044,14.623611057792955,11.932034362637054,9.908953110742353,-3.7855510813141544,-3.779260152346396,8.893708851234116,6.290276737741783,1.1304907761294904,9.261713272239087,7.064833570285911,-4.916933402678188,0.13325273547489846,8.165112709094306,1.5580858386776257,2.5290386292502722,10.368934174284195,0.7807392738274492,-7.703520245539696,3.8978762913529534,8.938841889807232,2.5080165405085233,8.003011743162414,10.65145769156058,-4.359861410699042,-9.027962113115324,-0.488117529674132,-5.240268173991426,-9.986399089202301,0.7789933182699977,0.7658763359240843,-12.346025073377355,-11.78223794726322,-9.111730095242699,-18.995575771768703,-16.02316854000965,0.5935658120074958,2.575094338117916,1.2431691663950417,12.26599188882064,11.640320345217205,-1.2102919349951575,0.7116373777348235,4.566378277085388,-6.594108269548146,-8.541572161665826,0.9151378218057014,-3.7371110534327325,-8.792909226816503,2.1000011044125744,3.2253410485250624,-7.918901875990163,-5.182842605016489,-1.8552424150029931,-14.053791977632496,-16.319571753196538,-5.723876557992584,-6.569370258666969,-5.374992856421288,11.81766845099053,17.413603818190207,8.133271505596436,10.423376040505484,12.434636315875247,-1.2240040081038073,-5.482658093420143,2.3502463023150186,-1.861351663186145,-4.581317426107614,7.8452200551112,8.007406904564895,-5.741775861600602,-4.879662841165064,-0.7955181959153037,-10.796574651367434,-12.690980922261739,-5.9222665095187015,-15.177402433719886,-24.103946338015948,-13.66266619342889,-8.723369895688158,-13.062472401411299,-1.2924307285986574,12.53202666376213,9.32267507371815,13.066790115970191,27.631398110350574,27.169030946936623,23.336642683896127,32.35877880318138,29.43418605164646,12.414270954271469,9.424528307908018,9.352533789929545,-5.016989544479944,-9.413342834070487,-0.315573467956038,-3.4755864858303305,-7.449042469018691,3.31524847982132,4.060603178797054,-7.364082224468612,-3.9525306670076623,1.667486275860031,-8.903304616071772,-11.4644007903329,-1.2634328543893854,-3.2587964459372247,-6.264566956598555,5.155986484867233,5.851146108648837,-7.059983789339118,-5.3045763322632915,1.0288344246388414,-6.369873829175786,-5.576216236943665,5.836819480506858,2.26004917505755,-2.8075714511006264,9.09594786363949,13.6059301996029,6.028871267521762,10.739766602132013,15.211077384814793,3.3418302670470474,1.061789525546703,13.02686821251592,12.860992063319838,10.970027165303335,23.64975161051849,26.281947209348946,14.849275913593882,15.67830162480944,17.336521828342374,1.9074313769202629,-6.116487292377462,-0.861212585321145,-6.789732379070088,-11.581253489204215,2.748939072157011,11.228630419647107,7.6847519726420686,16.458987037251596,24.514472667155566,12.724508858933662,5.915747616091693,11.646611182460456,6.958572493430008,4.634305367692694,21.462948766730154,29.525582916328318,20.20958217151708,18.51659034360254,15.1750981117874,-4.470611425755031,-13.21751492243617,-4.270452721681165,-4.058049550497094,-4.122642034787256,10.582417702529327,14.575658071995429,3.3036715546971327,3.770251794216653,5.734557104910035,-7.918382210639236,-12.93768852790767,-4.503873997266445,-7.758506893917167,-10.6785680971669,4.366464830875622,11.657223763950768,4.603548340131793,9.350203821555375,16.086349237461917,8.060319781785868,9.837406866556368,24.178423874172317,21.3323601409419,12.01162857070857,18.476130665986748,21.367598851229765,16.38209205606226,25.92165168121126,34.45457092918123,21.70894901344503,12.558168208490697,14.41454044047917,2.922188979744094,-9.548922102058155,-2.809091706850489,0.10829813807124461,-7.471044615734222,-2.5819273346094134,0.5771531195866132,-16.310362280048317,-23.89063261426449,-11.816551741380106,-7.827209165434841,-6.343510862748277,7.413853590560711,8.517558339588078,-6.211640560077976,-5.544689946717785,2.7691257220972156,-2.5310912761224302,-2.047929871022116,8.492515752277786,3.1866430893247215,-6.743217491301584,0.5235967097958545,4.470073535339353,-1.6564710677954393,5.745781625793867,15.072827906414114,6.390131472398995,3.344452359061732,13.811910865636321,12.032253173996658,6.694369775519575,15.838223077645944,15.789196343156158,0.14597724182639737,-3.79486346355679,-2.860189093494658,-13.291943220234218,-12.236010821871954,2.1584003966767167,-2.0802349281930996,-16.534982309944436,-16.896975686873112,-19.86199169473805,-29.64395702731366,-22.71154213072974,-13.182959211017128,-22.058720215029222,-23.33233004524765,-6.574601921622726,1.526502619528794,6.451929337399989,24.380254581014345,30.50231776122438,17.30183722659349,13.79005803979469,15.788933566218333,6.055597686266568,5.562594084469009,18.32785754986418,15.981699829099398,6.528135524838639,10.606265450923045,8.62889679555461,-4.343476118767501,-2.617077558691588,4.017037027101963,-4.2235365264102835,-6.271830934625159,3.206168915849665,-1.1025199701171906,-8.920146049613463,-1.17105220103889,-0.09318905630670793,-10.840071324222038,-6.695623577750142,3.2481628275979992,-0.7743036901095071,1.0173160703220587,12.307489714642418,7.655165888367307,-0.8902792411633125,7.93519278003688,11.806709697029437,2.378575313736986,3.021851252619018,4.361685023886204,-9.338287792927247,-11.777591929178868,3.428507650061852,5.6812699085816405,-0.4478348607363767,4.497381464749113,2.4494779559006665,-8.972733828833142,-2.707014695408939,8.831490798212787,0.9609712583544718,-4.854804023665446,2.4871968408770884,0.944327434085817,0.7995646489191854,21.228074450344785,38.005727544540406,42.45399434300078,62.361934684065595,92.01599120315142,111.23796325577554,138.8833482862568,177.49340708487085,194.71620120699703,195.46975827691904,201.33756131888921,193.27381985027685,166.44514661180818,150.7251670790481,140.86575919509772,116.75743222099852,98.09349258938623,89.6967445753557,63.48420042214843,29.772425986307198,14.332122777103178,-1.579849270509694,-27.436842422111432,-40.6908074768822,-52.00284953642966,-81.5724845729793,-105.37484926313614,-113.10172438540361,-129.29136383482466,-145.20878147193696,-141.37208917427662,-142.40984298127512,-159.26572356026526,-166.2025177861539,-169.16255323226113,-186.21263610672952,-195.0172199812917,-188.89298985995532,-194.6102026103898,-201.80797173420004,-186.88862792996116,-172.8118387501993,-173.6409829891225,-167.7832492797742,-162.7816502176401,-175.29261013763252,-178.6211829432805,-162.45958079472723,-155.53252350777788,-152.69246433991108,-133.25451988096518,-119.06364205736978,-120.43846702387985,-112.3762430215804,-101.94911328951541,-108.18098672160765,-107.05836908416074,-88.73854692548556,-80.58565923913851,-76.70236458450955,-56.44676133339001,-41.25859273395743,-41.252333344314046,-31.971241024576212,-21.292559402356794,-29.359338715218204,-32.03460704566263,-16.71896050744573,-8.54320855389227,-2.3840266055029016,19.708954027303086,33.31860795888694,27.986127099063523,30.679098048232603,35.2202963834632,22.26498826584683,17.43356198368673,33.94011688135994,44.922674065898875,51.89885627774268,69.7238877429316,74.38823456467722,59.671699604835005,58.0872950167557,66.0372836740623,60.846915453615075,61.532664267515884,77.07017342964345,81.10232914375868,78.84979116580128,90.04128007211162,93.48271429479725,80.39574068658439,78.62204483688555,83.29000701075438,73.18948832486001,69.51637478404021,83.18894232606151,87.09224656331966,83.42309106526754,89.9403035133555,86.17428756833796,66.69686746660679,63.10689526581811,71.4464511347409,67.44425592257667,66.85669726746163,77.23553078018071,74.00985979387146,66.09793743484217,76.45468841108247,83.20762627101513,73.3400214180538,71.54081970541148,73.18620521757603,59.05695491145984,51.99107271296297,63.42140245549996,66.34812228209384,63.97064949591506,75.17810041358783,77.94433132406257,62.43211704261732,57.49654630993939,60.799911640656944,51.774186196763516,49.293731760344826,61.10129392374128,59.26670263976224,49.541081433681285,55.16223415214778,56.879278359620464,44.191356384601356,43.43410102997176,49.90281694450509,41.34427013756413,36.73736942896779,45.90790953278531,42.31136353466074,31.77199866167532,37.66019977261472,39.61757681914869,25.42113825337791,21.884017545602838,25.75735474516861,15.584628405728061,11.570958293661658,24.61321465487058,26.96136360807813,21.469630862571968,29.16857205637536,29.058237692965683,9.925501566862252,1.6464319503711262,4.628569343973748,-2.365237915419158,-2.8194948283475676,10.53654617122709,9.303829379003488,-1.1764253618027944,4.068554297979908,6.925262996016635,-4.695673678808529,-5.869276397045255,-0.747433138551119,-10.765658395062765,-15.878657219275043,-4.57397569939386,-4.564634754708052,-13.659666987388508,-8.931852049907452,-8.470448587481233,-23.392720238466094,-26.49014477217467,-21.50775349725363,-31.56568951011048,-36.20072602973187,-22.265824615914457,-17.085568408458755,-20.245664995314588,-12.581787968627598,-13.339125390517287,-30.21689283142998,-32.481287833751466,-23.488178736741133,-29.600160775757118,-34.984161251445364,-27.57379471882273,-30.621563499663868,-37.59027768736548,-25.475595017787136,-15.50209789104548,-22.29335811117443,-20.687145948311862,-13.960483241094328,-24.847875370916377,-33.77581534765645,-27.36400357656158,-30.507673028794017,-37.99095949550254,-26.397128893226792,-16.678009192698795,-24.019408895075827,-24.717714793235118,-22.800603034130265,-38.44782426235525,-47.72475005723631,-35.5765415219189,-30.867251266325646,-34.912559215233216,-26.709446738282132,-24.556375566745192,-38.84301449583252,-40.72448100530524,-32.43469522269108,-38.51144292470571,-41.581034434304556,-28.99952999672771,-27.16171765347326,-34.17423662187113,-27.149055562308174,-23.71593095287245,-35.471912611418915,-35.36420088181573,-25.95245395406505,-31.510644808655336,-34.60570572483792,-21.502431294271325,-17.13580042360007,-20.023192577564792,-9.330214988895952,-5.603127586373304,-22.931925000603105,-32.68688617194214,-32.14778291541309,-41.88702252287639,-44.78801663927519,-29.636605602597722,-23.398810783980757,-25.329729985697277,-14.050778239651631,-7.65339428706708,-18.345434045777786,-19.337466000224893,-11.240936528178779,-16.77839656510835,-19.910604391517733,-9.155159848421661,-9.581969187778249,-16.97318714082088,-7.259591850439259,0.2717327382666923,-9.631706023328878,-12.023528236730513,-8.033524700765536,-18.370899870329797,-22.836491122007004,-8.499841125465608,-3.999005863349101,-10.411120914419602,-5.8953025863634165,-6.524936440221972,-21.646380564642193,-22.513418990404517,-11.062455990223382,-13.650419162107067,-16.24958590821836,-6.904371019764994,-10.626226434551258,-22.926602968313553,-16.96362004859882,-9.552931874979278,-16.145779556253864,-12.979994706991812,-3.331429880397497,-10.899047380153402,-15.853741806319789,-2.8231919798405443,0.8319077852058345,-5.996025670598743,-0.6230824223627867,0.7790745769069529,-12.92434347585052,-13.129501411923208,-0.8087985705416312,-2.680561327114232,-4.208841869650378,7.949711065224353,7.854251186829412,-1.6813894502136053,5.9655776057703225,13.018926926391085,2.099409767621351,-2.377842565911253,0.24443646261072738,-10.34639822224855,-13.326963358673837,6.2365230986099816,17.842880153694292,16.017449003876017,22.507728752286006,22.254429542712998,4.976585073445992,1.606028800063084,13.42476346952334,13.401153020736764,14.349586939495454,27.35574850003128,24.552187837957867,9.39721771967673,11.951314504205058,17.678811135137117,10.100403731704414,12.407187682496373,21.5526651956423,12.273599977105409,3.205121667801479,11.426396827644696,11.0843180041306,1.4951740121848562,7.389021166370161,13.185537883463478,3.621821812321371,3.331357840545774,12.019295813063994,5.722436747835044,1.3574978646988893,14.827927922187365,19.392986769201773,12.06990347568772,16.726717714083115,19.308338084363726,6.753395934783999,5.5754541853540855,15.043054690659845,8.716622521522623,2.309053964405342,12.583332602538938,14.680394597609244,6.786959778042878,11.950909426984618,15.081500885179203,2.8719655561531354,2.3399335893216686,13.657197452622338,9.455024050526198,3.222988960758875,11.021895235163218,9.423723741541163,-0.3286120170828437,7.13950454769982,15.164116096330623,6.560509542108461,6.0944827056481925,14.70419988076502,8.297437726283544,3.266616607149884,15.201572765953754,17.63925876392715,8.945253529915103,13.749015243787223,17.314823102587734,4.8582866982764505,1.953893067549724,10.273116154668234,6.336442127197053,4.92293921910775,19.29042731172285,21.801676804593196,10.75153113085567,12.014007752981355,12.943309430885627,0.6483535701534837,0.7512260477017187,11.92378646339597,7.129461590605497,1.0608321574280644,10.875990587881894,13.087341048768277,6.715719689424539,15.08419978712359,21.17420809350339,9.121071426191588,7.842052918083757,23.029064185142932,31.08281717781867,45.74965508914534,82.48165272359292,115.81655338413952,141.13030518628614,177.47330974188887,203.81945649752996,200.57194728422354,195.17073162376266,194.4537642349915,176.30848007070642,155.83340854904577,149.30364951683907,131.89419169473848,102.79000331146334,87.28531454789459,69.11874635141862,31.688320363895507,3.7267981042850913,-9.304033843416546,-32.83573720512306,-55.3463625888944,-62.73348876467716,-80.03587457820942,-106.78697165933663,-114.56683923417481,-116.75699020844948,-132.16795852230553,-137.9540456197549,-132.34057935566557,-141.7623636705938,-154.13482708012796,-152.61426393704016,-159.98200575689492,-176.2023182447657,-173.49219428428117,-164.94398567426975,-170.0111447375511,-167.45488420390177,-156.24290449932118,-161.33956828978665,-167.44727291445787,-155.35066568380583,-148.12704301121835,-148.52048750259178,-133.42777137679752,-119.66514022732753,-125.51784050233087,-124.91674096366557,-112.45692991615843,-111.10268216610417,-107.13191760159138,-86.10298270894143,-75.98951312653209,-81.0467904858902,-74.05108441889698,-65.21964923719179,-70.02262681050519,-64.02244254199674,-45.495916020154084,-42.143457838798824,-42.65793007726779,-29.100085583028825,-23.132664187276912,-26.194490173814202,-12.602735448734357,3.8875283371887095,3.209847885718472,6.787742406487841,17.78949343397404,13.55671391012205,10.624653776950964,27.956711065400736,39.58177392299794,38.565578151172055,47.398053685645976,52.96291907129963,40.67943116593875,38.847399938065124,52.63075610370882,54.67573182295244,55.12958890829321,70.59865860418044,76.47115883792091,68.32957056013726,72.23728636649665,78.04360533518803,70.0225786363012,72.2139547555627,86.63743868682661,85.07234756946026,77.74781574389866,83.13392955095061,81.45566500502427,71.63792732992884,77.10193495862016,82.59895583898238,69.96508953958707,64.15216934466957,70.34381798325795,64.22357935744859,58.4886196471976,70.38873878509612,75.53018413992557,69.48933672851027,76.01476136514572,80.70899626396587,65.63938682359176,57.362739674886896,63.69095305649658,60.82993707986407,58.62087672119214,71.02634854965524,72.24256719107714,58.492303847185866,57.33323945027498,59.32198113419179,47.22381665506132,44.159896215590464,54.59081543010406,53.17222861032329,51.13268930956565,65.15273720080978,68.69601562823891,54.9873356129025,50.723457421846895,47.60027995308192,30.934872148880658,26.62929253746122,38.34245724344677,36.78693576385105,30.73076492347721,38.39873644061703,37.821937148737696,25.704804111688375,28.12765882563179,33.045416965454905,20.828488590353324,14.64900422336914,20.82384303466043,15.05496057982293,9.01029349207827,20.955878309111107,25.292880044727056,13.776441254262668,12.042641056204937,12.068610592801907,-1.7804834258067714,-4.940256782749762,6.663585911457524,4.270993473704037,-3.233648886513672,3.4736765062461994,2.636668664779921,-9.932505303602248,-7.714422237251259,-2.276417480076063,-13.702395815948988,-18.73528316177153,-10.855357887319332,-14.597206323594815,-18.712208053524307,-5.630357154414059,-1.0869824418599179,-12.301611964856411,-12.351489417968455,-9.591987847026246,-21.941138445183384,-25.762530312624687,-15.341902236429842,-17.62953169189887,-22.60931762932443,-11.522425413156526,-8.739874301331623,-19.809419928265775,-16.90965860813423,-10.256402872331085,-20.068064144636313,-24.193155940224045,-17.656627339370726,-25.642931277120017,-34.71330050162463,-23.327437914970048,-15.658104625824038,-21.574374168294067,-18.337799894160018,-16.336250513503558,-32.11194028515746,-39.180947452329804,-29.888469415942744,-31.519486593076394,-36.46969915945974,-26.492326455858066,-23.28556350535454,-32.06647216447329,-28.013933708210935,-22.94971843609744,-36.76268557396274,-45.63393027927843,-41.13349880908116,-46.66116291341335,-51.11141746710446,-36.36986162319292,-27.250585153962508,-31.251295240450556,-23.890504661844687,-16.457283144486297,-27.594278855988048,-32.47292244942957,-23.280992284598774,-25.448898887577002,-29.785935655714507,-18.37637555008468,-14.735828480389271,-25.02357754263606,-22.720609003082117,-16.654345678757288,-25.923202151531623,-28.230444441879104,-16.932495963450368,-18.348266057545036,-24.146578674041574,-15.749289127202339,-16.197543528774887,-31.140758596674747,-32.277341853208284,-27.712769596157532,-37.12881595716472,-38.95897734599212,-27.745087816830562,-29.681480068580488,-34.42894496761505,-21.905571356672947,-15.857257256073275,-24.814292826137446,-22.669240502756566,-17.565544887396033,-28.23274089416992,-30.590774887479675,-17.147143178773987,-15.859571433305335,-19.284871030609388,-7.86615644404079,-4.128860252169373,-14.85024394821464,-12.525380000608418,-5.890839632305532,-15.892385447408152,-19.014895687680006,-5.865081354780377,-3.5561879742731195,-6.214632058758556,4.025452669437903,4.424750434542909,-10.129750494410711,-9.627404477879752,-1.3822333449059236,-8.058638268968842,-11.108161504716815,-3.4999629210742023,-8.550301182208601,-15.23151545419398,-2.9430509802097813,4.495553570667876,-3.5344520764054277,-1.8844758498602254,2.5622980016889234,-8.880689655673995,-13.403552367103348,-2.836347304200819,-3.3644665362091803,-6.734489671911066,6.957716743263046,13.971830437455784,4.670801064540799,5.636048885469499,10.192942844315345,-0.8179052864058569,-4.731739843914606,5.695380650062617,3.1883256514478333,-3.481993010569047,7.210533091669298,13.523702792279593,6.201684791674563,9.5099812839024,14.749144753983419,2.010394029225428,-5.173101381676584,4.141406656714274,4.466813061811158,1.229671071829023,12.553634930790128,16.20516187322076,4.718997076842912,6.415189966610843,15.530137169177388,10.13991409329648,8.19471907746101,16.34806588619123,10.20370642265972,0.7819141081621144,10.947309853618123,18.273667955843813,10.940854831097443,12.488627024279934,15.776787407381596,2.186575652183766,-4.712330530195383,5.458283445176644,6.423077265521274,3.487177127536094,16.348356276079453,22.707697729576676,11.563019691960832,9.749192261831494,13.885745920374879,4.503766793354778,1.8671611626983389,13.883105332415239,13.124281964237243,6.106504657783745,14.711174709060742,18.064130652903323,6.365786113284933,6.179171906759759,12.47919529408046,5.243903567939625,4.365316345604861,16.762221996872864,14.652262648685756,4.719143648122109,9.884380275722146,11.186119683518722,-0.07020729213810739,2.244147356985711,11.332596025445207,5.090072246337768,2.7692613882687267,12.625051104871062,9.399741411020516,1.3889254177045234,10.209151760992548,13.88328552163275,1.6230819006834762,-0.24793474872941235,3.3153925838368785,-7.768378852110107,-11.596555769107336,1.5850982825454016,3.747389624858023,-0.1785944576201448,11.409966740571958,17.321157614874338,6.81719030571313,6.772110553285656,12.263430519368887,1.4676860684926192,-4.663611273411459,5.7735636556361385,6.999760516918625,3.738652024715718,16.44998148735835,22.42311627029291,9.518695331861732,4.600033413604444,4.2594813440017365,-9.904617255798055,-14.148511456910088,2.150653464850423,9.674312703563285,9.362480486216665,19.583697164111225,20.37332371772551,4.121391104685606,0.06015337183720826,5.2702965233782315,-1.9189138562035652,-2.9347078489484186,11.65664523194486,13.608022167890265,5.351017486492294,9.562308743436342,9.812487491954753,-2.1254971169353007,0.9054090024046575,13.113376495635507,-0.4226700393417433,-43.83920981248008,-96.13401781876019,-136.74154632306073,-150.746740435245,-130.3348981831329,-89.54067513054659,-71.17534405713681,-89.3203996133284,-99.39817294444984,-80.41682550229056,-63.32783592224462,-54.6180809795988,-41.688212680639225,-42.42088376702693,-55.70004616763822,-48.19225305743398,-30.393152055544157,-32.02347656005028,-31.83983761209117,-14.169911064926438,-6.41663787657564,-8.147770697285473,2.8909524042107666,11.44358311153356,9.70204716262351,23.879526321308536,48.467618239718995,60.46811444973525,79.88256434031402,119.60191985981368,152.66095604186037,179.01598028277303,215.2770286517317,235.81746112244318,226.0386692563091,215.9945840223489,209.48444437790076,189.53347629165364,176.15275465580822,178.24715947299353,165.68210564987763,140.12578546032296,125.65305164649472,106.88993231096612,74.39133320774431,54.20031340408303,42.5832424097349,16.998577280172814,-4.198838664919502,-8.983577092508108,-23.609725263253523,-45.62545955383149,-51.84096013278827,-59.56658320086491,-80.45609481248154,-89.36741500756148,-91.33677432497683,-109.53424929204586,-123.17436930462125,-117.61415538102892,-118.41651243679722,-124.89094562698357,-117.69024898856293,-116.15002140766539,-130.62533572450155,-132.89489182631246,-124.64520033870005,-129.13345673775348,-129.69345028157977,-114.87524529528503,-109.98951730678515,-111.24738851533998,-95.46256082162651,-82.19601686586786,-86.8134252594241,-84.42959991735376,-74.8563132691292,-77.14623151858498,-71.34083742523511,-47.01685440924206,-35.574668602602046,-37.798275668912225,-28.642322122743266,-22.41515852736047,-29.97960362508043,-25.078147224146118,-10.58091467121423,-10.864707648582764,-8.886079948705433,7.914889899669927,12.667345784436376,7.0378042575962585,16.208648835998563,24.514741587373862,18.402290726791104,23.08168701127672,36.76921587387404,34.65328996648421,32.68470732174274,45.076493856138995,47.380509750042215,41.71764351331035,52.21686155256863,60.912791097168714,52.18545197855782,51.861242437645025,60.60235852006089,55.49342664262468,52.79662642173937,65.51005405799236,67.76966850649171,61.11119550322327,69.64376274205655,75.76402387560135,64.11096580502783,60.78574293075959,67.46133874259439,61.60759718983913,58.544277901371224,70.49714882972113,70.8188732213837,60.53596485392431,65.81163844304494,75.44857623041173,83.48806420864774,117.00710002172386,163.87949258678128,185.7464419205962,188.8100316888139,185.6342137918886,164.03982768365856,140.50537875829187,139.69174063565225,136.6512706193168,113.54478196011408,99.32342749331391,98.40169965963774,87.59209358542728,79.37224123278578,84.51524226734071,77.74118887936763,62.74115924183117,65.72968118100334,68.00050993840644,50.5677627909179,38.240330122024,34.53926758598869,18.399452427504023,6.410134609037083,13.776418117036282,15.16454476006065,8.537614918834477,15.27558652347305,16.916344914000288,-2.8537052936308003,-16.694941748535836,-19.204789208291704,-30.5362715929571,-34.907422923284074,-20.40133082558917,-16.84746685216799,-27.886801979016813,-28.236297094278044,-30.362972726088607,-47.40952902308328,-53.10171027797716,-46.764967917171056,-53.31736338453871,-57.88348097906487,-46.876545416648945,-47.43441499443951,-60.18473014553494,-59.16587199250641,-57.97428092014219,-70.56434923509325,-72.05870325925167,-63.35096568924925,-69.64634594759809,-75.76387723642235,-67.10384614622197,-68.46394788557893,-78.33604793191944,-70.78649617175876,-62.429524716700314,-72.05035240365288,-77.00291966776584,-75.55116990478521,-88.4485655900006,-96.08535296177925,-81.52773067369978,-73.59340880384848,-78.10196639493326,-71.7172636556192,-68.1584767505314,-81.83523152071947,-86.15499976596527,-78.15420013575293,-82.5346912227101,-85.44197830157371,-71.1335414731188,-65.32225142339962,-70.89253911255831,-63.103746042120655,-55.99020743211201,-66.26180885722508,-69.55447325578751,-62.89770443439234,-69.53992670298337,-74.1325513268878,-60.12500304397585,-54.30971262116148,-61.6783597195375,-57.56152769889981,-53.83900730137201,-64.74146249155629,-64.167896637883,-50.38501334397111,-51.055303382267056,-54.03816146655213,-42.480930612461734,-41.17192330007228,-52.37842076320679,-48.679192024104665,-41.887799958014206,-48.75223120978413,-45.035649342939124,-30.031002806096467,-32.19511818549682,-38.42474018758178,-29.274302208746434,-27.240277249164077,-34.638090480121534,-27.165837513443954,-20.119338526478924,-31.415063861181252,-35.6627751413944,-28.64241197208824,-34.26009809443759,-37.9854821718338,-23.337528790063658,-16.453945011394673,-21.519433230270984,-14.78429491682143,-10.448435865544226,-23.818853073082376,-27.538329271534394,-17.03053338408327,-17.28619473549785,-16.241073240141542,0.3964157055737285,5.660073737313073,-4.309698876852252,-3.309124912333922,-1.6912267934389178,-12.930667806653922,-11.20138981455885,4.592261453279404,5.522193484191318,1.2905769176170307,7.5618630494028976,2.039134748324674,-13.18426130524923,-8.253888110249843,3.5888156424337176,1.6041181992302431,5.9766383350016925,16.229247903214247,7.461861124997872,-1.817868296862454,10.52769878050145,20.132416217771794,19.770810949736976,29.558754046835638,33.23352633677469,15.877832134368388,8.549814542308987,19.292037761251443,21.78748344037679,23.426530417293613,35.76901657163259,33.07028081928065,15.588089765689425,14.386785057238221,19.886934135295324,14.397862364918044,20.33326359461693,38.253562888005526,39.559266408656924,35.449741990002764,43.475049874855856,40.52573958153938,25.711552650015403,27.87355639659934,35.13880478614545,27.70583214478389,27.542619736359182,37.079170135057886,30.118737049519083,20.352055107867784,28.55694915728859,32.21662144165055,25.40174180599422,31.03446059505888,36.14575645881352,23.136181057263627,17.65242157285696,27.3231215229325,27.706537755556692,27.591725504982247,41.69750411234348,45.449214986223616,34.52944103342899,35.136151150234426,36.75985814430041,21.97598664360992,14.765806526653776,20.978017549621953,17.286696503290433,15.970364796161999,32.779019544534,41.05109097561914,35.1938302186537,41.33958098453836,47.67057532548973,35.46550346735659,29.395788392245514,35.46472200126591,29.070310699137956,23.452756881371467,36.74125094232618,41.87370636032109,31.830560451091987,33.66335844516681,37.5824651015762,25.568185068798655,21.54034582401501,29.924689953985563,23.40999165933503,13.716937081728855,22.287814388918207,26.84322090874641,20.25431561116587,25.99247763115225,31.615870928035058,18.729996442851245,14.027672846834317,25.247745854822043,24.298760928742688,18.48421155268769,25.126978189251425,21.938878759814074,6.455079954969021,7.079388769809011,12.750558482477757,1.9932231100804207,-3.995208071241253,1.1842334000750556,-5.031204865139625,-8.858762437203026,8.652425776029247,20.64569407305794,16.52261911155457,19.05063345666984,18.20837618340802,-0.875327930972011,-3.9773687974388405,32.42699754256172,79.53727993490585,114.1064445309909,137.7430939023713,135.19846437618028,100.23566050511602,76.60025000015244,87.36460334229086,91.95564885746253,74.39278373223065,64.68667270028192,59.84652796527138,43.99008447717954,39.35581336495778,46.87273135613022,34.90472062699649,15.80054129004731,16.188691077428416,13.894143770105588,-2.5945182069599664,-7.927660063420172,-7.498680530083492,-19.311715125029302,-23.267359833911534,-14.657110576850652,-20.06797068101844,-31.133711148012388,-28.102513954110595,-30.555848178432868,-41.79242114691421,-34.50857308658901,-20.106543654043584,-21.927540746860586,-19.87711817645244,-8.2678111843061,-13.135152715619071,-23.194868777774182,-16.566045728103134,-15.649484780891441,-28.627918121961905,-30.98486583372012,-33.04214062187491,-52.24785007345084,-60.48483727163895,-48.00514471425065,-43.43297155696935,-41.78517869902336,-26.407553156372067,-20.590132656570944,-29.4942777419918,-24.339909504485377,-13.033074169273101,-14.860175066234426,-5.474254351794428,24.03501149415543,46.69640200278901,68.72569263351261,107.4270151385359,137.20010386661866,145.84151806556832,155.73988171172357,157.91176989189177,135.67218087044014,116.73162450683407,112.12940417218246,94.93418717764608,70.97911124652252,59.37903199132282,40.43250250629675,10.414453582307273,-3.13609722870328,-11.215952229057253,-37.12768653962125,-58.553624488171,-65.44675775396115,-82.28614080024398,-99.62930693470778,-97.5630797871544,-100.98833521586914,-120.76150971373653,-130.92740788445516,-138.66996424554785,-163.86952396700048,-182.5573304828294,-183.8978519161872,-193.65798317362487,-204.41292573480774,-196.51997064119018,-194.5923962767527,-209.48242340964512,-214.29526512628377,-213.91216820412606,-226.44048250839802,-229.50207045183984,-216.5762407611556,-217.0936148959441,-223.94305516537585,-213.35952966185428,-203.88527053131875,-202.9431981487743,-184.64649212232092,-158.1787253754535,-146.8865338004931,-131.69357948350176,-106.25506319426594,-98.52146460921378,-100.16313388105709,-86.00933858204743,-73.4538894619886,-71.77081833362888,-58.14926377402586,-42.41826478258406,-46.5031632732817,-47.69243864112171,-34.0601718248073,-30.65768755512075,-31.29359755301922,-14.969257806847956,-2.7466075643097088,-5.726966151448149,0.5697704544463451,9.888904527081689,2.0235394498439576,-0.033239372495669606,16.1750467097191,24.7116255866504,29.390528517870706,48.58418221227056,58.9351829408111,51.201536637066226,56.24194271364676,71.86376160441097,75.94754521924962,84.52699465440222,102.13199582043971,101.90948737222526,94.8713880433119,106.59194485531755,114.84876336649461,105.16988401760227,101.64686501930822,100.46340182084842,84.6044315172142,77.88671520780501,89.0997308661625,87.60672956039835,76.1273416469381,76.82498039954538,71.86718874406564,53.78875791862136,51.61641720357435,61.129281381950896,59.02914481872859,60.38437454197909,65.803070889145,44.65217541023026,11.42973534686523,1.0322564262206975,2.5675691551724626,6.867396727951276,28.395059659631773,47.480448584389954,40.492830340647785,35.67294839906233,48.678581006163114,51.79806385828488,47.90820688181608,58.90817662862081,65.38620341953273,56.91370825988819,59.35332144483681,66.32238498898046,55.0219222543637,47.29981529000408,56.04980145086552,53.88963120903652,44.80087036072321,53.79785775533373,63.21644212796082,59.877633408037255,66.76378198450217,78.29099141415934,73.56535471939405,73.5379108844908,88.51911696503282,90.57650244153919,83.56922660719573,90.64101193254535,93.83738959017148,82.38944943559581,81.47753227250888,85.8873879537023,73.4234844338981,64.13953385829296,69.32853607508979,62.74824187169718,49.97950332733694,54.35459044378264,55.0064028529027,39.11474810386061,33.748399854149966,36.18965541718319,25.18711696115046,21.280174763912015,35.42228215141386,39.32304985233486,36.11345898419619,48.60322134794415,57.79850284944067,52.46589327560367,58.21665830515975,68.75064751239022,60.09145968852796,53.04105855712492,62.300681254342074,63.43424977632597,58.645799817515545,66.14880637961558,64.27841263394077,43.80345311601771,35.82454641546129,39.01532583475243,28.938903886524734,21.11360771215615,25.734347299527773,17.886291909645934,3.7373251686329314,7.56762964965133,9.911295917087909,-2.561661073852987,-3.9339282235581305,2.7599098640546695,-5.187857273777681,-8.41763868849646,5.727962714157046,10.415939731045293,7.6824098776925815,19.414462660038016,26.17866067845592,15.083763163207827,11.393127099280527,16.151304326095833,18.9862331713714,36.39649219661476,58.25417161694928,55.11573786197389,38.33364579657581,22.902673058170798,5.09032288878657,0.9485939055580823,15.318442905082119,20.150916643207744,16.170380012330387,23.915450945998188,25.167547344707927,7.836290283333451,-1.333146182042622,-1.5229610809873149,-11.59656051978576,-13.455756945240164,-0.03511483433843665,-2.941656678100356,-19.1271488955282,-20.995060640334167,-24.444618337655,-43.31885106917109,-52.92651954302671,-55.10197094335281,-71.31134003785593,-82.57816672328751,-75.93838753322723,-77.88146742295508,-86.91198336052528,-79.79418544606752,-74.09825236986791,-82.5545704275615,-79.0213080144834,-66.90133688623635,-70.73763913602187,-71.6642864886591,-56.0394611180962,-51.25752337308206,-55.48584191295005,-44.227168433859816,-35.36811808858057,-43.15499003104111,-42.74523134177538,-37.53328314003078,-51.38919671775968,-64.01523578037505,-58.11153427891076,-58.689140559348786,-66.4297455946485,-59.9422402720511,-57.45666753739693,-72.55677926815068,-77.71802492749579,-71.86460179607252,-77.79543782074285,-79.55725199696417,-65.63446867457631,-63.132918835515646,-70.43710743833046,-63.05244595482122,-57.54355784866073,-67.41277017134061,-67.05278743444038,-58.05855103556849,-63.9877508222661,-68.05015396467047,-58.158105141537675,-60.063738959981045,-69.22495863027537,-59.47790203324545,-49.322253433148404,-57.303814424461365,-61.778415669460514,-61.44689418769471,-72.13850652096527,-71.63698031596294,-48.182284594961686,-35.250413970723685,-38.508847627620334,-33.561641244255554,-31.40969449706232,-41.92124997006695,-39.514952636148976,-27.271337974701858,-30.537604852893125,-32.031026174960154,-17.283694664883797,-13.868845140951471,-22.057350072099833,-16.37490434875616,-12.003765887907017,-22.037218544457993,-19.86681198667356,-7.684928619904918,-12.24127424803206,-17.6833703799193,-9.619374614210283,-13.89413199152019,-28.224518937426076,-25.910558729224704,-22.851026754063934,-34.26079672273017,-34.10844034373365,-21.260451756308377,-20.32548403619507,-18.1923601898128,-5.466240268811471,-14.968483245586356,-47.42480038054859,-67.20037226258447,-77.27635291360025,-86.30037648896565,-71.41675228412058,-45.341769519761655,-44.77152798820502,-51.67242962683533,-39.723699837832854,-29.187951266105465,-24.381902757578107,-8.302509412277534,-1.8614060009048068,-17.594950652646205,-21.678833136155564,-9.191455091379776,-8.045246280232206,-8.641180078614061,2.024916170690089,0.7175924347292355,-9.956369003120415,-2.931364831533462,6.97953704851333,2.5501632897274122,6.645122234694248,18.717777552122996,14.31220465848477,10.049390355114571,23.229751132937945,29.63714996797398,27.526540910822867,39.717900724725745,49.53745023795603,40.630951278808226,38.91168826422304,48.005587888851316,45.469658993909455,45.39866391247156,60.24238309428817,62.55228804415346,51.431085515202724,53.839894166254865,57.211442608273636,46.71238242940945,47.117303782769326,59.88850317531236,62.05910219662033,69.84390665660585,98.12657773819518,121.14582455960317,138.19183409785282,172.8910974312621,207.29678395284105,221.15981413885117,234.13220998363317,245.32323805088532,233.30290091918909,217.4356178416301,215.70001067909044,203.462829443161,178.867564775134,165.9282697956599,150.15718606339902,116.2037516703511,88.98510736093544,69.87500548344612,34.44187538809613,-0.6178894159869923,-15.104692654387124,-30.94204955615798,-49.95082847602557,-49.24042502290041,-47.39611572850423,-66.19547073733375,-82.53292806416816,-90.97253545136002,-111.21233509911033,-124.92778876239063,-115.24108299484845,-110.4798670200963,-116.80595292719333,-110.99803058110628,-106.51081576631566,-117.68372347863118,-118.15921751501546,-106.12231470105547,-107.78833586443086,-110.149396800457,-97.86020139944294,-96.24715319848448,-106.40088132610344,-101.01983353351537,-92.14715335218548,-96.01108772840496,-89.5393796739072,-72.33167319277888,-70.39113155766456,-70.432118724805,-55.524585260870595,-48.679628459501,-51.189418857062286,-38.15057047193018,-23.877198854923428,-25.894414676389392,-20.6343850988252,-5.9609451352540805,-6.142817465985141,-6.3038524055221234,10.96893102156131,21.27711856488122,21.342225004170054,34.36778059828261,44.06507368490049,32.083867972080576,24.869370420740864,28.817875170155176,20.733693394284842,14.779857656850591,28.655276211298712,37.29477038059994,35.819119602510284,47.13638248833679,54.65132365710658,39.59263049102107,31.032822673123526,39.6033753192958,42.06873014780453,47.16913605748608,66.88552663114203,74.36403513580188,67.04543137259068,73.03731913448803,80.79889422013716,71.16525385159858,66.89898784014129,72.62294670612283,63.94397801505805,53.00833705137278,57.192790628000054,53.972301986696074,41.71890637811608,45.57711680163736,50.48215696175427,37.21778240791511,30.8692019633921,37.765534698269406,33.99845408094819,30.63988590539184,42.41942820167987,44.143178210697066,33.72632275226815,38.91395110903876,47.74091116234587,41.625932257592964,43.37900162185564,55.60144413511184,51.90975260846362,44.026504179381284,50.181229582714735,48.31814713663838,35.35414260086472,35.853178460625145,36.52595198333076,19.498401996248788,10.480505618900484,16.06663266113684,11.566064436625958,7.907239898176066,20.38872589001898,22.48938232176473,9.644085215700173,9.222724880773143,10.95006167673292,-1.9306395247619133,-4.832437013203419,5.372459885003003,1.3796451841939406,-4.280085133109675,7.686086729828743,12.577315718162083,3.778290936307747,5.8174661562588925,7.9480774959450775,-5.857763423425391,-10.25040789259058,-1.0686242841375329,-6.194133565177525,-14.947380381092742,-7.742129953701989,-7.289226281032796,-18.731881126468807,-16.46344050822111,-11.037298589534652,-19.996479164642768,-20.1524587064776,-8.592536464605953,-13.202219083908812,-22.099294640647,-13.231760339488368,-8.107477836406247,-14.150851971320266,-8.956821779457702,-5.172784868927327,-20.812045473579897,-29.436075071813455,-22.971057557696643,-27.253746969327427,-32.39654502317066,-20.461649631098503,-16.651973810610855,-28.224024818126736,-29.018292299759512,-28.204130175173255,-42.16707888142001,-44.954889388051626,-31.714450040547888,-32.17155582483819,-37.48876258491552,-28.137798653462333,-26.810561156553973,-37.97274192029066,-34.87048152613516,-29.390761865213925,-40.906950903722105,-43.31123315424472,-28.376963581957536,-23.954323791160114,-24.41140498599426,-14.518723850737086,-17.388721360881277,-34.821815786458025,-36.001988536887254,-29.20670324230619,-35.40534032874442,-35.670544305226976,-26.953819844138735,-34.31569729172017,-43.789313786632945,-33.161489164927104,-25.239583262370914,-28.46058165723637,-20.943796735616395,-15.946211135397803,-31.063766219121938,-37.556761063821966,-25.020500550632512,-20.679682931535652,-19.089475451900473,-4.483307761380527,-0.9336296412115361,-13.98309117974116,-14.96058297535201,-10.995465079191336,-20.978511702747593,-22.61313015368456,-9.733421967709612,-10.04441864992925,-16.78117304832505,-11.485770042620068,-14.746532695921866,-29.259570636248114,-25.880206794990205,-14.597085117529971,-18.4087482254797,-18.0329780238995,-8.748241101183005,-16.180407419342593,-26.830973609227232,-16.49603637515472,-7.4121505002723875,-9.251899058467528,0.3178218270335975,7.6767409488863185,-7.443663579404027,-17.214433613823,-9.362791384540333,-8.127013854918802,-6.310697694182196,10.260337149079536,14.738183690801334,0.5215497136045295,-3.2555084382005615,-2.7744722800468855,-15.63588679685903,-18.0704960343092,-3.653640470041158,-1.00235582058058,-3.3849222178570813,6.997705114279357,6.388521594511202,-9.64969298943757,-9.7133003296351,-0.6331700509897047,-4.327095675055865,-2.3581193222175227,9.249596063271603,4.2632487536373755,-6.085290673685247,0.5291618839594516,2.456509561360952,-9.576621509707762,-11.008028865291298,-8.206365867880416,-17.897376517947396,-17.49523038636758,-0.9115434084702745,3.140317355169905,0.08852661667716921,10.028244511978928,13.454686751582404,3.8161214055441515,6.875465093960031,13.359794350123847,1.7165321876771467,-5.209835986353762,3.930245144416758,5.031685501270602,4.848284652719833,29.808364364936285,73.62068645492326,114.54181219740818,139.60319392527077,142.11291267162983,118.05970668063802,80.2653927321741,66.75185395360344,87.05233263991352,98.66967670849945,85.98703853926678,77.08396176863245,70.08864294525284,51.573964832386466,44.80332085958926,51.85164986502024,41.84642719138654,26.66355773177275,32.640630010049726,36.42123926440234,24.618337279955178,22.974378325415646,25.00712312264184,7.9116774192662005,-7.506817278641208,-8.574215497124914,-17.53614404265501,-26.647437629859244,-17.01011331744362,-13.241896831340703,-27.09621253727261,-32.53166482889093,-33.79128905078603,-48.07088065898804,-52.26752756595383,-38.0664009774619,-33.73338264918877,-35.41891331983532,-24.42187947134085,-21.014570247895726,-32.00757214261494,-30.25781585642609,-22.297279859913306,-28.912964527013813,-30.56169001509177,-20.62604461921211,-25.590754471272295,-36.7880020586288,-30.97202244601974,-28.305571347173018,-39.404919728443524,-39.96948630294712,-37.06934901391884,-51.12935157753874,-59.3193277466861,-50.516804167071314,-52.042650080126805,-59.30286481801936,-50.307134584001986,-44.44982684689492,-51.27405313878555,-45.69614516272455,-35.74724932034625,-43.687039678180064,-47.44958178129143,-34.81614868469919,-31.270036550592675,-33.14950049561011,-21.89833391660517,-18.49490271208736,-31.127406591667025,-31.557909278137544,-24.60842785424883,-32.120708276549976,-35.04063449096982,-25.000386874673907,-28.279133204210094,-37.395738863447164,-29.00327913167346,-23.119256443035127,-34.85271948273588,-50.27046781042864,-80.40837130878332,-134.22043317201934,-172.06020048434652,-169.73880037709552,-152.1566972344804,-130.31531621473763,-102.08427310061916,-91.04788404572284,-98.47596659365475,-91.53012657398793,-75.97208365837089,-76.53669012313257,-74.0795946273148,-56.75781632465832,-48.80645419208625,-44.80059968670368,-25.99674383248084,-15.238673048271416,-22.00619879047129,-18.52944175932702,-9.765763195873426,-16.00049552467851,-15.458624062665123,1.3887524059143743,6.358865281931537,3.555666324074729,14.825250214526056,21.892910773475634,16.187114134254898,22.82463963093448,33.864501866259396,27.37231613790688,25.809708767383047,41.25267605481652,47.298368969995835,47.487579709575336,61.483697603567606,68.46060832411077,59.40701053193325,64.09399645140235,81.48971788003513,92.00939230867672,115.15338466466508,159.0482881664789,193.2478259380114,216.70062675375857,247.0181362872557,263.36133638084607,255.0144208121015,250.35088007456358,248.2386001632848,227.19154940621831,205.83462474274384,195.94103010893264,172.9845051448536,143.37301338185313,130.72567622046793,114.28401316880887,81.48666611368098,59.87969225945177,46.658912050124066,20.499962315789574,2.098412552065751,1.0710044126402365,-12.662209611878628,-35.13488231475685,-41.270178454021575,-48.706378490764656,-67.73067431403736,-72.63601342583732,-71.29883839280828,-89.24318374901226,-105.62421897626032,-104.9236374188601,-110.42519358949941,-117.82438782828007,-106.95901329880729,-99.83920703280276,-109.63440266725425,-111.07465874278185,-107.62420594202416,-119.09608528720058,-123.08401802734664,-106.27314552732696,-95.87419746561157,-91.50541259072918,-73.80398458733428,-62.61000346973239,-67.9290796273595,-61.0669703332414,-45.744364742577694,-47.04396266394762,-46.07171249223199,-28.952934599219603,-21.73584561144338,-21.48653565329653,-6.276527185973192,2.253887741091362,-9.286695658606348,-12.142891866332896,-6.265291474640094,-12.392855820142156,-11.341149001681256,7.210740000884862,14.776634478303592,13.991455630428849,27.982563751024536,38.31270656972917,33.130678593292686,38.155951292779584,49.75605195537112,45.97139841744093,45.90685473780516,60.646855318519144,63.23092315371844,57.32570662055633,67.33741562051966,75.89428881762117,69.76285832715728,72.79336442428368,80.31221129986298,68.96608767240218,59.61631058439268,68.43974289234511,70.16879736816098,65.33955892148042,73.44110092549586,73.21023841242746,53.11552754840796,44.336608783436425,48.4726457171764,43.031297666585445,44.8916131632169,64.29781359693746,71.64375823731676,66.48209644913754,70.73217311083798,67.62019298662301,49.04146103714177,46.19670773946534,57.88414816227383,57.367215984890095,57.35329989683363,67.657418739071,63.64420968904071,51.479648580312755,56.741885591675164,61.025190430344736,49.979567621268586,47.96796012791146,51.0506520364471,36.23059156210074,24.252775059300276,30.591212252360314,29.002743741005688,19.6500827771275,24.455871826525392,25.697854921165472,11.251482402053387,8.523708912878119,16.570321539471532,11.288759711887966,8.867732798332375,21.978813555732447,24.194949751308343,16.08727128405037,20.719890941160752,22.14630539252565,8.996482657896069,7.543784276441992,15.03617979450505,7.055761606259921,0.3762383104288691,7.459650957316267,2.5839296089790293,-11.060829639609713,-9.130495349370507,-9.357686641118697,-25.32298441673934,-30.756972450523875,-26.146624525395925,-32.73755546789887,-31.603903893994495,-11.56095847692555,-3.451069771114488,-9.056261657240832,-4.870944657893272,-6.417888011914547,-24.406593643525703,-29.916278616751,-22.896762102113804,-27.154625100199468,-26.731522308516777,-10.914255212235572,-9.019175682910307,-20.661949340036852,-19.652936808886885,-19.91172314848278,-33.81590868821573,-36.06080390987084,-29.475821222767536,-38.97070314940055,-46.801736928926665,-37.79813800350439,-37.243186556784735,-43.654275244216606,-32.86211921071684,-22.662353376534732,-28.996077144717763,-28.02846642693735,-21.757689523355403,-33.226251594185634,-43.25691860191204,-35.55535403291567,-34.654073339171795,-40.71025420174742,-32.60153937143949,-28.926767515466747,-44.30773197889479,-52.182821642528324,-50.29430170852133,-59.3458698447157,-62.04157977259392,-46.67886401882504,-42.15745201281501,-48.41177180280633,-39.88602008256052,-32.179227624030105,-39.81292327513961,-38.04337407765347,-28.66824031514065,-35.98438956088647,-42.41797912283888,-33.13826495520814,-34.66473656179724,-46.36569743941904,-41.8099511916223,-35.214642760436625,-41.750704638781656,-39.39740266276751,-31.507308387133516,-41.489488230029984,-50.06921832361327,-40.100196005097,-35.74047889079273,-37.72758646559352,-24.845444748440578,-15.449215025305865,-24.775274776312504,-27.15468777122207,-22.238357383007234,-32.86999629963907,-40.34677074464108,-27.725997336177535,-20.607835674951026,-21.499234382233073,-9.7448716864501,-4.413318404454343,-20.82256224297141,-29.37463385357522,-23.83748174995995,-26.818585113077688,-25.89824509972548,-9.789344959085945,-5.697855555989413,-13.757543410368845,-7.747119289208255,-2.4407179246170836,-13.713048801892,-16.60193687333626,-9.783827960894314,-16.023331204609132,-19.136886421404952,-5.749458926283346,-3.4242427214291706,-13.18957037901213,-9.492872231368612,-6.206508990470821,-17.070250693726695,-16.01096859657429,-3.6031667941212193,-6.550982649137616,-10.246464044641158,0.48717539603801363,0.5462379921589653,-9.435924443062213,-3.73531243129948,2.2916937139736655,-7.76061519624465,-9.671282604002126,-2.582538261789197,-10.05222088947755,-15.155047166135184,-1.673467222618287,3.3814145338423387,-3.030274815228956,3.3961722161504584,7.476826729077444,-6.314384586926639,-11.111335724264785,-3.933406389981839,-8.683529376537598,-9.749229848380423,8.132624348853753,17.010750958839257,12.223420299245367,17.17042886702179,18.708824154492433,4.432102397351992,2.3651260152401536,14.614268561232485,14.050299461159161,8.339545069790152,12.740838120951109,25.351845289978087,54.128268078667794,91.28003789796817,110.79839905868,106.83432591417699,83.73627053739867,56.985322809941735,54.018997460963476,64.28849869531747,56.869657958155194,45.37317241453753,47.394279333544745,43.58353246323903,36.14005550888599,44.43772439345505,46.13769636528383,26.638400186334657,17.478148032302542,21.13897276478064,10.105399390181269,2.6121292642187908,31.87589080551576,88.58437785548074,144.44593318984138,178.30278329135882,177.85495126185097,142.5715598007795,97.47833072124132,85.78620991599757,105.2904068454201,105.31588546847743,78.89802030509591,60.481891042722765,47.29889281027701,29.54024489401585,28.06881751083933,33.68822329467409,17.72930038462386,2.7047678357200153,10.64574832688966,11.76017829233319,-0.9040453784011211,-0.4691204142623593,0.4674009063318083,-17.12464424572147,-29.50457758477177,-31.334053641269783,-43.633951294831576,-50.735345518604134,-38.762037645138776,-37.14260531179605,-48.86585491892571,-45.70787781195783,-40.20896349181139,-50.871501101587704,-55.354043380088214,-51.79661426057443,-63.11676033521812,-71.68590776386614,-59.21317104829933,-53.60481834464768,-61.92970671611918,-59.64353611495807,-57.6162550621083,-70.17799672107203,-71.62801553742625,-66.8268382276469,-101.88749398696255,-171.369441684746,-236.14895481099225,-291.86761532111194,-319.5571228987623,-280.7640981621911,-202.51402665780793,-147.00351175849462,-121.8972938980373,-108.20311608872106,-112.87026550032525,-126.52509984305307,-113.41997290622342,-84.06602129774458,-75.70431713645264,-74.44303115058821,-60.431297666521104,-56.95477542291886,-64.91048975526877,-58.10519894630861,-50.56523526685865,-58.78438311165784,-56.81140666743886,-42.56124500379428,-44.42502440827395,-49.954613198367305,-38.42089313517525,-30.134779089561185,-28.181280857737306,-11.474202591347419,1.779514775566149,-7.017386918767556,-9.278126815064493,2.914145046537757,4.197141955756334,5.19445483887154,21.307936128712544,26.252438688012692,16.859752589466304,22.48067614270128,32.780755396925045,28.641836218343656,32.739478594594566,48.60754766167417,51.346197591824264,55.846450515744365,82.03896878609181,105.90710243745428,122.35598579721841,154.51200458027972,187.62183657149322,202.7482481554792,220.84232150601053,240.92204990836598,236.6739687848682,223.90641568841806,223.7958176281234,215.1419806024215,194.477289558373,183.9453922072617,168.96467149535087,134.39240964740975,108.70406882703882,97.96122520911415,76.03339737728467,53.871148555382014,47.75320047601831,32.203010851141386,3.1613308481875126,-12.269496726516492,-23.871746909685704,-47.30635742099909,-58.735126124730826,-56.46178713564424,-68.81740938212647,-85.44953262496807,-87.7198607143385,-96.4956220759341,-113.79002634471249,-114.14692031498828,-110.53739972575681,-121.93897884804585,-125.02169005429812,-114.61676012662349,-114.81425463491236,-113.71802728143471,-95.98852858435149,-88.93470062794722,-97.38947313251455,-92.35577998797085,-82.29466006423417,-84.68621045619385,-77.08600735686667,-57.24249138866968,-53.07300491439719,-53.788336262216255,-40.386725372435855,-35.28914539088408,-42.15876057043602,-33.56141570226168,-19.7976668512358,-21.513829386527714,-18.733991704487654,-7.129880218249957,-9.887066661867516,-12.972738385078403,2.6860896782223875,12.084892981130679,8.36466012324197,16.164788964885766,24.406290503407966,16.404652273926125,17.232319402192136,31.3975228360247,32.47379644399765,31.767127845426707,46.938579913805135,53.35233128866981,46.390372736753186,53.496993883534955,64.35016790490528,59.36161003797897,60.4439213042554,72.04038507317168,68.73244569139821,63.14538776931728,75.7299149159963,82.54345221282433,75.33245748812068,78.3302485172191,81.81453593906745,68.63574654004131,63.16446455049035,71.39153667847962,66.46104318477609,57.98880896380092,65.97404909253893,68.34400418531173,58.57974655166735,61.05737459352301,64.53352783974249,51.55145335151887,48.12141876199799,61.15937235942261,64.36066243242922,66.03830507976954,80.54945847039518,82.2100126136461,66.95480230115572,63.627670784388386,65.26556231561817,55.330030470467676,55.045397719035556,65.41899940902825,58.27135309069935,46.53140940607251,53.18665172679506,56.66914527188948,49.15562210707442,52.07948334040488,52.10962301370242,32.77225409172789,23.099088554888397,32.48840226626021,34.00905130541446,34.414878392161604,49.04976857937534,52.1594630826621,37.01530122333208,31.37522472571672,28.060375214003233,10.68905799787384,5.079519033395715,17.95136783712745,19.19568005469972,13.41701768751904,17.901157067831637,11.945432412290174,-5.816530619952172,-4.475369920504827,6.967110435552234,4.470268462613605,4.819832230698541,11.808962133190574,1.3050333016039897,-11.80376106046758,-3.4002661788382333,3.9105902346848973,0.2450962035837132,7.647327436000923,12.524917411000157,-5.770001363206965,-19.944086952106577,-17.04523390749748,-23.11565924664606,-37.29328675322283,-47.71066462407854,-74.68877920105481,-114.085640205104,-125.1078432853177,-110.2903652015741,-100.53115080066173,-90.01219789397216,-76.44484782855666,-79.5828322410603,-83.48828748803095,-67.0415335647398,-55.87599813234857,-60.586687399930774,-55.46035704301069,-46.64472181072331,-52.14171034258868,-51.60587461992256,-39.8040304008783,-41.48064391038047,-46.002530697504724,-33.56027187391177,-27.006894602227185,-34.16847928006714,-30.003692204615923,-23.489911089850956,-33.237351223428824,-36.07873936243794,-24.514140271487676,-24.58452432840393,-28.22055958714038,-15.983093438163746,-9.689170259905557,-16.925363305501012,-12.792054143710995,-6.965746466532375,-19.09870464022509,-24.38606608711561,-12.040232079637832,-7.929346991639788,-7.103943530931479,6.600495874262039,9.875031732245121,-3.1016885503828027,-2.04938592610422,7.678251951277801,3.623754061829091,2.8765054648600064,11.183782156731562,3.7805795376773492,-7.9142847476313545,-0.4403455771475082,4.576688570276294,-3.1969154114257914,0.3578379106536058,6.402230997822804,-5.471724693117457,-12.399426895692617,-4.414039318152784,-5.839933099712188,-8.081411851767399,7.31273373945673,14.97686374847676,4.937341318944155,4.56844608128258,8.721012290826598,-0.7085175494076035,-1.4595839363198633,12.791964328301582,13.304622497964719,6.347183072203336,11.990181499580329,10.175413034145315,-3.8706564719321834,-1.952071301912702,7.227309705093199,0.5142457455355318,-3.4364526409649123,3.1017101235188034,-2.0783273871237937,-6.924163637682396,8.55253001071944,17.973813537124045,8.758513486364928,6.842157522071657,7.785662193328457,-4.874248272010803,-7.328745094251042,6.565287995889599,6.152731880155362,-2.4760981124597854,3.41066182772923,5.096788696605935,-3.7976180323829953,3.0534008294113586,14.51040524424877,4.975755498650788,-4.645989697875312,-1.8442455176975299,-7.929845540983525,-12.61660208086523,2.309566732036565,9.145643489838122,-3.0549588014935463,-4.7202697763681964,0.6207895812360231,-6.49401254253206,-6.371693241997248,5.712333205668605,2.199628063470614,-6.4377194677876695,3.2793590471332354,9.076270094328356,-0.237462650709805,-0.040789153170980974,2.641555704824465,-10.771274607030783,-16.300159604797976,-5.535693820412387,-6.689477303897374,-12.748697078928167,-2.560674605718397,2.0340904867958183,-8.13901141212255,-7.2959109638456034,-2.6114153945676235,-13.02091391723797,-14.214811076910241,3.4875928071224473,10.48320945097424,8.36534909563149,15.31428793940253,11.866722229540176,-6.347757934468126,-8.343817470401842,-0.11576940868764707,-6.5758147866309855,-10.762671014818476,-3.837186625197174,-8.773805505873161,-15.94361921448105,-4.480423313552238,2.415889929375266,-6.749715877350537,-6.4791520036254875,-1.2826104043080218,-9.146093663604267,-8.035266016151736,9.73488907579529,14.824814182879345,10.272427823271958,15.257632317771138,10.710511094551364,-8.260781051821926,-12.168377821161261,-7.455901193437077,-17.85260791659315,-24.290324724926414,-15.981623864920632,-16.805688390754998,-20.02518920955754,-6.3681435496273044,0.046738251314150436,-12.289503273316129,-15.14049943997455,-11.017769417010392,-19.691862652005447,-21.02287703660785,-6.614106886762842,-4.306615881927677,-9.700069432570826,-2.030227538414994,-0.499210720668309,-12.773148227402585,-11.558063964855567,-3.093124344918935,-10.61981285596203,-15.91426576444367,-8.97278325415146,-12.867364751758604,-19.621998965429267,-8.849527506414711,-3.0767137502862676,-13.482210546579772,-13.603026832558882,-8.234507047803845,-18.85754474974039,-24.658734456733004,-13.942815512819505,-11.292487226148017,-10.343684009604235,7.998762473714019,17.760218869904147,6.016910825657648,2.2257654170682777,5.945568613545254,-1.7341907962445902,-1.0838016356281948,14.663860130224155,15.700656508504643,7.0008528957413505,11.91536705446072,11.705296891167588,-2.6525766337026475,-3.9894036129874824,2.2011129885849154,-6.4650991297046065,-10.292444103465886,0.5301492641014649,-0.41374699404664605,-7.028808231141853,3.1114153286366824,9.122080236969161,-0.43905713595287654,0.7855649175568451,7.75084796806701,-1.4032338759165555,-5.793814982319243,5.150873534588583,3.8891054305339567,-4.598319719093553,2.634366132889112,6.12717880223497,-4.481697228322842,-3.201191413390429,3.8286144537005837,-5.808085438895619,-11.399844483243958,-1.7137988684226864,-3.1829122170229933,-10.510589107366313,-0.5707259901421331,6.682478777376462,-0.7159199687493247,2.947118400647335,12.035213912509786,3.65912797737736,-0.8828380747218578,11.238832639055037,13.5352847747337,9.510312065101651,20.65992901559013,27.335547926369976,18.542552955760087,20.401586740470805,29.351001357627723,24.601848263611863,26.71831114274662,48.00497143909464,62.99153838344941,75.31201829598734,105.21697563038822,131.21178940012607,140.48468845441806,156.38177216689343,170.75383715283644,160.58157165181092,148.48022522959008,148.7793281012056,136.9544402607566,117.56046275963732,110.83629369658402,95.7457900997414,63.10041300917884,42.89067576957838,32.69847888212094,9.445099382438599,-9.217878022722703,-13.649745192037994,-30.486593745226923,-53.628968780059346,-58.300147426581084,-63.91321660071962,-84.09919287501336,-94.48720533009521,-99.30541504351422,-119.04412946203927,-131.31388888808434,-124.21067437427753,-127.16669125958555,-138.68670028062564,-135.86045822007497,-136.18289721387816,-149.40967187338168,-148.07972089320592,-136.6618111401952,-139.955664566505,-140.37553532027374,-126.74882908694957,-126.01327111979394,-133.6097216165517,-124.08203802217177,-115.35481721361242,-120.44696058767681,-113.8743690684507,-99.52705853414892,-100.51710288392678,-97.60305460881334,-79.61604655605817,-75.69988189807114,-83.79070513368347,-78.8394061289262,-75.9419141472232,-83.07111089623096,-71.53716687205552,-47.70799781151885,-41.037572530780686,-36.671550271907776,-22.054495783944162,-20.372208179988398,-24.69862475195108,-10.564088244039208,1.5987433304931704,-2.7394409077365944,3.0880759953174772,17.365192856166487,16.07727316797336,16.28431592552667,30.946802492325364,35.219601444230555,32.11306245508875,43.9893569486241,51.91112785744095,42.52282050437125,42.363324396794724,51.03906299357823,45.71728421861346,42.81862587995509,55.29501286740381,58.914600291518326,56.516503935007556,69.2444736660376,75.66977313746932,61.19974206088526,53.97004512917396,56.52741135080748,49.59570192395183,50.35072042887656,66.07663221474152,66.0665404681385,53.515085322417264,55.78032525678783,58.24993310264488,48.926468878839465,51.385513600741376,59.841768551738824,51.23996543637506,47.08278231033897,61.884502512544415,67.4876524970635,63.072334536677026,70.10709924038392,71.13225716570034,56.186802746395685,54.341552406459186,63.573940332819056,58.80973951548057,56.109984412832844,66.67424250814635,63.877346724668826,51.24027281308023,53.48643562244175,53.63995968496343,39.86899725202816,38.220488510042216,44.90243006302564,36.08675752673512,30.86180527675966,42.00668279636979,41.825030043813854,32.52562355301223,38.425352741593954,41.683542220595214,29.578836176697052,28.46445692203512,34.82856726535067,24.062227702497072,15.940471056307457,26.85347316297618,30.692920653864718,26.24483742333259,34.792248067573254,38.13325076716694,23.064055782810293,17.587127693635065,22.574967908138934,14.548827870746642,9.988550528065874,22.271823619604532,24.846818170664566,17.433945483993956,22.110876020006014,21.913164064283826,5.235641733618349,-0.260641808893987,5.280843686993942,-0.9523025688172542,-2.9917455525684957,10.077879964570467,11.438515535469161,3.3305593291399753,10.416808902979268,16.273795995445266,6.966850627864961,6.983412557408802,14.132540107979866,4.9108284972213765,-2.7362315689582988,5.7643770319361245,4.760203039009706,-4.622988784374166,1.1304724652996274,3.7575084647339922,-11.619115719705361,-18.750664470780105,-17.26321527657563,-28.268802234445968,-32.452892236732936,-17.021328907534024,-11.345319276427174,-17.47662701866942,-13.220908190635088,-13.92814417310618,-28.79991350777911,-28.76984506812655,-16.056932005559766,-18.5059070069385,-22.56099154614974,-14.490560194129902,-17.3236002283739,-26.67412565683122,-17.603072827054785,-9.474254680739325,-19.820752399336136,-23.91547115673062,-20.937381360433285,-32.10396086100433,-38.4342605346478,-25.320222253758672,-20.706192490170817,-27.435835158436873,-23.109497275139354,-22.39059509272856,-36.26551997248687,-37.3238024490238,-26.17475684325033,-28.294816327330533,-29.988430780515262,-18.6195058350817,-19.00195637578532,-29.00484304584352,-23.216629828635003,-17.23054151588488,-26.032913372559445,-26.34197454118297,-20.64113963350707,-31.422925440212808,-37.850504854434234,-23.05331803709989,-14.474648996209165,-16.319626058604406,-8.72999619289844,-8.335518173608405,-25.554474817595523,-30.069177453350115,-20.990787653348633,-25.42538570817127,-30.32778610059725,-21.07108911509988,-21.35871545794715,-29.744355333152363,-21.374523509841104,-13.030947767533462,-21.335792332942265,-20.896424699865914,-10.267687061441753,-14.066079701222062,-17.655346475628846,-6.414138399540743,-5.70667021547455,-14.77741139142623,-7.434770199634114,0.34562273674570543,-8.804478559533894,-11.158663235748472,-6.18914347044268,-16.184831255928774,-22.442224380639985,-8.797428503720532,-3.230877270196986,-10.422666099277082,-7.97619739616333,-9.745957345802925,-27.05674077146146,-30.981760976368186,-19.814108771106277,-20.068402047635008,-19.13193501296091,-3.2194028227797657,2.038673414118042,-4.08726163933447,2.579497885513429,6.2510123633448496,-7.705588657775249,-11.35716785341936,-1.5209396075481365,-3.8984594931595744,-6.933019321790827,2.596544830548612,0.5758684631974109,-10.81223694084136,-4.2843273577186345,4.83321071813481,-2.61532023516963,-4.814068695253994,0.37212164342330656,-8.0183550538893,-13.436757618925228,-1.049329351457323,2.775441116679631,-4.13675259529816,2.9797428544655764,10.133609571054485,1.404642217465912,0.17765962201750884,7.360949180948447,0.72575471823821,-3.0448664060396817,10.46066273953671,13.941319304940254,4.850859429550821,8.255051703065229,12.214274191866469,2.931057316431834,2.578623032595654,8.875906954669391,-1.7274052288031134,-10.840993698636744,-0.7317593135776352,3.2860811529815708,-2.411755897151316,4.068667748409615,7.585905444738515,-5.330069992413875,-8.166489095996111,-0.2571072672473136,-5.901965162043229,-8.3338347823973,8.185749403915644,16.282102144782602,12.266426061798764,18.729125908242626,20.42520180510742,4.304030830049705,-1.465439297588911,5.172247855256014,-1.3918898787150664,-7.052275958804944,4.211105248033479,7.562180870939928,1.5969156921615273,10.69481917130963,17.689183814141636,3.729751674012845,-4.617377628924256,-0.2990486099160341,-4.88811122589096,-5.127465302697785,11.461530789418845,15.616170609483326,3.9998318887470266,5.49366883224341,10.09235458857248,1.1276997364384966,0.9262429353966841,9.416848629847758,0.8025896522434399,-8.759350253374457,0.7022392421460086,5.7359504165411765,2.0525821676322766,11.458905732221186,17.064409395898867,0.6361020320609869,-10.189785197852544,-6.307463191792037,-8.73663074390675,-4.935015021563988,17.242112900043736,26.984042892502266,17.655369110786275,16.384330417117138,15.21762278583151,1.1651900889202507,-1.0770412358273234,9.339388965177886,5.462165209263162,0.1773711707743939,11.062025799786197,13.891256281940686,4.177377294175717,5.791421089374865,6.740218323206741,-7.687478119458721,-11.254145150836345,-0.32724525471571386,-1.6780771461964097,-3.818992103826496,9.904884594661606,14.58436899605551,6.733706419509376,11.677247133307862,16.04629061164893,3.470444461681036,0.32940075439138905,10.022996797234633,5.970865521081097,1.1456576350742431,12.669875684117303,14.955025803793232,4.721445626344541,8.36769296479411,13.04753377763435,1.790858014374285,-0.3023001367105651,9.099914754994028,2.6432786825078582,-6.117978004170111,3.376289878872221,8.3860110235297,3.594863339722348,10.789857846569218,14.101614461981743,-3.8987348266731097,-14.918245184421934,-10.31104161222363,-14.098204216397548,-16.739202704618492,-4.194637894162733,-1.2643797404023691,-9.793506072966037,-1.6771503939159222,11.36609290631699,9.620272682373193,15.308036501717192,33.50695830908902,42.23159113480408,57.06680878248188,95.90323795578237,130.42245081509233,150.86840884312556,178.83167294356588,199.32125757303567,193.4120144073558,186.95006688197333,186.34354692988694,167.4759224414149,144.1873827448515,134.50002498609143,112.44399441022114,74.32779697076282,50.522342405528505,33.24426148621633,5.179074150320735,-12.103314459516174,-18.819718552612972,-43.6423438384009,-72.43174119069892,-82.40747608790195,-95.44512979926219,-117.61335716552011,-125.50245738695645,-131.21874418220344,-151.30538085341752,-160.56403478136423,-155.05495759324296,-162.17426434962235,-170.85194699031294,-162.1269332234957,-158.95340927435987,-166.02360802900418,-158.87992666222004,-150.7157030386794,-159.5372789069502,-159.61977123411737,-145.132005685725,-142.10211553779692,-139.4546901529015,-119.35098973888101,-106.89784469679374,-108.84388604025358,-100.07905568140389,-92.41783261142126,-104.09437854218217,-106.99135837083129,-90.69564713304675,-80.99295358143516,-70.81311687491669,-46.601552467569554,-36.05728138974595,-44.2720849440132,-39.90748556882744,-28.89634133754337,-30.226037457321812,-23.525969215767333,-5.410297870149684,-2.454541482960961,-3.681181849046899,10.68946205899709,17.868108694089567,11.684407564273867,17.895584549925267,26.55209796512107,18.363287727289254,15.56902458011619,24.59736131532232,21.230713098913736,17.112128402715,32.778710704559785,45.24897219629134,44.88260808238673,53.208518481962884,58.87101338195455,45.17970210164008,39.80983565431901,52.92903837210992,58.403755208286604,60.899793119291154,73.9766355966751,74.4471677706654,59.99346969873456,59.781473203932244,64.29559592571943,53.077053802096955,48.072514856661144,56.305053150123044,53.96016870861886,51.348677008562,65.34147398524115,70.42637101118068,59.091583686405116,58.433606026131535,61.175644240838054,49.594879288907336,47.357601999480494,60.79234347046635,61.60299625580613,56.99009118997368,65.90321101981908,66.18988986648193,52.18923674566362,51.64919256081636,56.30762418611079,46.41215694318846,44.27075129491651,56.15153132080964,54.723045369857815,48.64030671891948,57.758750734273036,59.13847907290857,44.568897308118146,39.58336247686614,37.391231789238006,23.215703195736996,23.249052924879848,42.887940563272345,48.97531582010416,43.81150314005379,46.76437347907796,41.331721141676496,27.251914259220282,32.08980030819873,42.13970660012817,32.16542230306545,23.57592936312964,27.166205463372396,21.28718739201205,16.821019373559793,31.637785676732836,38.35433842192434,26.496969645514923,23.44839659607025,23.461417853339853,9.680634112577334,6.604735280229725,20.486547651648756,20.720780292193584,12.389595478283624,16.23517988345967,13.076762855111907,-2.3799076846779412,-2.4941683728253126,3.7366514157936326,-6.613949071827928,-12.553398941757006,-5.326771661444522,-10.5153943723464,-19.214861531339793,-10.360783225138452,-5.846719293802192,-13.837553769174676,-9.089206136880197,-1.6118045068306106,-12.6538608690657,-18.676721102212003,-9.204267142783879,-10.240741600324093,-15.70416660589498,-6.883073398280653,-6.900119947885924,-23.815161459553632,-28.356536860170813,-25.161648723317207,-33.96614734707648,-33.51096194978487,-16.757886299837715,-12.044928725049749,-13.488533645535288,-1.0853497418758806,3.627321528841874,-7.759987423226574,-8.709364295787793,-5.740026372733453,-17.82992152338549,-22.273397336727093,-11.606668420283015,-13.401463740572828,-19.7015088116446,-9.585008535531022,-5.546541269616489,-16.3515924397216,-15.701586019363791,-11.77361576733995,-24.595070220207404,-30.30031581357617,-19.908178839828835,-20.686055764549458,-24.624910676218793,-11.14576315451392,-4.640379661813142,-15.60572103176386,-16.804101308991864,-13.92117338696278,-26.298522381457843,-31.5275317760121,-21.774153053434397,-24.80405487521852,-32.652425683906344,-22.752629089263234,-17.366193757102803,-28.083670255022767,-29.8648430183112,-28.690043998917034,-42.12781642112733,-44.747503905389586,-27.51866545125861,-20.815253859303475,-20.87504356825528,-7.776392225848699,-2.6639233569346077,-12.928329963203796,-10.471261541719908,-3.109209255139742,-13.639967240165204,-19.423124917104523,-9.456692420589484,-10.490072658637569,-16.134586086805513,-6.531084934172661,-5.550722455770639,-22.515273846146197,-27.909059722192197,-25.00221825465902,-33.46296338307537,-33.22237552599282,-17.60982628457016,-15.881187036017135,-22.420248158128782,-13.847807238892138,-8.951465794166669,-17.517011570054535,-14.684001849109091,-7.861250362293379,-18.74143392844424,-25.336968519648305,-16.01007828019157,-16.56180865409927,-22.04128346852848,-12.242827644425399,-8.15902367146074,-19.224481012960187,-18.597681648180586,-11.625481777144417,-19.592172810914217,-22.84163939777106,-12.331477266870788,-13.240081672174014,-18.18740519050983,-5.937891940474405,1.3001830687692009,-8.499307868563765,-10.00076748822216,-7.2080262457407684,-18.220169565995207,-20.68443539217695,-6.042341216123509,-3.879153196169793,-10.908965645550243,-5.7839192665829815,-6.587503857397562,-19.121261272872367,-14.981705972697652,-1.8869657412634115,-4.400557279428444,-4.536435669282843,6.126371018984862,2.8520855321981022,-5.521433254863023,2.864233583951682,5.768493823261596,-6.766531388691673,-6.275270215469776,2.9835630371598105,-1.3104892610040397,-0.8440716825532237,12.230235135145307,10.568664973177714,1.1269201944151868,7.6126816680487925,9.235674834342715,-4.854706727235798,-5.761064266381975,3.783565346989488,1.120351794714208,2.91505849869395,16.14454532104807,13.96603395856786,4.935699000408462,14.470868097084237,21.383348548860198,11.532763463362855,10.359479364443454,14.050984444437136,2.165956236576931,-3.2266273409656447,8.927002380002074,9.962986243154866,3.7861587288124716,13.366700208817486,18.073683626333395,6.29823037924361,5.663955445119002,11.850174305910793,2.021430919104858,-3.370020629807072,7.54050495958187,8.213153431017375,2.6477205328764293,12.090100659859864,16.492294738218206,5.920259561997482,6.9375124378678485,13.823160505365749,3.674422637124924,-3.926569496191065,3.388711520533521,2.440544751998678,-1.2213459157497966,12.080592165160704,20.088570787854238,10.323517024443321,8.444104104690902,10.915652901729608,-2.5107113309191087,-10.275639186281841,0.17288780779693447,2.545226006306842,-0.19956198935484726,12.45176971336143,19.193843709298353,7.799257203044099,5.584251396318079,10.002081484832484,-0.1709630963542379,-4.568429896368939,7.3998706011997735,6.7024773976073,-3.643626376352256,0.9645349951077802,4.19194143621618,-3.6364177607447328,2.471792846661044,13.809974863121687,4.94203005288738,-2.4025658012174445,6.816894468885653,7.462192310751481,3.365155239156094,15.031227819815838,20.453556342407623,8.616648251971,8.543723561307637,17.252386855089778,11.451582783983753,9.65919599738336,21.77641275387983,19.025875649584513,6.126475483897216,10.227285997241804,15.067551091060857,7.99142590465945,12.249363485256746,20.25693281829384,8.042753347426949,-0.7528806797322394,11.184766312005427,17.150886878706498,15.889171573430293,24.974141370616163,22.68893807897888,0.386346265112687,-8.230425742372903,-2.2478253487522246,-5.876214742811436,-5.1942333691190825,7.105981217814941,3.6399109825838334,-9.170319849392763,-3.4861620583150756,3.8123339873329316,-2.7276209251031456,-0.5822195942461397,6.481800291215708,-2.68818598011521,-6.091375572453757,10.826807334218769,20.752548377526807,24.99899099374437,47.68200523725985,73.09256828454922,89.62341755778357,121.12993250508437,160.37189687046308,178.40822686976026,188.76468560705143,203.326173715686,198.9119863167736,182.81631551693312,181.9968519568712,177.97145158260156,154.06393893436922,132.40770662304405,111.22390685049972,74.46345345101929,47.052096455032185,41.32525050912983,26.04058604236957,-0.8251358675650504,-16.780478902700974,-36.17731993397569,-67.27524789459466,-83.19814951864888,-89.2111952555587,-111.14058694625756,-130.62379145109128,-133.48991785438125,-145.84555748925564,-165.69720428472968,-168.58931533469806,-170.2210947698299,-181.88568571140658,-177.87488307949812,-163.4162491553092,-165.45472298169892,-167.15941052365136,-154.8340170938335,-153.66201293159503,-160.48970641545725,-151.87338710445306,-145.43849103814907,-152.51162154970046,-146.91902597454805,-133.01472645339393,-135.41759245932184,-135.6823869738181,-119.27267404061669,-110.94201939990846,-108.85789332060396,-91.34585507838658,-78.33112188853913,-83.98995630225353,-81.39437898721941,-71.43116204733852,-76.89802151989217,-78.27816218628081,-60.7312411188295,-50.82591810103453,-47.94296288888452,-29.986769428140622,-16.88353755807585,-23.19098668076738,-21.048693393330733,-9.586541063499013,-12.01112154248326,-11.624385916161229,4.189619602157948,8.864418050667831,5.277817187852441,18.758836361794977,30.61988091467,24.388981929858463,24.970679535243782,32.50758377975939,26.3066816698388,25.012233418594892,40.381030521261756,44.05254000516208,37.06834947704962,44.68853957361727,51.20572127257425,43.12371242289103,45.611204703039064,56.181782242519546,50.68405922453657,47.518737117510895,61.28196191700547,65.28003061566366,59.629688333275006,67.21012467716163,70.35996481071867,56.29663924309318,53.445814746249155,62.41551507763286,59.12014406449366,58.52804159790142,71.25703335388631,69.68264043932213,56.69416577103935,59.92653049253418,65.53399474133712,59.24324152145542,62.39722774910743,69.54097209941969,57.195318564862305,47.445035944497775,59.31254544332195,67.20827134463903,67.18935728925088,76.82695538352426,77.00890166222506,57.82979214004031,50.98770967377493,57.4004638692624,50.96009109948109,45.519924425706776,53.26220562596119,48.544716957375456,34.55833234358405,37.672800585816404,41.23593806244078,30.810548827847033,33.145380574553535,46.01670194153817,41.88750073642672,37.04970782638237,46.92337517383373,45.60057227982041,34.06785213310775,36.246610729862546,34.450886180737925,16.113773875632234,10.783632121368797,19.096137153512338,15.45296866304718,14.151796988564662,27.215433576260537,27.991689875398265,17.483212001988868,19.865226877460742,19.15220190092914,3.4577601794529977,1.1271460827084825,11.702444351338155,9.009053862939924,7.011411682281437,17.91399277186159,16.184934677272743,4.857104415878175,9.74190285753513,14.531573369111069,4.706641489137395,5.426997820374698,14.708635088683602,7.30432313051016,0.2990339377301132,8.459804291782975,5.6480545166069565,-6.378959134402903,-1.1922038323954904,5.622839879641229,-1.180813315365354,1.8415725058814512,11.095833519821468,1.134319412897728,-9.086177071796579,-1.194634408342421,0.9998946845010535,-3.555191863042653,5.663976652170605,9.853580978633369,-4.825794098799652,-10.234124537799653,-4.717094875071593,-12.219546456222869,-17.210518348503122,-6.0790903322372065,-4.899467617892788,-13.017613846858849,-7.025720468075062,-4.926410733442182,-20.096689478641,-23.09526036884274,-12.377762829301941,-13.850854380475637,-14.077257795510386,-0.5070924685845313,0.8624758559662931,-8.187784569431127,-2.3542455355918364,0.6232803018319253,-15.787105111332364,-24.54138971157812,-15.279263738427005,4.777477176006871,45.85398712490593,88.97865203032134,94.84419817839301,71.84247434239836,45.51215291614045,23.38277401882631,22.243013000278523,40.076614673182235,40.651665891568584,23.57265718555123,18.56755330913714,16.10755288776067,2.6787861841297547,-0.8111129629185698,2.8876392745872685,-7.700750176293621,-13.42253920676108,-1.7193652486924291,-3.109689555913701,-17.807112741884907,-17.420280877515108,-16.369455537016513,-31.10487380422008,-36.62113953375441,-31.271609172517365,-38.3577080508253,-42.73972395170042,-31.10433387570408,-30.487094231093195,-42.086606759226186,-41.19352257073878,-41.91620480287857,-56.91371276571702,-58.793224448988475,-47.13905132457401,-48.41995582298291,-49.35059546360594,-35.948819188248706,-33.26511146742009,-40.90858299229346,-29.50799091869277,-7.0665473728086,3.1263904589409153,7.408499872876444,1.1001031546524516,-35.85278759601969,-74.98762932402293,-77.38705888096467,-62.527463256672846,-51.43331590694547,-37.076459399573764,-35.17607089846176,-54.142752245024234,-62.6407609523019,-56.75292639564766,-62.056978935263466,-65.65860412358194,-52.385533843339395,-47.69011158096007,-54.36756744325265,-48.90856727440158,-45.57494415204519,-57.9934988866624,-59.103277566684625,-48.081684138871566,-51.56687462689162,-55.21552378021748,-43.75652482075194,-43.819654380033995,-55.62431143196599,-50.40286825399646,-41.17050932975599,-46.45244960644729,-44.93716694087721,-36.32843687035674,-43.307527479698365,-48.21105135666416,-34.76812111530372,-30.4616987495554,-38.18376056721875,-31.360537056135172,-22.760582210983188,-29.232632490307974,-27.735836176912038,-18.115226978914446,-25.864061981808447,-35.126523193520626,-27.40977223564792,-26.714680750706908,-34.83526448967868,-25.86086230209234,-13.096230779369538,-14.179490313053332,-7.783278132719929,4.626018668106337,-2.8189532223797773,-13.473530695774693,-7.340861950830631,-7.198655674322381,-16.302349534512985,-12.613038884779705,-10.854799884985258,-24.46595173948584,-25.382115353127872,-11.779507959948955,-11.877491755383893,-13.832349942139272,-0.969002627341867,3.3470825939574786,-2.189557003201854,6.569683345358428,13.559263501985296,2.28829623801476,0.8820465019278134,13.58320806828858,12.570586457332597,8.539676151324183,18.279276530326797,18.75456287041218,9.155505147756799,15.469547932135505,21.824145690777176,9.061361335491254,3.8430608423975463,11.976024560288298,8.66144095890619,6.543833176552126,20.748926562134326,25.11461987083443,17.5983870614249,24.079537774332483,29.455639639073794,15.847955778580172,9.44910920834087,14.99571808011849,9.198355621678164,8.202632688143058,28.86342527469972,42.48545245450475,41.36632218892628,47.16175328251775,46.566576835472205,27.95390658556557,22.208453572896737,