-395.47995994215097,-397.64266552155954,-395.989127373246,-389.03159060548046,-389.42729017460476,-398.28723748530393,-401.52695895036186,-403.18967567621183,-415.07139068793754,-429.52279817640897,-441.3198206979877,-456.7565660788809,-468.0560583420695,-467.1672730477653,-466.35463682890406,-469.72223036604044,-468.2642447608003,-468.9603636978402,-478.4880351023405,-485.39156839904877,-489.3116584664001,-498.86858970588224,-503.6739104480017,-496.93441821853105,-492.92892730771865,-495.0948147614529,-494.14469957140113,-494.6878588775854,-498.3987645852966,-490.9240794028865,-474.6404829547647,-467.10959871344755,-466.05681926684406,-463.16572213150215,-462.69214234685296,-458.97018036118413,-443.2672449188507,-430.8855714884049,-435.5160400610863,-444.84757506724765,-449.3305638441292,-450.877080719162,-442.2421032042941,-422.33186647586047,-406.91499645153385,-398.15746500273565,-385.7822943975227,-375.2229869022854,-370.4376544755541,-358.455978066006,-338.70455979484774,-324.4376400156723,-316.0402294229107,-311.75267262551995,-316.21316991186836,-319.26568258538623,-308.48066713898663,-296.1892538441673,-295.7750605175997,-299.9529091821715,-304.93748908266076,-312.94614001850067,-311.6433685608845,-295.08532488656994,-278.66766518252774,-267.1998179796176,-253.4939282783883,-245.8933536985031,-249.94397188653704,-251.43829990680945,-246.57376553398223,-244.4849652048043,-238.6911669574511,-222.4544701225847,-208.62183529481288,-202.38711039554758,-195.60004016885156,-191.7189825943243,-190.27485969299312,-173.39517114687067,-140.81600875586204,-111.61413183733697,-89.40715370232547,-74.30727867659988,-76.06077190782116,-86.22296165814436,-87.8004484913418,-86.94562877373822,-90.00477027206642,-86.44256213413375,-78.29056907842156,-75.54673725243302,-69.86229354024424,-57.59031581731904,-53.43990557363944,-58.21840430125281,-60.345232060546124,-62.813425982456,-67.0761320025825,-61.64835944780123,-49.84277749754685,-45.056838875194096,-40.57891526624718,-27.631757888797747,-16.700323217472835,-11.409673281564396,-4.073465891238821,0.030778940089076334,-2.5290243412240296,-0.46725420977207177,3.8680456273929367,-0.4092542767742966,-1.0296686361539178,14.922362536943968,36.327731870833745,55.068402240127895,71.69818896985859,76.29335908663265,68.32966877603954,67.27032009613764,75.69670440568663,77.98353636524523,76.67014261710241,78.74714045933793,74.8159957249162,67.27706107624363,68.72041490673524,70.20183749097254,63.44288730091956,62.352809805940204,69.57529686632691,73.94067198842662,80.59869819201325,92.25924219611173,94.17106482652375,88.2683272351939,89.47598657449971,91.35729260927866,86.61050162717585,86.3871224358042,89.94653512852099,87.03903024475888,86.79725101204559,95.6577432298916,100.23776903661438,99.36146629665116,102.94412165447102,103.81741638952536,97.79277897859697,98.06338845756575,104.20394090715769,104.21997673164608,103.06061362563764,106.19765743221853,104.86532833335606,101.56801692959061,105.61902919402952,107.32435586263766,100.67237761902057,99.42038587497886,104.83188329224933,106.02932986399821,107.70853570974316,112.37096352617824,108.71100464819784,100.85366666637549,100.68159966659812,99.40178330176819,90.30030738765068,84.62873949937614,82.68246928138967,75.95202506630577,71.17013678044432,71.46812923471008,66.89117491531445,61.51479490041886,64.30046335647323,64.9721463960628,57.70853231891353,54.330348144995526,56.126678984649715,56.154975677087585,60.53221120374829,68.79923502763866,66.86350184194708,58.56663443400144,57.367679320958814,56.572499844255056,50.057600184398225,47.076177398478734,45.2961616624533,36.70822116016327,32.693105645871825,39.92461804198459,45.14332622271643,45.72588028376908,47.87050162270293,44.19566213577841,34.81596480370523,35.1888513708324,44.243545067969805,49.42818148264602,53.718781631638805,59.47026625701055,57.8084176930577,53.457725693692964,57.63021404565207,63.12335467049538,64.18380012632748,69.30533274690079,74.79938142242067,70.87106409766848,67.20659164726402,71.3535355048348,73.36422770882763,73.45911750301839,79.40086975562313,81.70968170446403,74.1643252985964,68.26351354426257,64.6109911575102,56.646480335691905,54.97675754399628,63.378422033106375,66.52556983521792,63.33473372359208,63.435091190080435,60.40680160284164,50.637462485969316,44.249474807242564,38.69399591704407,27.192024729840206,22.207830551015164,29.427576249551997,35.01034047976657,38.22215976720559,46.734122704448666,50.31555745252066,43.50700447725686,37.638069006809545,31.632600095302735,20.55600479653339,18.684881639433456,30.668436381599435,40.02604648819984,43.86719782216606,47.86063463561534,42.85038182666659,29.201824252258476,22.521691915990626,19.888490377130086,10.92670570082911,4.861900940321668,6.162567036179979,4.323541845541138,3.1516992792050997,10.295792054956497,12.920650930480264,5.531400883866757,2.491811199772771,4.982444272756014,5.499242022588546,11.998321226712243,23.935854050582957,24.520750616917002,16.448204612107475,13.688555186890135,11.448042294108607,6.589027712944411,8.122368370337767,10.213819593668203,3.179943670208125,-1.9108279360230833,0.7186541999017908,-0.937836310861248,-6.201010255721695,-6.961775803104728,-10.839410562886734,-19.18433063163182,-19.061321631483295,-13.47926364627062,-12.843624963844302,-9.950904872377546,-1.7258067333590814,0.9618691018337853,-0.08053564313232542,2.172459839212786,-0.4930597608194722,-10.00422920491836,-14.688554681590352,-16.821263944648404,-24.749650433067096,-30.56129522056591,-30.829714380912225,-33.94501424520786,-35.24139287939191,-29.07445319418062,-27.95535766808363,-36.05367624961875,-41.513005559860744,-44.46894485959082,-48.92309568328947,-44.50328803175987,-31.046302526067365,-23.49643460580343,-21.28024533340384,-17.319128644847574,-19.76428527308073,-28.981058340208907,-32.038301432998814,-32.56735551591594,-39.14311254788942,-42.461366350060146,-40.20528521753853,-42.337044807819495,-43.77837892282763,-37.85511970301792,-34.71692859329967,-36.084224017388394,-31.831033030626056,-27.43028037382637,-31.3178351161469,-33.89957442641604,-31.328064038580543,-31.949716430127893,-30.851597765749812,-22.722422260589486,-20.299173313040868,-26.55457241500372,-29.122624090150747,-30.201885946627833,-35.63173186167792,-35.07614332582912,-27.368642482898437,-25.37397668935563,-27.113244271957136,-26.266748882145652,-30.717327132569338,-37.908630586130684,-33.20436035873074,-22.18528243118741,-18.289487146808174,-17.065911371497265,-17.11036491032469,-25.324143281012393,-32.20907214702737,-28.458592762839793,-25.61413182066592,-27.57248793064312,-23.11951406724024,-15.832815595884606,-15.389474513577724,-15.937626392194995,-16.529669175238688,-24.36942660052933,-29.003533211985733,-19.665930015632632,-9.470725163170204,-7.309865388862207,-5.554303127728589,-5.977374114958803,-11.756412607064247,-11.63867669300953,-6.005758660501705,-8.934668466739954,-14.990170323471197,-11.82101896015396,-7.743042620351225,-8.518330506292676,-6.869332152149153,-7.8786211441851215,-16.519166156885067,-18.044114788715753,-8.113897698827918,-1.6035858014612763,0.5333300066086774,5.295815319684865,5.419199321971506,0.4237836768281338,1.2319333097031726,2.694651403713366,-3.0445678835420695,-5.347721339306251,-1.044551495564094,-1.4903016198795487,-5.128305255103928,-6.971512543078678,-15.485225253066941,-27.587925054384485,-27.428549480917706,-18.756256156762106,-12.66588068203441,-3.7737330805879425,6.686662854782992,7.196475467463912,4.819533475599696,9.589371875940447,11.709362987460754,8.221526011695905,9.29998906547575610.63749457168818,5.241531695766804,2.8439061754397197,5.1367657520971655,0.5940932841466735,-6.601263266504039,-7.478056852117454,-10.06954701716479,-14.794530967795524,-9.021850055120352,1.7356542675098954,5.588817870531016,8.837660867752058,13.131632229461477,10.523045152360268,9.398648844474511,17.405722465336954,20.538776935508285,13.35001095723974,8.086687497932786,5.485573194202169,2.0153328247500184,5.325542036243928,10.619673805010876,4.446089250429841,-3.843772298423219,-1.3823928718669187,3.189757868494791,5.498011218663289,12.169752430699562,16.060802390964373,10.424964610667402,7.12181933136194,9.385374628094572,7.978309475520883,9.344096288080824,19.022481893661272,21.68541357251568,12.990801821662796,6.223060441289695,1.6371256826920642,-3.059521045183258,1.603500137209421,10.267571137202893,8.300790887699847,3.877033160825238,7.1251778312177345,6.998080666958634,0.35214316523050604,-2.285914012495721,-2.7468698988504903,-3.01269667909116,6.569304389959832,20.640107394125064,22.56955523189964,16.410373040040714,13.3242914529295,9.842030118537677,6.85263511400635,9.880205011654608,9.118966391839216,-0.9429242822947161,-7.204095070848062,-6.165571146050282,-5.6486756909778695,-1.4958431435282742,6.958492260058051,6.122705448967595,-2.6471799746384193,-5.014466699320648,-3.3451365605961847,-3.205361339521628,2.4840314578160694,9.386468791771923,5.405120882077396,-0.5480063995913289,2.3981677156210677,5.272472285089973,5.292947290014712,10.133075731300387,12.327390464727019,4.955243404964861,0.7228009206122709,3.877028172278311,4.362262756127404,4.7972759439088914,8.318850539376136,3.844510372830038,-6.326761324215919,-6.821623264031918,-0.7728252488215095,2.0991774772572187,4.894219807836591,3.694910744032772,-9.124326675308886,-20.836598199844328,-20.586666210963976,-18.26960132149739,-16.181714696643006,-7.46872047026867,-0.9939600955212213,-3.223734393733667,-2.8502669761951243,0.6950925031055017,-1.9966922633131172,-3.1988985735025985,3.514440421360386,7.157025839582629,7.117852135528057,11.946852022363554,13.599758012286916,6.110252630809303,1.387855761019656,0.893314866893514,-4.537853784197517,-7.880698506076893,-2.8714146940334295,0.08661453671679913,1.021867840562248,8.379618693109345,12.691454017903249,7.634860007139291,7.149975298150303,13.72372798813428,15.624455946356697,15.2936277858315,16.042944124891577,9.356778784072844,1.62560822238938,6.813349184003399,14.905318844990822,13.464136685054697,10.01144180118789,6.260313992108378,-3.273641053070726,-8.161685322370358,-2.1336974921089267,1.2000765924807668,-1.3275275063249001,-0.9353270096815358,-3.5024060024959947,-12.197364999499179,-12.966399515328636,-5.3651603314141685,-2.5657101160798033,-1.562697788813149,2.4869686755360676,1.510348451191059,-0.21277335986186807,8.347636329826091,16.740546825157455,14.577189003215365,11.517666698881321,9.322787668694676,1.1570357349175073,-2.772761682356951,4.123171924517993,7.822522796285879,5.401346099820191,7.598695394644519,9.069902347755955,3.01141073163454,-0.4786102663409303,-1.1858924870227536,-8.779947830691869,-14.914435923313928,-11.976264920894025,-11.159421836079032,-13.869524945843152,-9.532789821762261,-2.5732464554001258,0.348649638854044,6.043663828416129,11.964327651343869,7.910494781645127,2.3118530854915367,4.960457291456542,7.734785498233109,8.221461167690032,11.807582161587444,11.501446168525138,4.46692911695857,3.2396637891782305,8.933513700214869,10.586728131935422,8.634999181312928,4.302305351113141,-8.461217962440635,-20.99213918659918,-18.886560453010837,-8.802603676430413,0.5074038146496014,15.630592176891152,34.54383384569021,49.17397698186371,69.43718577276894,100.48069235605685,127.4263064768025,149.0471944708375,176.0220455417305,199.01521030561514,206.61373207473486,203.5106585455842,186.76638568437178,151.74154526414216,114.89022154253271,86.5877527482441,54.507087888413764,17.391328077832014,-12.488002065710493,-35.90195059781949,-54.48345472564518,-63.43941235272428,-73.9224907264546,-97.65698780314956,-119.67586121430651,-126.02060642216318,-125.60889341404246,-123.92676056019161,-119.42332874184086,-122.51077346467149,-136.49013934574847,-146.13807307017976,-148.6955953301556,-153.02926839652423,-151.96657252908196,-140.26734557818952,-130.70597523977648,-126.15062750212365,-119.58848846489846,-117.36129908265823,-120.9143081249437,-117.04346946232391,-107.75594380880781,-105.1273058066449,-103.56643410297188,-97.45851948905522,-94.3806682695195,-90.45521108267411,-77.81771743609517,-68.82172179626,-70.05381998993381,-66.77385383286051,-56.65880323087187,-49.744157629369965,-41.50921870677357,-30.739818864625235,-29.190376832698938,-31.601129739261776,-24.993745432367213,-17.886166478818843,-17.24144420288091,-12.57659617554651,-4.6877363261864415,-2.889499331935868,0.24598397182852572,8.900198917943717,11.724804168242354,11.909391796883487,19.878431157803398,25.393916452190116,22.602873633448645,23.736692552087774,27.123693089381785,23.52612815567347,22.433878131078544,28.802426271010077,31.787071281210743,35.02195540478147,48.070685626850036,59.4793029390753,61.09109271007278,62.196434861131706,60.33502814247308,48.20146801193731,39.685560734203506,43.60361142537261,47.63167754275788,50.24551782822482,57.7929432838975,60.21433789603161,53.350701621407524,49.13994406415979,45.57946029069337,34.95008880207962,30.332341947141572,39.62981252207133,48.43147579539658,51.3838877225746,54.855091067174286,54.957610089508606,52.877244991003806,61.091464389950815,73.30345329939618,75.4630284428356,80.6692456776664,103.53348079569108,131.51099521466247,150.79131858112862,154.34795098164278,130.61224361088253,89.05913282240522,60.85604556635601,51.396889749403364,43.559977591096235,36.962305904696024,34.70365693697102,28.81084566652411,23.779664407804546,25.341079540293958,19.15893293005598,3.494418056549703,-1.7900567181973939,3.3965822288280596,4.797112300500242,5.4690945764783745,6.836658103729012,-0.1693951271661711,-6.30408646875768,0.735833022139754,7.362247830296892,4.356328711491944,2.68882756907277,0.669078862213013,-10.595856368161149,-19.9736896843634,-18.56416464477793,-15.008042651466202,-8.816354109035903,4.838468845818881,11.500633752746506,3.0507225142275334,-4.944054148295905,-6.214808990547633,-7.309431756432883,-4.57699338124076,-0.8963878372081773,-10.177219182780497,-25.093856489976403,-27.910502091514324,-22.931917738076976,-18.52518838788958,-12.567002478880116,-12.167752502638498,-21.88308065016123,-26.597598188993732,-21.058483228592472,-18.246256514878027,-19.258488686148414,-17.9654083147562,-19.621557197882748,-23.86906089658155,-22.441338531941017,-22.095879205132313,-28.060870780320855,-25.11232927764614,-10.206411815306797,-0.7535480508327592,-1.0846393524595843,-7.4487785931974075,-24.121668429572214,-41.324540276256315,-40.619875316048336,-31.226514476402983,-30.702083116388614,-31.507519937042314,-27.566737948376193,-27.648691868226372,-27.655767440808773,-21.26619684979096,-20.12868778418815,-25.911314943909094,-24.474971995914988,-19.292203828857453,-20.8261987773187,-19.172448243126258,-8.334187080608732,-0.04985254015885343,4.577318347706437,10.926739001400867,10.01344645186099,0.32595355928744807,-4.9513968847366545,-8.398586802737611,-19.009546415088675,-24.613624214411868,-16.283006337894303,-6.439360405596064,-1.808057885991432,-1.3121388375115108,-11.447461448709339,-26.44349712367868,-27.416002971626384,-17.741768711313934,-14.256412645021154,-14.896361961259014,-14.002008964302672,-15.207331594114397,-11.98595081731768,0.74107373961359368.029918498309064,3.0209121747636396,-2.6494947347768263,-8.463228531982471,-18.795078593399577,-21.259556194370177,-11.336413970142292,-3.46396559325587,-0.7683956449853029,0.5405523195492531,-7.657239354768118,-20.82180186804716,-19.91033813574053,-8.25049090083754,-1.2235203461809119,2.9407234969236864,5.077084442697602,-1.4432718236092485,-8.040686765709077,-6.1401441223930835,-7.096722429539803,-14.015377659930296,-13.398724047179035,-7.581421325844111,-7.39903008939797,-6.736090145978352,-3.910403679853627,-8.625058366835011,-12.761048983431124,-5.023232240686182,2.3552510196034007,2.192542264731312,4.635727273508346,6.10800091581771,-1.8983898224150768,-7.739526749748563,-4.9710054442835645,-4.5476214637644015,-4.482398335579075,3.1301221754166058,7.008465052153572,1.5237471378489014,-0.6976735489219137,0.5404937327645287,-2.3179084826734435,-2.026291657840288,2.60179673521032,-0.2901275508051733,-7.422181012239508,-8.298295580503847,-7.039276260656176,-4.771764149209202,4.867577569747562,13.914824905758264,13.291275454966668,11.96250081130689,14.512932685147346,14.157690143267779,14.964959381582755,19.404172074594296,13.929020456446034,-0.39691831245318454,-5.877639783616997,-3.928329797242988,-3.664783945917159,0.2882289015542969,4.918624648003226,1.5964236160265786,3.5192604199815483,19.86481696347653,32.284827197375726,29.624792185981224,20.61432551581293,8.299340601102728,-3.815546736804605,-2.2161063043437896,9.867672171597825,13.830241967556661,9.226712829483123,4.313784905278762,-5.1133256830198945,-15.86427121312711,-16.125479379074207,-11.708267195323693,-11.660718364225707,-8.52156912095534,-1.8191598774764572,-0.40900178501346807,2.581227599315965,12.731192521978702,17.1432613961206,14.323904121232104,16.700560683580576,19.374935995505425,13.73338773839891,8.958376963554059,7.206038261172035,0.37096722994922393,-2.079570682150609,9.373360307467355,20.49398748268423,22.537924985419252,22.97384079623157,18.165307947648156,4.288713343236626,-4.465979188229924,-4.473488047691148,-7.83267000348542,-10.54848469776711,-5.297385618279948,-3.7706260063896733,-7.362078522721915,-2.414617530953497,5.923169441026519,8.206283159889741,12.489761269356379,16.536388578350014,8.590865614107834,0.34286542749672155,5.872290488347971,13.72052498926376,17.25431091442018,24.169743939493095,26.991673042701265,17.16620442817166,6.734946754858935,0.930149657579433,-7.052111177782002,-9.07998330700727,0.5809689356972654,5.264528175390961,-1.9375876876891276,-9.040644175861377,-14.488531652864816,-20.06358285689311,-15.885884636397236,-4.284405678061948,0.27044695409252034,0.9671867128968114,5.172315721718955,4.445931918139868,-0.608426056719783,1.615437419939648,4.740403269184879,-0.597590480339202,-4.876950142306696,-4.8921935990037815,-8.508080481121908,-9.099375666919213,-1.531220158751053,0.675735365071648,-4.033999786077079,-2.646573376490889,-0.13419414025706256,-5.3335269273684816,-9.160132253282429,-9.841950621563184,-15.41245574552252,-17.813036972922458,-10.291478899627144,-5.200727493348024,-5.528975095236279,-1.3769354298351753,2.769959729607067,0.6772437824813959,0.7437471904356718,3.3503017998474807,1.3844956070571768,2.677072020197983,11.140311933232205,12.199036475892832,4.184941734870689,0.7030339427093556,0.9428303295337338,0.9294208876660474,6.405585658112306,9.927402079371403,-1.226216263240068,-16.146362724242355,-20.643923585268094,-21.060102693292436,-20.289869441821864,-11.051574479723715,-0.9292494532149784,0.7496171864685228,3.4160112853556512,9.008148125587908,7.069641243999946,3.832766269811172,7.128263721577665,5.84033856988682,-1.752668121044339,-4.13537683779445,-4.75028437043136,-7.439540355961492,-1.1039725069603623,11.279597288364702,14.115144750517398,10.63512706102252,6.809168923249959,-5.689666694441543,-20.494900772824177,-20.50998070393694,-12.08045639428937,-7.254824891883932,-2.1677991003645185,-0.9022119735555998,-11.495353606787097,-19.69419610498998,-14.108213482657671,-6.939555845657225,-2.778715728252955,5.407883725049245,11.413046454430281,11.576620750784414,16.126857787740278,21.265038382096805,14.97974307064814,5.757348169180315,2.646103595250289,-2.413618538484663,-7.737994122872094,-3.953648450796501,-0.6063474568426251,-5.106303922578387,-5.748371464041169,-2.649195395954776,-6.249163597915356,-8.292135331937427,-2.432962984113782,-0.8929695749968514,-2.9610787965438528,3.373262226570887,10.746876121899044,11.021308250351733,13.669005193449907,17.029668779228146,9.972194184843705,2.7702343007036094,6.722399709185193,11.159928495236278,12.441014319056581,16.832164897219617,14.092118151635656,0.32327497284069917,-5.221354196497061,1.3147526209818592,5.197924054438957,6.90085699358173,9.211959478642804,3.0356685572948887,-5.339884656961181,-0.9891581811125385,6.91193333056665,5.472134770355183,2.2459562395301926,0.17164060929548813,-6.202486448944427,-7.905036732923636,0.26647287557093824,4.150159282502125,0.3708617755750372,-0.452376255438339,-1.5538888347901352,-7.10598303979628,-6.637298814118191,-0.16483544916630732,2.2873238552482045,5.704707235056895,12.626195645200456,9.58217085761937,-1.7537316629456328,-5.564085328789402,-3.883386276823458,-2.7741448252744383,3.4058308523004275,7.799678412263277,-0.9594830375041528,-9.812641672301702,-6.463020182341536,-1.3736145817837901,1.3767409542038793,6.412434256157795,4.680028550314033,-5.882115098637517,-9.278286418471307,-4.56550386183193,-2.8685062627391402,1.6525609315038403,12.75087174575041,17.373380424811923,14.640229905712145,14.217981032448462,11.178342373361241,4.027989224279414,5.630403965074067,12.320695779195708,9.19579786648968,1.8931704810628465,-1.412779344715365,-7.144487831465223,-11.196892530152718,-4.858545059686756,0.20717522551389667,-4.18757612767333,-7.9284766230524735,-10.89954670649916,-18.140984419974885,-17.36689720207379,-3.436244934402186,9.345297852500867,17.320332352889295,24.41123496389323,21.24496846453313,7.098202116589945,-0.9478918225197224,0.035589241391993376,0.6916807075547593,4.682759923017945,11.67960201539296,8.268479057034288,-2.1514275724179384,-6.28646330157531,-9.873607018343137,-17.989675754495856,-20.20740509042195,-18.180173685842707,-21.9041837530766,-22.749164832909635,-14.421506095020712,-9.20047935337143,-7.739369429462914,-1.2669897268334152,1.9985211070501594,-2.3763362359877567,-2.1595421672991755,1.0328906831854527,-4.583259256138657,-12.319525372273073,-13.722862109456152,-15.165364399936957,-15.75367808484546,-10.192998341866328,-9.868525399695486,-20.561084413127364,-26.839221890083166,-22.9731370360022,-17.489916446558937,-9.247305843402064,0.17477783372859745,-1.800181785777887,-10.367289130483652,-9.399154102693675,-3.2715360078695706,-0.8679193527674045,2.9246516885696794,5.031909266244386,-2.041097087111108,-7.589625558354518,-5.203219728917357,-6.361151998468696,-9.696086772186279,-4.344517016035214,2.078130234962753,3.143695355423019,7.66277569969012,12.194941545471549,8.434382226077984,7.17152719890258,12.242549705527672,10.443245288862965,5.147987963825604,7.892011953814078,10.249308408902989,6.940563477304762,7.321498242757942,6.970974135967726,-2.14756641622965,-7.9640239141877425,-5.317842558668632,-7.311863137635164,-12.670341996881271,-10.650814179921975,-7.650071228676536,-6.814523993716147,2.667917297167238,15.322594991914363,17.638796952708205,16.87832283524505,19.6199718515343,17.296800372708674,13.243327552555066,17.19938622352132,19.7104006647917,13.859913749807642,10.089105254324718,7.062390500278999,-3.770736551690594,-11.42654901331721,-8.393711602261709-5.9698006895986495,-5.1362792061613,-0.009647833301707376,0.40351697779388396,-5.159936537433027,-2.811070551327583,4.216566808040783,3.724063238763167,1.9921267220126766,3.074088161551161,-1.128685629992078,-3.9418470490743602,3.7836311005006342,9.738150844187151,8.140992630137523,9.797406992169115,10.995262233342224,3.483755729434608,-1.6253877317133303,0.6567606342433019,-0.41850287362860583,-1.567385068295248,4.865723438248805,6.671927767524244,-1.9598461594386714,-8.180699842617868,-10.404083602913767,-13.623609460304708,-9.17588413649659,2.577855974914579,5.788151079013323,0.9769680993070726,-1.2897195776203767,-6.103795833814288,-14.607901879728129,-13.231051577598691,-2.6674982354460712,6.075789633121992,16.201986715066518,26.20102145253329,22.813397684483448,13.198978024606586,13.625423730281359,16.77677621431132,13.253942699871846,8.051682730614031,-2.0865150077313794,-19.925871320330845,-28.55601096364868,-21.47984100637079,-14.781684052151288,-12.074538206406594,-7.188562646077438,-7.521009794708739,-12.525377987309433,-7.569264932162201,3.6650528348298383,7.599073700539533,7.789991252864013,5.8853339409523695,-4.758356439893382,-12.63205757766869,-4.261394282090751,7.721895916180226,11.118316172504361,11.913243302320025,9.394698146332164,0.6909969706263834,-1.2734276240762732,5.478779239873681,4.614294144398803,-3.299794300842567,-7.264686854894585,-12.571592282280372,-20.442976422972713,-18.810328038952612,-11.21200038918873,-9.545759302003693,-8.294302442068133,-3.6054628831669353,-3.3469944142568755,-1.6225017857481918,10.033477664163417,17.73199462438339,11.451774165968827,1.9375771837930438,-5.2539546015764165,-9.84625079514332,-2.619602531067663,12.413517899711147,15.274088766499935,5.599205479741562,-2.2997702683915624,-8.547565751148436,-14.108452045298295,-11.839078801363419,-8.807745994936882,-14.000310849467464,-15.7403829080578,-8.779602367353856,-5.810313058407279,-6.4027309413130675,-1.9983803478994466,0.41990998763507126,-1.7596510986228797,2.151395644792304,8.589527402805158,7.441882172309693,5.960853291549787,7.967630496034868,4.09301925381353,-1.770596438342994,-0.6014106136251403,-0.2955631537868816,-4.03802496373045,-2.3137604422246567,1.5091131278906638,0.021678966839491443,0.1134779092767092,2.09964293106961,-3.248381779197559,-8.305417497191437,-2.0632227952567925,5.065744350734955,4.717080208504952,3.2344659077294864,-1.4248486244256986,-10.405655401632366,-8.303530335859957,6.781013366782675,15.927176310679029,15.44680601182187,14.6127836661377,10.499578685146087,3.3133741326755706,3.1416686172957817,5.238055274369617,1.5135064984885456,2.5638383370615063,11.236392320785066,12.81828131295234,7.706350715345158,6.96217467911478,7.421221417653252,7.489254614871052,12.067491776258791,10.692460374462076,-4.392189220840118,-15.526141848480433,-10.890132510304383,-0.7049461585418586,10.291032706434523,20.904707951020537,18.78882149882753,5.374977404264788,-0.133639477046816,3.648113669498522,5.629365709563807,8.096318419035459,8.884689430841396,-2.9265183277376017,-16.899494386859303,-15.127083527041297,-3.4952432903537023,8.755950647338862,21.335004438994716,22.33614758779776,4.663109642391846,-13.26522548668017,-18.35241457850416,-16.74925111712606,-8.704129331687675,5.599397322326131,11.596015174376046,5.65681373274839,1.1625547406906205,0.6552442380991913,1.0876985540248905,9.000123822665364,20.284694807378774,19.719611259925266,9.99517297139518,2.6455005358810446,-3.9451340550348895,-8.604629670222947,-4.292722243341905,0.17528135509771503,-4.730075174924103,-9.039277097715827,-9.316621077320693,-15.633598989711354,-21.448904012615525,-14.811444241074874,-4.168558126949525,4.242895106436788,14.272485464216645,15.414527673407981,1.1942818664585904,-9.440868630984948,-6.769373804837658,-1.5990355563780656,6.534111754804415,20.24787564636378,25.56440400584453,20.24210638728507,17.94590836792214,16.983745531257615,12.743222187846161,17.16013748349484,31.47032266232027,44.10930080441118,62.60035169009309,96.91153482478086,133.06050871029154,161.64444416488686,188.43953957683536,205.93331053369835,206.58728676979112,201.96175360392374,191.2019103037639,162.0222710308867,128.83686910952514,110.04879445691688,96.57798042174775,81.01779481474162,65.13703012302119,37.53462955514907,-4.806038430671679,-42.07865073549014,-67.12442369494136,-90.7640727519125,-110.47832290271165,-120.88706470589429,-133.65730578695644,-152.1803485760101,-165.74223635941644,-176.9212503877522,-189.36903374690678,-190.55764267770246,-181.07949694419682,-177.84222447453658,-180.17117773545024,-180.22103040088487,-183.74915968628895,-187.69966426126786,-181.30678235467678,-173.02679047096277,-170.7408899778056,-162.3928594080011,-145.68008936174965,-133.10848113254139,-124.6015101179292,-117.17452387870998,-118.68709940133328,-124.11050544047087,-117.7670245089512,-104.34334032557413,-95.02811453144795,-85.27595755608628,-76.54656917196206,-76.63182105032791,-74.4512065266511,-59.9844566599203,-44.22948288500248,-31.943848320945953,-17.672163800728903,-9.298440789421733,-11.13815830633841,-8.714341189958825,0.33430097340459985,4.172829338392693,7.5140770664519065,16.24656981351857,18.850280462221164,15.14984879208421,17.866037611769272,22.92206755359679,24.298891501973714,32.27120466710585,45.40349699251455,48.3325157065687,43.68550028418838,41.09939177630642,37.684059934306504,38.95393857979329,54.88540694622718,71.67522830940477,73.54589092525654,68.17032392273578,61.95611187087579,54.033863537579464,55.451476390788955,69.09892091433612,75.76569239283302,68.8450254659394,60.77217298917581,52.24376477372097,42.61821688498558,46.15732591019883,61.475660685266604,69.55963143651495,70.03769071110143,70.64385539602593,65.69040961081808,59.47874442904879,64.77998481471923,72.41154653159221,70.70987372726462,68.99710201184755,70.00786732732459,65.28041020461367,61.522239606579205,64.70790669642793,63.85276648793446,59.223571495753276,60.7853294715735,59.449284048272325,47.16683742393225,37.4133938912929,35.51805949406747,33.27931236511671,35.72164396974311,46.54160165441164,51.835821224452005,49.18109528446352,50.207771738201295,51.1223459311331,46.35613264533028,47.3942485061252,54.64597279278222,53.553651554411964,46.593779447873814,43.137618839619776,39.230574013479654,37.14846352724361,43.30681701188148,44.92102132579238,33.15391462689944,23.234824466712766,22.692995339115495,23.645531053865245,27.422004333925877,32.89691870020562,26.941890913886272,13.051675685607616,7.243952196052765,6.417088586742295,3.515311299566256,6.409302099689869,12.741356920008258,10.386149519402148,7.487641935140076,14.48099433360696,20.40433906000712,20.699114628582443,21.618904282910705,14.603629514420742,-2.645181403672847,-10.72792168434854,-5.427506215747356,-0.6684090991269853,3.6240426762223663,9.255049769403287,5.502737503380282,-5.3732005154676745,-11.88067381900673,-18.9977149351278,-29.687604914879383,-30.987282512473577,-22.493499957725597,-16.86537603353697,-13.091419682637259,-8.960804945487414,-13.141402836272414,-20.332901283799263,-17.41111279536798,-12.01820108652181,-12.279995685833962,-9.263217805788958,-5.364946072180639,-11.448602707536983,-19.242153844603195,-21.226828523764343,-25.00444652349948,-25.660259124376157,-12.602089822744329,1.2285266574023734,1.2131449380954744,-6.436191776241699,-17.007020823336898,-29.779000539147084,-31.845715436175823,-20.387554404380495,-14.735397606435225,-21.042012609434025,-26.167433589391308,-28.022320765537696,-28.618994137268395,-21.371750715558235,-13.605022487543064-19.636013672590476,-30.328194145961916,-31.584757818129013,-27.938362203573938,-21.542471061862898,-9.745385508967185,-4.76982087642771,-12.308951469260588,-17.246200609187206,-16.181839681038497,-19.0997971616105,-22.580253336987003,-24.08166426855647,-32.135012588813204,-40.61587503972823,-37.602467707143745,-32.12135829166463,-31.513803865507224,-26.422733101122173,-19.50403898162869,-21.425099530777118,-23.379725143849875,-17.440385050664233,-13.567548004545502,-12.48004423959681,-8.583720464778532,-12.576677480935329,-26.03258602050463,-29.662541759871605,-21.012569843826427,-14.210886029417992,-8.706243261217175,-3.5531515731192065,-8.928434897596405,-19.026732119880055,-20.945661518103428,-23.18001413683869,-32.241863133743735,-35.94436279001874,-33.129858505136305,-32.44113548851033,-27.02349065578157,-14.635317155899212,-10.534239436873644,-15.291080070314674,-17.088452570907492,-19.294769542092318,-22.08145728382304,-14.560718283537955,-4.41696121283813,-4.5387425983655065,-4.974664778649604,1.7042142516455718,6.155046107195777,8.796289359929183,15.168189871116319,15.38116101711028,5.337705603307388,-2.3599977307450053,-7.339695237433909,-18.22117888734157,-26.056860875040847,-23.267509086187058,-20.08718973456817,-18.162622670434732,-11.43650130212968,-8.93884228855556,-15.497261866686639,-18.732757409351876,-15.93330183658533,-13.358358219493798,-5.97989560330662,5.33355641650425,6.700403249652586,0.7213625485202284,1.08049496037374,4.8475070840046195,8.42174596803909,17.863923458245125,24.931736067634596,18.296747939780296,8.86048899417607,5.411962984417675,-0.342148400072944,-5.808908486152178,-1.9409609732201474,1.387223924974239,-2.4637241588253236,-2.3103824465715883,1.082192282227022,-1.5275606470408571,-1.840401900613076,5.507077365500926,9.078675904888664,8.77348138841033,12.95036837197703,14.070597047063968,6.403360695758488,-0.8694492733030839,-5.637522561957104,-10.45162707340205,-6.703491739876998,5.490215876290604,9.84547951302739,4.510764443040325,1.0120048711198875,-1.572360023691406,-4.597924838496617,-1.3399631429551007,1.2941619261543424,-6.017455137768778,-11.353950934372515,-6.850619192206958,-3.8954509672180064,-3.659752002298875,1.2212603545896712,2.6657475538994886,-3.5871878432968565,-5.657154302201993,-3.322152925031337,-4.518272199740918,-1.3578135093055157,8.058834271816526,8.292565117393107,1.187346590601068,0.9846446630904846,3.0262454771348013,3.177329896198728,9.657323782560155,15.797776283545243,11.120987288083864,6.2020143524562545,7.605088609783966,4.638941522369695,-2.9121089277184975,-6.245390524213368,-8.61055530947613,-10.393698022263765,-1.9591736940796918,10.263369598796546,11.451825757730308,7.240595223555152,6.609589464916726,5.568697788296487,7.594535918740169,16.86932429629617,19.24914973158249,9.229743334272378,2.4670980906449684,2.0708506978218058,0.39553496472203675,4.638477170546954,15.624990482269453,17.97554883453828,13.174356854140527,13.344148752294155,12.320084395360077,5.218630767734832,1.8506749133275306,1.0612394813413384,-3.024325747161654,0.2693220640603937,13.383453715266068,18.763506667590512,12.045790684805723,4.057747332412058,-2.9670033759218812,-5.284064915593609,5.151397254460055,17.642792778699175,17.52835625467389,12.940903151348333,12.79730455687892,12.008232531713482,13.2095692351051,20.774276578119544,23.675818245693208,17.842997098764098,13.389261920508725,8.154473698979714,-2.6048805463825007,-5.9328947160653716,2.7132399805376854,10.15660484070734,14.662771379702878,19.47102876229192,13.950095282667728,-0.6997898836702188,-5.6838075267252535,-0.70312385972255,2.7570605542707862,8.79219743137015,16.556679535299125,13.47103606596967,5.398278208490958,4.7771295022985285,4.232348764401299,0.7296209658702473,5.452734450637456,14.122895075006129,14.816773135928555,12.188333574995571,8.682167181604878,-1.8356856546619658,-9.557217274899253,-2.735605227463445,7.248202044885342,9.83268796245748,9.670736366657902,4.103981233924584,-8.983819291630207,-14.303934767884241,-7.434675287548304,-3.1705124023928155,-2.729668322792758,1.0662857896944251,1.7493074681310152,-1.1628005071638166,3.141551176061572,9.693221664156608,8.326926305395888,6.988734000783391,9.710362927823486,6.954527154324096,2.5105704409406555,4.981241355908552,5.019785202066466,-0.8093167944591979,-1.800623435331231,-2.047062743471284,-8.039207303733987,-7.450648362961857,1.6097200872691193,4.114614166550969,0.7063437730893912,-1.4696855472134818,-8.73418846737869,-16.606169993889633,-10.223893599141096,2.301627536614555,6.267190826811323,7.341957350695807,8.089470820617485,2.5379367792127234,0.7926216845844936,9.780426251987606,13.560999861208954,7.668544862704872,5.120055113619098,3.331794940551696,-2.3903585470610746,-1.07598294630729,4.053573436796393,-1.6143715892364483,-9.171023747257312,-6.363559352732336,-3.282169166744673,-4.352434942313547,-2.814403214094005,-4.711964340846453,-11.525442821872936,-7.042684763259892,9.16297414566505,19.049005873070296,20.331464834808276,19.180951673340083,11.165626458434144,0.9592115862241193,0.9822498132297104,3.378242006475438,-2.055189601709394,-4.744730918500808,-1.4380803716818447,-3.135148919591847,-5.8545002145930685,-2.1561372354660238,-1.5922317629824594,-5.658486054621671,-3.008877673004994,0.8096556934482126,-4.2348545131888065,-8.967703366272017,-9.831410656014835,-16.276665814478612,-21.21853834506676,-13.53821484485119,-3.5302307258491963,1.821052393522646,8.261455434550493,7.694697726681966,-7.535132230107814,-20.10093150713052,-17.609561213948087,-9.266348063875247,2.0073937275588207,15.318272153768861,15.462938674581086,1.6064607148872962,-6.7793599790139005,-6.869375567683438,-8.085712881278722,-6.812403041442513,-3.5610220444528653,-7.805048753798825,-11.93362147684023,-6.211114860133284,-1.9570689296721597,-3.808119145620399,-1.9033871787390786,-0.6763415712800908,-6.098076616927005,-6.705281863511329,-1.7745878207465418,-4.305959109756383,-9.057883108280762,-6.595722884340018,-6.751642193163033,-11.628015516190548,-9.805562449844913,-7.004345931884678,-11.310780684349286,-10.622287061740572,-2.42055967144403,-0.05150818485503772,-0.8053302057493965,2.7836847776162124,2.557195921035926,-1.0131210363902599,3.389058762756065,9.056085270508154,4.989084813798369,-1.0188172499013182,-4.943227579278627,-12.780579369328516,-16.22490704081764,-7.632607659784955,-0.1873169780910271,-0.0733718057010424,1.4447840197518262,0.4068040916562465,-8.27852322159604,-11.740771565056155,-6.503845388688268,-4.199320661845842,-2.4616294859951307,4.224004390223362,5.61206339179906,0.6160920932241192,0.8572224913871402,1.7264422277472273,-4.171148764255496,-6.10370012266057,-1.4862018208454546,-1.4304435402499784,-3.2401576972261568,-1.644061652798976,-5.517726267666736,-13.115473210169588,-11.061376141865384,-3.754576995148148,-0.7440232613522235,4.077620029621173,9.860382628958991,5.637428831877784,-2.0412482443942612,-2.5375063803208833,-2.701424845123448,-3.917252485281257,0.5430321183797608,0.4080570172028901,-11.944106533055553,-21.2958033347114,-20.98780220394051,-19.262544351965968,-12.301770631608704,1.5065494877195027,7.830165483526906,5.920346254593488,7.496079314192242,7.324497986968649,0.9195448767076924,2.5561512062815632,14.021206713683313,20.09634379557615,19.638351672833227,17.03021651867761,6.241362502249839,-6.88686577932355,-7.2843093293037455,-1.4380924034029388,-1.6754405671137729,-1.4927331846048948,0.7600216506986666,-4.309071694374546,-10.784035025738145,-10.220259756996269,-10.95518186453826,-13.346280079692988,-7.2618129214787235,0.48735170844336031.2595081703273547,3.5142739128968308,7.726786716540773,4.327530515253143,0.3455238305493371,4.662147313259434,8.106989023283084,7.849298418912207,11.514678599044947,12.321955655886388,4.127774456126372,-1.1777907614270653,-0.055618315531418494,-0.445066872186863,2.4617727800144773,10.777171920908675,10.746680472357562,2.773779070847312,1.5664334493891066,5.063773007812483,5.591339689415595,6.663737224245088,3.9082178749024377,-9.412261273987832,-19.530489624960673,-15.630422624838538,-9.030959193741545,-4.985833393486371,1.7972758170522702,4.927494247479055,1.6052433907328663,4.4815749944652685,12.545171483499205,11.892505119236125,6.769828952714098,5.51622737620988,1.7730868788037946,-0.8742066689166135,7.2656372667012885,13.378570219222444,6.833016908621178,1.1463348091069496,1.5544103347672045,0.606152405004198,3.690115345455902,12.253195907705702,11.848010154548788,2.5883628859533427,-2.0605065406465384,-4.738996348681088,-10.407363757151497,-10.107901681800206,-5.1451532295430145,-6.758136563575302,-9.317796760337265,-4.774380561980355,-1.4891727407508135,-0.3801197151376836,7.539164881349491,15.421432717796865,14.740050901456478,12.395639090416084,8.270976099833849,-3.2417738105454745,-10.472817128521225,-4.994789981523382,0.4086884426020201,-0.5171588404933107,-1.3685701427118713,-5.101191063605587,-11.986150141770867,-8.82802368397332,2.803256812821814,7.538798063238154,7.399192813507943,8.154843823468566,1.261616601193234,-10.004992158048568,-11.337189035374433,-7.762694156094396,-7.769907496842712,-3.604190724949557,2.2807348281327133,-2.25377634104488,-8.545201662547777,-5.610161075437468,-2.587437642633446,-1.1266488133186523,6.823625848303899,11.273563800071445,4.1103452742294015,-1.6703254216934589,-2.699296158733262,-7.713945309705443,-9.842065998083543,-3.246299242880414,0.2641421051541538,-0.46094939479612873,4.346756341700935,7.427047184901809,2.022028025514985,-0.9447132955296815,-1.0398472424111422,-7.219758743058751,-10.38314233979574,-3.383997741124501,1.5175002838775442,2.062452854999234,6.520397999468997,7.361989193733842,-0.6174621313863806,-4.515076116759633,-1.8513676845503633,-1.4334596793968055,1.8637473684338366,9.754022113660207,8.106457088380328,-1.592752184880759,-4.594191048130441,-3.2048928418326943,-1.9834650695155176,4.665987486469317,9.01172462523975,0.46095180438118266,-8.00694005627061,-5.229531700016821,-1.301492967574184,1.2210319898647302,7.841509908412123,7.714801418698999,-3.631234597317383,-8.883413688716221,-4.718633578646345,-2.6040220875458004,2.7342577655966576,15.01599636155769,19.344959494789798,13.598761769875555,9.318086676076204,3.1492926766557043,-7.016626388333744,-7.87078143963913,-0.2754142251657008,2.463961230680948,3.711458914584861,7.4455765770965545,3.890145997564798,-4.1175681032745235,-5.333227747750047,-6.136390320729934,-11.175633489136146,-10.321736831846748,-6.846119613424529,-10.81680091080728,-11.200177663364892,0.34230596614310826,10.791522202230786,15.728377619102565,21.05852923336173,18.949593914284353,7.335934416893867,2.145697247614026,3.501563466486635,-1.6731857203643914,-6.8917145318613375,-4.055534107103343,-2.88672376351109,-3.9917892717001586,1.3049013213429324,5.0287958402694395,1.0785364207428338,0.617909054721939,2.7223899037294497,-2.7622979980689646,-6.354349751914883,0.4309144742673139,6.683597001941511,9.594082600732603,14.951082700104442,14.4221174535361,4.265113826363046,-2.4832786991124727,-4.350185208656857,-8.479720769253614,-6.053980665270902,6.723906912274294,14.245430378264217,12.473439771836858,10.004173223668168,2.917161535366962,-8.429163076437852,-9.697163862508914,-3.236486299463718,-1.3960690455983003,2.1534560405163217,10.449645326662646,8.834580105129824,-2.182229385367835,-7.32605342553905,-7.252133035497602,-5.301848575854967,5.333163330883556,15.323319578459033,9.115967687461907,-1.0487831209651661,0.8796877258923765,8.159739795014202,17.75595103328956,34.25037356056422,48.1605292738955,57.192625527513044,77.07077550305398,106.71923642305124,132.42663551387352,157.740557846141,182.2978750914591,188.63790572257903,177.31633623338706,163.98183683621124,147.02579508860424,124.73791219241971,105.27329521503759,76.93793222691751,26.802130432354247,-23.053961571308147,-51.74986597145259,-69.0227214591315,-81.6756104516799,-88.64119578013572,-100.25659917234802,-116.3205796868414,-121.98032026548695,-121.97471884321138,-130.56057835137108,-139.3670838531272,-138.65155268426253,-137.17455317352707,-136.56123914746968,-131.25904141184148,-129.62629254485407,-133.5131703778658,-129.71908976277322,-121.5818774089829,-121.25778195086814,-120.87925966711593,-113.97723834595485,-110.25775358940402,-107.62710438036524,-96.52920127729325,-85.38667386776507,-80.74156580492345,-74.63025187995856,-70.44756628222822,-75.31377985676669,-76.9164388606695,-68.61800786939537,-62.105552611728086,-56.88885974264311,-45.49031028500056,-36.9056670831566,-33.764765079482714,-24.232300478357896,-12.772873293714397,-10.31479375016859,-8.34773969366767,-1.6196110950066145,0.849378009570343,2.0796509557054463,9.193667411628228,11.277096678916811,2.985372640408902,-2.50850320283658,-1.8853458140539832,-0.2764536924042392,8.265161372513017,20.79998337240541,21.50646662074056,14.970666888282887,17.04016919513486,25.004289943746713,34.83294843185219,50.11911674826146,59.88698017532295,54.244851561025555,46.773346048523564,45.94834150510839,42.88262110979132,39.76572746480977,43.62378684911133,44.87001935699105,39.84458187074225,38.77912616692018,36.72116782822996,26.04150625814758,21.86064140755527,31.141931403106387,39.05449213377222,43.16673802586974,48.90956705358823,47.997358548582,42.485803698576156,49.0715083101486,62.63797872804568,65.78671090028249,63.26201074382254,62.644031038106434,57.76386928709523,53.45132310440864,57.66282300437889,58.7750122684975,50.691520408938146,44.62438853675211,40.82419634502907,33.63969699298088,31.923104125316485,38.22370323220259,40.30811665413171,37.61564450714267,37.05396288339212,33.65432750373239,27.9584753786496,31.56374644307855,39.27185346347727,38.50548675218873,38.246170409335555,46.06615886432304,50.45771650507183,49.25476454906695,47.06159078748039,35.398703981762,17.793652905554964,13.549662401245401,20.008065909709025,21.788128933446053,21.264521652697127,20.852038893887773,14.404015288222137,10.034705990988556,15.77135338278228,18.70378238662324,13.75370047827235,12.855452955863004,13.678955920994854,7.617400268638055,4.2652317514752305,9.653113956098325,14.663205346113239,20.259396003961687,29.682272052735655,28.559944028284022,13.339234411156959,2.2525304997150277,-0.5778903239757702,-2.996062321328604,-0.28946436655561003,5.970436666862853,2.383000931011194,-6.939506207149341,-10.33486645596323,-13.42130597835899,-17.547479438884373,-11.795053080207545,-2.684757891410479,-4.395771496189756,-9.789762885872694,-10.468914929653378,-12.000996734707233,-11.08438528585473,-2.8218532012036026,-0.5113955869373453,-7.973097701607178,-9.503967511424031,-4.718440339355679,-3.664467343360071,-2.2336816147765544,-1.7056784931394293,-12.146399384859581,-23.783082568791695,-22.988139741676203,-18.698360130031986,-17.103333692878206,-12.08785569004056,-10.847775122181105,-19.993636484437385,-25.466443843435073,-21.53934813662655,-19.452610010854535,-18.006113708682683,-11.420962083525978,-9.448667967707804,-14.625706426194078,-15.949696617635473,-16.78239742259324,-23.54445423438981,-23.842938133205337,-14.135687737224405,-8.537315290807294,-7.451266574258401,-6.065874216403738,-13.401700612974462-26.16842813772646,-27.941260835373683,-22.563215293779926,-20.9775890485617,-17.91645190714683,-13.773791340629552,-17.95324751704811,-23.2026240983745,-20.152539083205916,-19.10184999512168,-25.13485185213818,-27.809377288684956,-27.40321792980989,-28.014769799780794,-18.43407977984176,2.0117063004055495,15.266608748608597,18.609420469681382,20.32337561560168,15.005441783959437,2.6158812533218394,-4.002392690936647,-7.5055525209289495,-16.855317594382917,-22.377298249607303,-19.30744201516588,-19.43008351488213,-22.06360127043008,-20.46728521493864,-23.567447630642622,-32.336040107146204,-32.70547657588463,-26.984038871324017,-25.149336671881652,-20.655213250261383,-13.07455125597607,-13.994012496727475,-17.13340271303128,-12.11107591429155,-9.148489720439573,-12.4534091745391,-11.713590017067165,-10.132257328672674,-13.88171117024634,-13.587505909254578,-9.362954657041538,-13.560481193442913,-20.194533189639177,-18.067682438101873,-15.331381998792736,-16.03026928290477,-12.393912627831856,-11.224507468936201,-20.64587630459071,-27.88106864607326,-26.6554222604338,-26.302834789699368,-22.90695582837376,-10.320669231623292,-1.616968821229478,-2.6905704300441897,-3.3234618414348605,-4.719111354567189,-11.140900673441969,-11.828997163124328,-4.7120429270280795,-1.6714605562180676,-1.0160443566841852,3.396663926993166,3.0200488480779595,-2.8462483537678986,-2.7475813795624227,-0.41864620555877674,-3.002922640814809,-1.9230017466311247,2.6847535525431683,-0.3445613906566303,-4.738552495337135,-1.9458533195766239,-2.604950140339739,-9.861831948648604,-12.34614912826381,-11.131426718781539,-9.795507585975402,1.1200083015440025,17.51868264322894,20.47114429896685,11.524654304163446,3.896186673861839,-3.9901193128411787,-10.04601151955256,-4.819780153946832,1.9291221091318502,-0.24995527747172552,-0.18846235327664473,4.182366786418318,1.8945585067562183,-0.5604884413013995,3.6426512594190688,3.4297810457629456,-0.3660645299687808,4.346858046570503,11.39619773740101,13.597035013947742,19.27565407858083,25.115923999419092,19.513896740596458,12.082819482287592,13.85351990774437,15.751140798068267,14.456327341137452,15.798448298167145,13.09246391320768,4.070986172557472,1.7584362436619285,5.474035998823002,3.464675275311674,0.8620933462355167,4.419945877307457,6.3433018026929116,7.138319137672773,13.731362665751378,16.4616752929453,9.350031401422815,6.121205701738287,9.270097249822205,8.079770761616064,8.459267807207743,16.533145570064214,18.59103464928907,11.009465821853613,5.692473906300076,0.41977662766748525,-7.628160108750876,-3.8675387082547497,11.970617204922181,21.204914183980883,21.937085073349856,21.01764940543604,13.62084634724906,4.421182951845512,5.2876521869356,7.753950514949088,3.0885208867532525,3.079739005138346,11.17120933954063,16.967285802690242,22.26054975148648,28.958803341393054,25.987474612175923,15.703070722105188,11.748312764368688,10.017098347932702,4.080143828498894,3.205558148117243,7.27595061860844,5.743886184269528,3.5760434547706765,6.296471318979567,3.8850933823435714,-3.9110293762539627,-7.250415233176154,-10.260187941938497,-14.176162745305964,-6.1183392281956115,9.970403148100843,16.026083328910516,12.971961175522695,9.273096369085016,2.523886071768874,-0.8743521117447695,9.411292296169037,19.892209032439744,15.198394842384296,4.7083388468537555,-2.933220523902791,-10.423289206452639,-10.869033865302892,-0.8497931249682007,3.853436690732819,-2.1996449429744227,-6.205718615020902,-7.166312890805223,-9.382572346538254,-4.849156765788732,4.372975790696845,5.02964070212659,1.5651151732157638,3.0879151304204324,3.319854863076487,2.9586500079247466,10.022305695290335,14.484132638866491,7.418748580004174,1.0408012760807623,0.1342847093391023,-2.257164877130878,0.22641932531616205,9.95847930928437,11.73329549317064,4.424981142623353,0.6933319343636383,-3.741767901673396,-15.338569307807518,-23.131228099275205,-23.251479919036687,-22.931468586446773,-16.643628857577504,-1.1663496408866108,8.020994447217724,7.009375779410014,8.93091416391139,12.348701960648663,10.719805611326162,10.697783703557253,9.75213774620797,-0.5887666721175466,-8.451671919636896,-4.241920326944737,0.010262578727949334,0.6268954054838747,4.127963266400104,1.2756843256867971,-14.06181992944039,-27.095385613134578,-30.541504177541732,-28.924059103321653,-16.45414317438732,4.639944729333741,13.143784826335827,5.753413674448479,-0.8362305336742937,-3.8143019819673807,-4.764507636303319,3.5790791879095214,14.117354700814152,13.282479197424426,9.077090365140398,10.079510577043514,7.4974454648248114,2.10480347143874,3.306944834022336,3.3742638024772775,-3.9344409683303123,-7.361294307426805,-6.1950281843590975,-9.652484861340728,-11.115267137777849,-6.481887175375019,-7.485678154482613,-13.138506658472252,-12.638042626405088,-10.680410973387563,-11.133059912368202,-6.274056357077061,-1.1532265298253217,-6.50628608570557,-12.518365148429105,-8.339494490901522,-1.2725661722384616,5.728288869855202,14.990274936154206,14.293349048956348,-0.9761925966363076,-12.769310272351042,-15.255925971189676,-18.622798436744205,-18.663678750675356,-10.35192257601183,-3.9015834708681165,0.24298895759502354,8.926003308338336,11.964718541947311,3.402520246710116,-3.010685066185498,-4.658667166782898,-10.577986781348892,-14.354390673845966,-10.640439447974405,-8.43157820079846,-5.3147022074104875,5.937718511791719,13.137229407463941,8.307095080170505,3.2414294121400715,0.8848438949918184,-5.142571773782359,-7.785207010868076,-3.5111668151303057,-3.847188525369657,-7.3377383756763415,-3.104349359607256,0.3021865885092121,-5.906777208626957,-10.764751639281851,-10.082639239691833,-8.99305410444216,-1.1203518956625316,11.767356950444299,11.524957614630281,0.6337442836637974,-1.120489512250754,4.946530710523968,9.311485217280223,14.661566947935198,14.489525299943985,0.5252584131924483,-12.048030993131642,-12.728109879827564,-13.518508266118339,-15.372222788959892,-8.852562386369948,-2.75445472860793,-5.30673850204679,-7.3443675054807045,-8.179649647407864,-13.619043592957297,-13.543247062969048,-2.7033490995311245,5.685781906186116,8.691162362626914,14.152528890701916,16.622091448191334,11.511459934330663,8.108092902854494,7.7812675599200976,4.968600659649276,6.61105030621997,15.535179182288607,18.650333803737478,12.477950804724735,3.874728621063749,-8.459148736043138,-19.233461221680926,-14.249947495043621,1.1737626879946843,10.076786678532686,11.09157824077193,7.14924896895891,-1.9097611043216403,-3.2705492418644972,11.338328351815456,24.65200410739084,23.819659875517857,17.053575406372406,8.028347997743277,-2.7472539201768558,-3.163953261188189,7.28060876232595,12.338802959765943,12.031689010713444,15.652870302840679,14.925830836183342,6.060067967012985,1.9363176886517217,1.4555774917944666,-5.162541474669998,-8.917904416332652,-3.29770707562321,0.9772201653114332,4.5267392123574,13.970001399349938,16.5213687189814,6.532517899941517,0.9345989231328723,2.7308074522922894,1.3734116470043127,2.1628820848563155,7.577650456923176,6.093004721037233,1.6195846681752013,4.711926305960608,5.841664669134413,-0.28125322249539675,-0.42065220893845146,6.297128692558921,9.304280809560069,11.13730816538001,12.43877816645758,4.023867634527232,-7.115414558041276,-6.318924514088907,0.08002008168522812,2.865598466431203,7.350774206673923,10.458178442484945,3.9598673707929635,-1.96761555276238,0.8423603984678507,3.0293077034385867,3.8286693218000623,8.427637507458943,6.5533575148579875,-3.9759663125312006,-6.551169010991762,0.8591617186399079,7.7656229452662355,14.747839118953683,18.111495582012076,8.129837383928015-4.420183996707001,-4.086374175725636,1.8314883332285024,5.24114413254697,10.390505596544596,11.435079240411602,1.0934481802224436,-7.14102968404529,-3.8530933386527315,-0.06634304340286057,1.0668723965903664,3.964157028448115,-0.09685386646604055,-11.341533720014501,-13.00379175269484,-5.721810355022868,-3.722985768007235,-5.158974139551638,-7.5583771319453765,-17.374960023591832,-25.118142092674482,-18.48038720482144,-8.366066282374875,-3.7250683966343545,1.363360303687198,2.0404011446742443,-7.525498799687564,-13.562138639352412,-10.46313800185931,-10.037556409984038,-9.975688498947349,-3.001813071602748,-0.09220081098757035,-5.390749813553764,-7.079260710980271,-6.6855967106443845,-11.331894926141782,-10.851213168310396,-2.098603430605491,0.8005422098765467,-1.3012311286343339,1.9697693298343921,3.9469364221627687,-0.19225730464776025,-1.9472336399583157,-4.150890421455504,-13.612385510280719,-18.659849784991668,-13.443252531705179,-10.887761772429055,-11.609692663344495,-7.792030504676297,-6.854556079669496,-10.48186516901177,-8.203058723304007,-5.696024021250649,-12.111040912070719,-15.925635871112444,-11.324866132608086,-10.20278181469291,-12.118398161586587,-9.373568711188966,-9.863057804824996,-14.207037862965057,-8.14913747896292,3.4188985212560685,5.643990249706356,3.0872665565898374,-1.1663512553605018,-12.965450904796661,-20.35851186681789,-11.194467813923541,0.7993349937207412,4.532250334256643,4.934883687807481,-1.1640804330865762,-15.364950085438359,-21.884954238937187,-16.182491887696262,-11.510883335787522,-7.035710266958251,2.8334115901301677,5.844430931023187,-2.1625343204137746,-8.480672911707227,-12.657720563972703,-18.389494434193125,-15.637301623290629,-5.29884739013936,-1.5444801920664415,-1.4666365839919935,3.626046632692378,6.191391350501587,3.4677748938615696,4.041031680591508,3.815339589837542,-3.646981312505532,-8.406714359893234,-6.46942053848387,-5.810182434404741,-2.1396319023949895,10.476510985990002,20.233933807846984,20.99223298585987,21.721780811679217,20.693398643751763,12.590775292525924,7.049157051680863,6.514623840703059,2.1742988663105223,0.0870749220098036,6.991845061109171,9.630339484588198,2.355679780080832,-3.938446875016252,-9.241479545608225,-14.950797529828312,-9.493314486270183,3.36820228361076,6.200982936363294,2.494292808851257,2.2071978357410105,-1.1157348269401877,-5.470920662508497,1.2056111457997205,11.201909541257056,13.96086517234354,18.236708557432014,23.993128315976364,19.357094636620054,12.586012704587564,14.940506642946314,15.104676179744065,7.688214552451628,1.4321418336226157,-6.828257440727597,-17.941181500560663,-16.196870033018556,-0.4983498895681704,11.505296909627356,14.960756508398553,13.607831227305699,3.94861673123036,-7.640783517874365,-6.904592973827067,0.9023966685632172,3.9945448062355906,7.287229381132971,12.406947120497565,11.661623780489998,11.508548673321844,18.393891856659685,19.48496703951742,10.58329131128551,4.420819890763266,1.5088489819982194,-2.954117544194881,-1.0308517779795303,4.707395400073292,0.00748776935434492,-9.521381584382995,-11.070577744385352,-8.888598861564876,-4.6490208389671075,7.1715285291467685,15.747306628520612,8.272498650051187,-5.9144721189820215,-15.068467787044042,-16.805060094152992,-4.507267370153269,15.776216099726515,16.399161341781678,-4.689078176596039,-14.43836305430293,0.5693233829367372,25.430746654913907,45.00491145966983,43.814115080816386,21.67280657248159,12.815498237105539,41.16008367579252,82.1208826622866,106.63311082977216,119.14459276474783,133.29022807609198,156.46902414903292,190.70797356870213,219.57206423724764,225.03449915666502,216.51819142845812,209.23239614623017,200.70846588429973,187.11605297971,167.54049763017446,134.73502995258582,91.41158451605861,54.85353308589327,27.964955490059626,1.3978249402163687,-21.178290601847337,-40.971327114958356,-71.38490917158713,-102.5829333380571,-115.44134941663246,-121.4647573112152,-137.15516304649702,-157.1387864877562,-176.41492895218948,-192.93879444510165,-194.27937546161422,-181.42474848862759,-179.20058429125322,-196.23157487302473,-213.90787349166612,-221.66917731015064,-219.27621507336258,-202.90358513527292,-182.917694973231,-175.75056339846537,-173.69800167915454,-166.04375762863117,-159.94736559933546,-156.2710651960263,-149.02676035833693,-142.4847216364819,-135.82095477437986,-119.60351088294462,-100.7256810123568,-94.73609603586567,-97.2278127280428,-95.95691445911392,-90.29624611397915,-77.28306844717744,-56.08337533485766,-45.023938922345124,-52.280787769382115,-57.88980854715149,-50.98689002082577,-39.188631335435474,-22.735798866306318,-4.813283432581104,-0.6744440505611073,-7.69913861435503,-8.056321547447244,-3.0723794664335298,-0.31580348048236967,7.332073754484045,17.813517293552795,20.03723738497395,22.13858623259887,33.44237232782916,43.05970622676545,45.916949714368016,48.847446266664434,48.48832167684218,43.39754514159848,44.8583897446729,52.29686978869418,55.968874234268654,61.49081486070657,72.32820428495671,74.046216339971,63.297455141743654,53.112733226580055,47.02116871251579,46.89749546412168,59.808128152317984,74.03990910700777,72.78231887322585,66.48156859386289,68.44859728925759,70.50261038029129,68.2888327076066,67.57537393729504,65.77732284869734,64.19805168421769,73.98627155894891,87.99467101010531,87.50653490723755,76.13062116355209,65.2802513711659,54.2247803842832,48.03640144945497,52.98648515254208,58.83517609503364,58.97750489503814,60.977625983683666,63.430124220066,59.63611277378186,57.981848821502105,62.97199283658945,63.178512349013644,58.926090747538076,59.94821157172605,60.83886639684103,58.34991446461972,61.393439789921295,65.05763586145801,59.717354379051585,55.4667061179742,58.53478662605234,57.679214941303286,51.60461995505983,47.55944421136813,41.50211593761127,33.921505439477684,34.9829386341512,38.54756566618199,32.240709602759665,25.260180686772763,27.631420986592982,32.20923620129629,38.05019307881351,47.095347102176106,45.41146414927965,29.947626728765364,19.58731839783574,18.614029639141098,17.3569381143521,19.222380624433477,23.42991862277843,16.5915743398616,2.5621298490177455,-3.9943455149117515,-4.672423942897914,-1.3906780907337088,13.16944065649792,29.292380045102128,28.509749633987987,15.752179293785508,3.6489648399144254,-6.728708073311167,-8.509794057517382,3.1029279103943805,11.789146281470881,7.146996072684894,0.6786839480440008,-2.4471241741715857,-6.835006063152416,-6.8894073660570765,0.47205497910073957,4.73493796711005,2.942206647105724,-1.0795629907674371,-14.033700475739876,-33.88569346903681,-41.241175721048286,-31.732168642445327,-18.330993327563295,-6.452114292399369,-0.16404922372545228,-5.560302525860079,-11.535746891195437,-5.100866764402294,1.738313580584117,-3.7888259348476914,-14.309042163138383,-24.49104848908977,-32.4297291970821,-26.853265278102295,-10.15192139304992,-3.92320272019528,-13.911809770610024,-28.694266340839473,-44.089714537809726,-53.09967452508372,-43.59725800730463,-25.476897218589514,-18.350383565443316,-20.075351625310965,-23.063462115804825,-29.092436646875854,-30.6384552064776,-20.86010933736008,-14.955534048262127,-22.603285564430536,-30.79307616206618,-34.461906778603215,-37.59500104856926,-32.95231377917518,-22.94986374212513,-25.25629868064761,-37.5190127850674,-42.01404079482178,-38.04986023204507,-30.64908606450298,-17.679279516358918,-9.775639150914968,-19.663159219648932,-35.099838793939526,-40.751585793843994,-39.13837035078314,-31.268194424661043,-16.458064694960285,-7.50907416116387,-10.833806503047123,-15.230013110289176,-17.859594272306705,-23.2316498493794-23.459228055284534,-16.71305904882395,-15.19275678665418,-17.781246537678687,-17.382047981091585,-22.886102916767406,-34.57186624541399,-35.97478949296932,-28.431252825677216,-24.331485009825997,-19.888152694286724,-16.179425326448474,-25.594582969014713,-38.52884175896771,-36.72383099483699,-27.63591780480533,-21.175010712134025,-12.636990805267189,-8.000146725256654,-13.88882604019356,-15.902526790903973,-8.732128720813206,-7.4674018182845385,-12.929718523991001,-14.717985046446081,-16.780334710505112,-20.925041390696837,-17.71695831561547,-11.978284394075947,-14.839953664001579,-17.747627194814086,-14.49665876940124,-16.64510545715713,-22.62260312982565,-20.460925205702623,-17.296928057368227,-19.719305786984613,-18.805256752018323,-17.91254110851444,-23.86815889693853,-21.78591948759746,-6.553790436480775,2.60125094877138,1.4372507761722009,-0.3262829507095434,-5.971884411748151,-12.805060572146331,-7.0966385343710865,3.6554688291690254,2.7108358202998977,-3.447018735869107,-5.180851963258791,-7.776967909719479,-8.785187454515984,-1.832211673983255,1.8897788395677877,-4.869032743152831,-10.607821131256255,-11.135838416673776,-10.196666620803066,-1.2911326891236627,14.024481746906174,18.890078373481806,10.99739465736136,1.1320049369516623,-9.14537716368706,-14.394236984966394,-3.3511488716807647,14.12788745971135,21.025087664656628,21.73469304969719,21.314834087940117,13.501245655204364,4.6327626155707,3.766573092590486,1.6630051531062584,-4.63829572608979,-3.5744049084957576,1.1297507662165052,-1.228262761018439,-2.6322705751086457,2.356699281141054,3.636397253468493,2.906201179892948,9.235746773913007,15.773652772371726,18.84325256775992,25.607585976771986,28.143490453909006,16.316626742553762,3.7321513210252153,2.5669452223655163,5.835005589128613,11.006290264536396,18.172980556724166,15.352787881157004,3.406246895001985,0.8463475275066258,7.508438911815994,10.411472383180193,12.81979237148408,16.655300013559184,12.96264250849475,7.996022216623107,12.790080452210322,17.686111343923155,15.408915040940043,15.076443238347029,15.6610975029799,10.227729897045165,7.181532420547979,9.834884003582825,8.212218872102437,6.11174284947979,12.908262008570208,19.35128022844772,16.95294432689883,11.02356689502519,0.3091163136412902,-15.320161071987233,-19.188538079561066,-6.637801024167534,5.243241049755034,10.973852893874017,14.266144146843393,8.599502276469385,-1.5419163964660672,-0.061492214745499485,7.340486204131945,6.697175664100762,4.0362851360693925,3.5971819393423363,-1.359717890292387,-3.407210212898275,5.684128538035029,12.18395653286263,9.208633403553286,8.111903748199932,7.952023156547564,2.766758084774076,2.1133409167121817,7.447882237328339,6.554034142583742,3.7324999397438003,9.03569514623209,12.590627029896819,9.154346787469652,9.10168118312958,10.126217836411396,6.188673800726688,7.195127498903828,13.247751466656593,10.430959976334206,3.426311657374971,4.100617055964885,5.420514072179461,3.5756076480093917,6.246426621802762,7.856178431667905,2.9733267331420157,5.155272121231799,16.395075484741426,20.16614891164816,16.378303494626465,13.55988929670387,5.647140637053909,-4.717469775422705,-2.8288288047909074,5.0447896729121755,5.66064475432856,7.1210916254014185,13.311281732231459,13.709495474516576,12.330274835884783,16.825590599336504,16.843938343678428,9.480146201487763,6.887596396512942,7.37391771467629,3.2365104708041033,2.3815744664869265,7.303294095349889,7.982607233682566,8.082224041999579,14.104797067827242,14.212783352560756,4.325868118649219,-2.215586951257474,-4.020845686778761,-4.951366646836666,4.271480648714725,20.20228454024763,23.795883321865155,17.15862075698774,13.934855633527794,10.914048099149536,8.140588815026181,14.432947971541681,20.295673552651927,14.474758493319229,8.172423246461499,7.001639041342489,1.3276920422351626,-4.496829191934488,-1.5886854032511977,1.3848102256149668,1.3467412020235532,6.6270464531990285,10.15615524021409,4.09049290427731,0.9358822252162624,5.940445167271722,8.79938686204294,10.79880957892932,15.871293457409378,13.730170366627219,4.7703336732643455,2.47307526046982,2.800575881750308,-2.519319736263456,-3.911414379947808,0.688332468476055,1.6801269620887265,4.396044480574043,13.574032254628982,15.785740216337201,8.065804147633774,2.044990765309969,-5.308638254191524,-19.169119822946197,-26.123692619790475,-20.502994482034826,-12.565421674388023,-2.409448514449326,10.393396728819756,11.273831418137146,-1.1627541167745363,-8.689627670681004,-7.5588349615555455,-6.101376673072315,-1.6078760700711139,4.20741993269839,0.9754288860279039,-4.694097734962568,-1.655997046532758,1.9047635675619183,0.17308315947931652,-0.56774420998394,-4.574241276465516,-16.789260735962426,-25.163451214240705,-24.289775909686075,-22.77440546727358,-18.642211488291398,-8.276183817399918,-2.722306583313692,-4.090728757842406,-2.4459421085872783,-2.6660111760726353,-10.394868584108536,-12.497926071067804,-4.891395788845646,0.7003735091493835,4.535944632398678,8.703318077775746,2.5996088838758724,-9.445224677823482,-9.670229185947328,-2.4830268017475845,-1.3842520348995868,-2.8251843329171784,-6.116719045597676,-16.727265422051584,-23.87613328422788,-19.265043912382044,-14.896621164236635,-14.165313835942166,-7.655389672976146,-0.8147238526885807,-2.257986820131988,-5.700179318423583,-9.774495941737388,-18.112960479839725,-18.62137677231552,-3.9527014794696527,9.349586038175211,11.415951912016979,9.302433604057661,2.6939103693846214,-7.189415481063702,-7.277958132008023,0.5513739796148815,0.8984405396317969,-4.098214006477572,-5.124872608150819,-6.445836388479585,-8.237045831530006,-5.291274356239127,-6.7812165070975405,-16.69888291502509,-19.54826156387782,-11.897053973102494,-5.339896211104239,0.8797353943848938,7.549137852244596,4.543729750482281,-3.268303228333222,-3.270128397771697,-3.9131113806927336,-13.681024056294524,-21.31826834173921,-23.58356944916466,-28.9099485029068,-31.346362586556666,-25.740262329753385,-24.453866768402385,-27.68897060653472,-22.71198338364513,-16.28251507825535,-18.04763814765137,-19.032717815126027,-18.485495325604763,-25.028036509130914,-29.67642797463983,-24.137822641233193,-19.38635858662122,-18.616301538513415,-14.043381646710191,-11.176396820279312,-14.580121798938327,-12.509870728489032,-3.0268791777355877,1.8155737224293738,3.067538077139649,5.778671998690963,2.638026464377839,-3.627323902509029,-0.5494763205210091,6.174622205340609,7.020436828726792,8.545936222106699,10.73701190867287,5.210104896681376,0.4648770974202041,4.658519821440741,6.160432227643493,1.3464291698281698,-1.3525199810657047,-6.771239421931066,-17.2195447635041,-18.792877154205804,-11.240904569280103,-8.058255175115054,-7.464552102161272,-5.580826499967966,-10.35436991455056,-16.550064340736792,-11.007124821419383,-1.8248078541470611,0.27062005540384193,1.603969357811067,1.8221228341717755,-5.429837125067777,-8.644798666130688,1.429602938911144,12.506579355670548,17.925964796333236,21.899155251998856,18.112201377626498,6.423932636255935,4.552816973483589,14.469027045483237,19.782683828401225,18.642033127782916,15.156296832899617,4.313691129195401,-6.902003689530861,-6.172454864997992,-2.1558793638814917,-3.115547497968421,0.436803551813415,6.552822659517655,2.2439552602431228,-6.204633756039473,-7.7430744160925045,-5.858029489182326,1.5277964291147037,17.773969161767987,25.90517764068308,16.68947856765486,8.345930111456115,10.540733408217942,15.640710853518137,23.89343849084342,32.26500675961047,27.985016587094712,18.253087587928793,20.73061114019262,28.575750008899305,29.92906738109092430.700534165081,30.20884561324344,22.287461946286196,18.840833254696783,25.67702085337559,27.47300875119473,22.29284099028063,20.889761747197095,17.65365062908223,9.479482001319882,9.392245299501095,16.172702010767384,17.43605924594209,17.06946980289246,18.757587486226672,12.797458031077817,2.6151162571739506,2.1940072088722453,6.32538516807942,5.776912611128527,7.5122979721065,10.46365829821815,4.768306639729879,-1.280377796230879,1.1296595485623346,2.1066824744558192,-0.2764513937985851,1.9016981277510434,1.0570168868674197,-8.464850791165105,-13.123130165930858,-8.79183104279788,-5.039019952878268,0.29840303584970007,7.661700700143007,4.513541372810042,-4.9775408392816605,-4.576315073358622,0.666116373669035,1.4109459986937354,3.897352976956432,5.579310497795681,-1.518560703271799,-6.439926935975006,-1.9644937564663738,0.11265379467437106,-0.6383836982947748,4.93395466547175,7.071725130975892,-2.854978296372955,-12.879183295939082,-17.950336044762714,-21.26575072485614,-12.623512974372332,8.958020749645407,22.410517544126648,21.040847787184013,15.311651884383945,3.829732150957051,-11.813368682844587,-16.45280310867016,-11.929990505956024,-11.592523806098633,-11.224435086340218,-7.453228399035025,-10.29700528734748,-15.491210200110999,-11.9559410352411,-9.342619132445527,-13.924735773410289,-12.71597413298812,-5.489335359615465,-2.011944628235698,4.279822650724258,14.567374464557009,14.079810882862432,5.800924104980801,4.562958711595925,4.9982473513163965,0.27805613767793913,-0.40808414851266617,2.246166884786634,-0.24030430631441213,-0.6901801761295221,4.539546480610465,3.2174784813379493,-5.404714625050869,-11.645347731251897,-17.246738367881463,-21.421416033924746,-14.21521345802238,-1.3419131300525269,3.942234735924404,6.315940714171817,9.81188081834421,5.573094831602945,-2.7457681313439455,-4.661671572035665,-6.701171155951996,-11.775561639416463,-8.096488821887636,0.10902597430787697,-1.6402756615089678,-6.808463535671779,-6.7975692057154555,-9.538009766329642,-13.236521005162892,-8.856884714957484,-5.542905007294307,-8.369006611363911,-4.552473403898399,3.6481041447840656,3.0746262650099427,-0.5321299618955568,-0.6719531471855333,-3.150348707534847,-2.9265954421287343,5.792238522117459,8.1226887591983,-3.2725913364522503,-12.360484965732217,-11.876214950029913,-7.979086963684831,0.874003059646792,9.81572870058095,4.4741166754766,-6.095491657974055,-2.2069078596422274,8.516386833291,12.20482401999895,11.055773438947165,2.7291780837829376,-12.205951518173443,-14.614106528958224,0.41987546993327385,13.562316965084497,18.02016483900694,18.844327837604666,10.344585340237114,-4.93898615879568,-10.534968339010852,-7.754957914502085,-6.973702355271108,-2.1069188834699366,5.967486576332643,3.1744249479511764,-4.661204551584565,-3.4818852457266507,-0.012428242588959582,0.10039676313019674,3.7668430086814917,4.846445146946294,-5.221559258399619,-13.60386596201794,-11.53086068156178,-7.6853297706748105,-1.2656865276070375,11.654335732397493,17.387257575382105,9.112003524061748,-0.9413486601383163,-8.238180916642127,-13.285200525313652,-6.798945013871027,7.003618564126786,8.198537560697305,-2.1867757461496033,-8.38837155422741,-10.497753869954378,-9.716808262647541,-1.2557557817455822,1.668538066197195,-13.019474302444735,-27.378558295924456,-25.261690971818044,-14.771573546550192,-1.537094609696902,13.059216511374814,16.708967842674237,9.001728795425594,8.204671560950631,16.789992807128872,23.51165437503802,32.34813121533657,48.620143467331545,65.74401463658982,87.467515006366,121.74984129643258,157.3090239551958,182.95532798207506,200.86238702290342,204.47316920962646,187.1197319997559,164.75417648246582,150.06040958647748,133.17688025787726,108.83432427147179,79.6079011798255,40.43295315168078,-0.5717731774568922,-22.711908903629542,-31.439851856534013,-47.42270986332926,-70.03331059801401,-92.33524982460804,-115.80267225189905,-132.3100305000116,-135.7689403748839,-140.65135368503513,-152.04862125577688,-154.24736468269822,-146.9629308459461,-143.6058603495478,-144.12511762877574,-149.06875200879446,-162.85533723219334,-170.3190624595495,-157.22204058247002,-137.45601294740067,-124.9660157152905,-117.70611087707552,-118.91465677887776,-127.65824387831375,-125.93540676353615,-109.30287957467652,-93.26980090870927,-80.82647907110395,-67.6555709131475,-62.60570570714933,-66.05044426536702,-63.21481125335278,-54.540140023199704,-48.79461178981025,-39.95654935170505,-28.751177861682102,-28.536878336679997,-34.0451938992064,-32.63497556336047,-32.13332730844004,-36.31168497045189,-32.792265925719995,-23.72643483116842,-18.32637201982586,-9.654179055452174,1.043361851633681,-0.0630871533929076,-5.2121400636363155,2.1503769045722714,15.441172027570227,25.13136117263032,33.514346336177134,33.44335092528216,20.689643378674802,15.435598009516163,28.782937416158898,45.83977905503602,58.569553713946846,64.87013565969838,53.986627799972,33.31797312416051,26.65584501660961,34.10946459463436,42.09671402079245,52.3014039316885,62.71197951940298,62.170985464340845,56.4672945327019,54.19626058261153,47.11312292069003,37.441666270238294,41.235038512201264,54.53173568834754,62.72550315582004,67.2770001943847,68.5747358505171,60.517117143199954,53.903988950106765,59.28808127536628,64.80385046439504,64.9139517561299,68.49456640502181,70.57473259847181,64.71860659280237,62.47408231966622,65.73223147552737,61.20222769364648,51.001088359893664,44.21357429005475,37.2424202652207,33.4304346027295,43.34492990351673,55.98545160266124,54.215839469327705,44.48815552899215,36.04285581769346,27.088104860629258,24.962774784252247,34.55723461626436,41.44131482949205,39.873861992857954,39.997065118870914,39.21427513133712,31.246103909475764,26.338207898370143,27.981715185555394,26.653477299647065,27.2543421584875,36.1890172738627,39.8520285976238,32.34349563226046,24.61957911503299,17.092367326244293,7.6845430516774655,8.154519563476237,19.366293387034368,27.00296767249145,31.07251022375189,36.12145291073839,31.228068836943756,16.03341757685969,6.890669113835996,5.698716743492267,6.9230654300263215,15.360868530412247,25.011580837626262,21.121569818004374,10.750845115215572,7.6011472792164465,6.0051277158755,2.269960713597639,3.611449721488446,3.8190000510794153,-5.667153112945446,-12.589639995768849,-8.86259465602111,-2.9504752663080707,5.907166707427535,17.322654332205268,13.768328629976303,-5.652932157732157,-19.520987174047466,-22.25265635653617,-19.36572353275904,-8.1473651026221,2.799451339221002,-1.2613940654138278,-10.712135890980647,-11.898235629457101,-12.371523974254039,-14.999099557826892,-12.77346796442238,-13.955154277062093,-25.470421774110722,-34.15910415864833,-34.774526976659864,-35.24555540459941,-30.48087500106196,-16.924663220975305,-9.386729135689425,-10.96497008339486,-9.405467904258327,-7.928473756919262,-12.243522925033805,-11.587383859913068,-5.973686568989662,-8.697362092833808,-16.32168087309732,-21.06430407309343,-29.107114191327415,-36.90681507316201,-32.11555597940093,-23.900827824653085,-26.235573633992267,-31.85718516358282,-35.525864565287236,-41.23562053984265,-40.121513712255506,-26.98267856372964,-16.99196169194768,-16.082791734127813,-15.333030397202975,-18.751064594856917,-30.46075204569905,-36.19685800504273,-31.901682333516693,-28.928891693295,-24.665513773624813,-15.289200069127727,-13.085267382367853,-18.558355392209968,-19.336712236420546,-20.66398383703461,-29.818506427750883,-34.819811650885015,-31.624577179208885,-29.161768390867316,-22.32381091622485,-7.630682894145734,-0.6981853515362625,-4.792122161081239-6.922271219026372,-8.953747583585033,-15.200411141474316,-15.743235440699344,-12.14348718227444,-15.392433867938506,-17.82723828779424,-11.75271264257018,-9.177801074447952,-13.826257934825726,-16.379428435121287,-20.877363121142483,-30.94389562197853,-33.354555014339155,-26.59763743891954,-23.607873710428724,-21.78444088087099,-16.425158583566187,-18.802079202520723,-28.610724566639163,-31.442962834515818,-29.29960499843336,-28.996450358705857,-22.221126063127187,-10.076929369380743,-5.7163616985713075,-4.72606275202838,0.5814106122536882,1.5130516121534332,-0.6448160210767846,5.587500109127419,12.154581805667195,8.337731006416803,1.8862106429396883,-5.286195861299069,-17.54900490007033,-21.784582217547047,-9.671185733004256,3.0792806969597026,7.618928627281143,7.925041811927595,-1.8670272308946672,-19.54167007504299,-24.07273680168199,-12.005702670988377,0.4432080074270588,10.142382305056472,16.575724925871974,8.88531718909159,-5.926806621657496,-8.309084958756142,-2.609480045828599,-0.7124228500294125,3.046381206108517,7.026932108100167,0.3042813944858396,-7.455665326227674,-4.683032157457163,-1.643505225865148,-1.412338471530608,4.554634327401486,6.932151308235433,-3.8184845460905126,-13.95632088944677,-14.613264204564373,-11.545657985051365,-1.542885552455878,14.633607595685351,18.847678958317672,8.552653213595557,1.3767861285061218,0.8700445003531943,2.328020957360514,10.301914926255323,19.324170031167817,16.54880512996211,9.397114402693123,9.498818384166759,11.076293543880348,12.351650578004783,17.90418882210816,18.37726601911377,8.509591417635058,0.4847852538251234,-2.7807743631145074,-7.017099970053417,-4.918712519841677,5.49101286692278,10.259014718902971,8.329849178929855,9.063425160624574,6.867961393750326,-0.33655857376024967,1.4927994327717755,10.67976967033776,12.832300631579969,13.194555678561919,18.413673819410768,18.121367571548,13.627264641701588,15.95381712355578,17.099540042812308,9.883140869269413,5.107310196260235,3.178406847692306,-4.274495234106068,-8.24538520723162,-1.5341076823323347,5.365781227475046,10.661103347808563,19.863722021665957,22.8317862761026,14.151279980681643,7.392377002953417,5.771965955716841,2.6271235169159266,5.8968708925671605,19.235078395125946,29.165006504096844,33.47167683768684,38.72191483788087,35.39782721474255,18.249039008825186,2.6760821380133493,-4.553802321331338,-7.987284960861363,-0.9433624279212385,15.365453100925691,21.43350727214692,14.388495108627597,7.938589761547512,2.4409052984646906,-1.9251948604168008,5.853745166411539,20.39156226094715,25.781530654025303,25.344433430383425,24.94532123354574,17.668657544398837,8.994416282711489,11.552363992887148,17.17629381694974,16.404989881596784,15.509338005180906,11.783735269288211,-0.8885337844591357,-8.91081122094686,-4.1753285638854045,1.2708031217652702,5.23184085895549,12.909406041625507,14.005049926652777,5.02284209643359,0.5584516480212345,1.8357667336179362,0.6781234549400876,4.1955998383320345,13.885164121873123,16.179347251521264,13.443602891036132,17.574185431734097,21.54743347216738,18.161292007982595,14.738963071706669,9.365515926621228,-3.2692211681736145,-9.476337527670553,-1.282154531503585,6.753886178716712,8.279193200408645,7.747533304707234,-1.2336962407620935,-15.972659318879378,-17.87066326980126,-8.47085709318692,-3.1891906495784257,0.6883828044754277,5.786896025608167,2.697805475209194,-2.7237603423792125,0.3563875084795276,1.5175261453056594,-3.5707191510110388,-0.37060654762920375,8.76459681940827,9.492439783168987,4.844687954151019,-2.107515175336655,-15.913344524907082,-24.171244210887615,-13.513567181112387,1.835873558033637,6.10589818533839,3.56192947160008,-4.683799845665219,-19.439607257970973,-25.099452663590043,-15.36180790866306,-5.628396700046749,-0.23925519925779648,5.63677641083454,3.4676999723560757,-7.740407172436486,-13.066099736461165,-11.254785368468747,-10.16116482939574,-4.8160082013427274,4.596258642340049,5.322445940518817,-1.7542513651011564,-8.094832540277526,-18.511538671042576,-31.998979498222575,-35.08496501645858,-30.262655590804407,-28.495909646966883,-24.41453641286756,-16.013643844108856,-14.194344923330721,-15.422455331183015,-9.777206958239812,-6.139336850031357,-11.173449481817725,-14.990433969027716,-16.367960325610216,-20.503400958640135,-17.701202903252955,-4.387313599932326,2.9464833258880834,-0.795647208807833,-5.921927038412971,-13.110498954926145,-21.03946408946827,-18.529458915010327,-10.721599072767592,-10.225592810507129,-11.153090725949138,-8.951655238803918,-11.56717624432275,-15.02479151481649,-10.867176529147788,-7.649780633210174,-10.122990881384816,-9.061540554881798,-6.7942450787272985,-10.139497946854316,-9.795170241553764,-3.4222948158827755,-2.940845086675937,-4.183972490815441,3.363132791372299,10.686440218451512,11.473675010144259,12.93394542591221,11.601493349341839,4.014575922929039,4.858340145885235,17.865744343433164,26.97557954830895,29.275277884490038,30.875763263688928,25.546676822895925,14.242168208932043,10.504595054642358,12.715757612261795,12.14355702445205,15.171957640515696,23.24889445981853,23.884238628598872,17.888438645063943,14.306418762091232,7.4238243419970935,-4.330928679365858,-8.612413291808974,-6.180899359978103,-4.826640972255732,2.9056268339413363,16.833481733494956,19.995618408164486,11.80599061914098,4.1947243482448915,-4.413951783116498,-12.699125908298512,-9.980637280850821,-3.237242132066763,-6.102147145138802,-11.499932151745238,-12.547960359328652,-16.449623555633536,-19.775076058793477,-14.44795965834616,-9.480024591420099,-9.66590693834662,-5.996491021013614,-2.4592653534122704,-7.516758634560124,-11.443260129266955,-9.110509349990643,-9.565344495479696,-9.363777252284684,-1.2782976292418744,4.774505309689917,4.6046980048395305,6.973310494663324,6.716169527373268,-3.8716791948393876,-11.742822774446697,-8.7338273432572,-5.047871456232317,-2.0266843369267846,3.23202557387178,-0.05562321191827779,-11.493883459403364,-14.490535702134522,-9.929386584500186,-8.273467483275402,-4.337267722932216,3.0669646400083175,3.756358840212207,1.5063311247691844,4.069946828946374,3.020101485304388,-2.6113917291034965,0.32382082375013055,8.724538316803205,11.41592770300875,12.991926192204087,13.7730818205855,4.421845370388196,-6.939025097668272,-8.126181937090717,-7.7604716992429585,-11.398725122221089,-10.956803592859547,-10.211680503306988,-14.927884526275614,-13.411621757325287,-2.9336321048420166,2.845291172037995,4.661735199353036,9.682947173793053,9.964351855167,5.1442648764186245,7.140470254360895,10.640074134824872,6.257613382920134,4.532970779095066,9.961717192912737,12.45142992888254,15.061661366659035,22.33585832206176,21.293617745376217,9.756070728924492,2.2579444493906253,-1.480440438070404,-7.806752443606211,-8.175986932564403,-2.1112337021319556,-2.5493798753959203,-5.660176607128466,-0.6732045805595486,4.603284948475579,5.011342755681438,7.664780656366536,7.106261658808367,-3.5735877256805324,-11.404292007780347,-8.365428864924358,-3.3443141488928596,2.5213697866103963,10.924604958395031,10.229730182480937,-1.2312096158495542,-9.066419504087179,-12.286033619525,-16.349690780057944,-13.26925074179423,-3.494155694347076,0.12935203204411755,0.6327159009697331,5.0453261951664246,3.6103147874678863,-5.045796038371222,-7.818851807401797,-6.309175569335901,-7.0976119303444785,-1.7924458790422517,8.575147955250666,9.999864336578165,6.431165491517752,7.547355146044087,5.992533271404238,1.2348045921024902,3.4544968072106825,5.206969590385374,-2.864741617311408,-8.965445115197578,-7.756647355126214,-9.001790637874965,-9.74887765370937-4.9522884516343675,-5.048414163495623,-9.14891913650579,-3.5994996896949334,5.703529911961975,6.603322464969546,4.825001046939292,3.004739483196229,-3.810238325939161,-5.472561583231581,5.743245593534311,15.93803225533332,18.976258527101166,22.589771715340238,21.067833613038317,9.36901056055143,0.7871496602627054,-0.6800736143774424,-3.7419425796073287,-2.4296587952084976,8.415126655750138,13.919232834161225,9.317879375253927,6.751345241463634,5.354449739976413,1.5653578617861774,5.284122719471374,13.718759392986183,13.366956284750103,10.745963926003968,15.048320309386511,16.316192466276654,11.185580811636783,8.877841162304861,6.815327492726926,2.499821585581235,8.042644612203585,22.291681700539865,28.997675427659953,29.311494838866103,30.767011672187127,26.248869141419462,17.72684685292072,18.297561915595168,22.76349493253006,22.03448914137094,24.108428251583103,29.509791145114036,28.041417400152405,24.665976978276454,25.47408592284647,20.272260022412183,8.734308356297547,4.105335968425977,4.743532403320652,4.734638331389185,10.888501356739381,18.752960002372504,13.983243730457684,3.062541358060747,-1.5513002307617128,-3.8616708471343513,-3.3776665807510664,5.8259622603823775,11.315213196948712,2.0212912641942298,-9.855122578346792,-16.3287703091903,-22.431653086628902,-22.53315800091281,-13.52232847546366,-11.17127625880472,-20.411576211994284,-27.515759500304735,-29.556555629563398,-28.834301599502812,-18.153586980058925,-4.0958772195827855,-4.418610207091146,-14.296334413907864,-19.736823395402503,-22.72016864492477,-22.108943229795,-12.144835802993805,-5.098310445612492,-10.432413898629804,-15.50065204338616,-16.03832377704701,-20.465388101918805,-21.845729411888886,-14.579960781914771,-12.67515988098133,-18.836279017914368,-21.395477730510407,-24.260323285117973,-31.698947640595303,-31.42772479981558,-24.316043264039408,-24.845454385079176,-27.971301793708783,-23.455455841570455,-20.171720242584747,-21.68932603624323,-19.10894429662322,-16.793575946872533,-18.6680570465494,-11.272409820732909,3.956596923970923,7.300314464825107,-1.318109680637645,-10.607287958715954,-20.644297930579846,-24.883248320206164,-14.517636617660727,-4.116920439781588,-7.4639429353243765,-13.78539917300713,-16.443178177320956,-20.775856748010074,-20.836060543870133,-13.470029948840335,-11.408429202387843,-14.71910596797155,-10.940052561943569,-4.252711709875017,-1.9140046041657626,2.8658642384165196,7.356061073128557,1.4356037391384842,-5.334083429478314,-2.353915568903277,1.5649187950466699,3.0516405943845806,7.121019004244998,5.398726694602891,-6.196592718970011,-13.664882575190115,-13.475667103165149,-14.124823182043144,-10.966618892852926,-0.7474106847386395,3.8191342181779446,0.8346618492213511,1.2075896975621363,2.1806504440416496,-0.6246505793182038,1.034201309160642,4.668925741892703,0.765454272295369,-1.5221836792910448,4.429073039701401,5.242743540009446,-1.2286676658686337,-3.431787038276987,-4.605959917130692,-8.934143316872438,-6.946731448385709,-1.6338123729042304,-4.284206061940452,-4.968279638270329,5.307580896268728,12.156851841260597,10.904436174005621,13.49357574457692,17.697027645763896,18.145876065795605,21.901922231402388,24.7884245533022,16.399381273040326,8.169046301442378,12.59195998259075,19.506872207199923,21.843204561581572,24.138704427269996,20.64198109520067,9.340389818910445,4.585925902816962,7.193710321935169,6.71363562412249,9.86674528812053,20.777620677477305,26.27787434600229,25.864017059871127,29.873862914090154,33.613012279708435,34.92679783775501,45.851385948605795,64.47463105604075,80.68720086149582,104.2956242120734,142.36096221085162,178.77680185566243,203.40664465398106,218.4851026613407,217.62501124965056,201.58005483327523,188.34268334680985,179.35889749140676,159.29643955486557,130.28469862723085,101.25184029411183,70.81128692250445,44.52246824946768,27.420111770729974,7.319592919145557,-20.29545272949212,-42.572237597460045,-58.402224701176564,-76.42716824823725,-92.86144010317423,-106.83342287121516,-127.74490477777988,-149.13036546631713,-158.26836427129476,-164.43317888591682,-176.01281126709435,-183.20875713536196,-187.30689910919304,-197.19054253694162,-201.30147959098068,-191.72909064749444,-183.51288934626322,-180.87965012155985,-174.6083227195438,-170.8347198424739,-173.31594372684242,-168.6313371837491,-156.45115819701954,-147.32644762549344,-135.48459157027415,-118.18736080224554,-108.40788788778683,-103.89192895373147,-92.16241459755328,-80.8867447641782,-78.22725595120667,-75.93497369203371,-74.6981836478138,-77.68231991123835,-69.18015660721484,-45.75987770025172,-29.60448753818498,-27.577090942353106,-28.967617137196118,-34.03540980714049,-38.67927671835438,-27.997652302020995,-8.779986987885296,0.5636323891367587,5.129419769309686,13.252230951651049,15.168269865264023,11.94593307263758,16.906836794354728,24.58678120173381,27.190950697679817,33.76725780907605,41.76013327343875,38.56251283568136,32.72862617799446,36.64455656688019,43.92415952452375,51.1712932672892,61.984428121719304,67.31620874497675,61.87553192064734,58.18411189906735,59.82943269819623,60.34746476312608,65.60098117106492,76.1273282412495,78.03627519209087,72.91296976263544,72.39504790370285,71.7268870938387,68.1568014371328,71.7103638894118,77.91387131908684,76.04206661408793,75.50023393746034,81.55913592918675,80.23943026624445,70.8688666193639,66.20864201886158,64.1612111486737,62.242610500069176,69.64076935221884,80.21889698537258,78.98750077033846,72.44205355222503,69.80812097421344,64.38396007739048,58.58896179050277,61.747730045367575,64.923723637835,61.00947814853481,59.0739489767627,57.66502802302433,51.19457132705041,51.58538128439818,61.954869017427015,66.19221334164003,61.946383136688176,57.502108339209684,48.629511371629064,37.62717643315717,39.249380226851315,48.550732997315194,49.9556296744064,48.4617562851797,49.11473626119566,43.595743482947235,37.67668652883293,40.44490691815382,39.587074405056256,30.30374011827751,26.680982690014808,28.143731783124743,25.782276118660906,25.535488206772023,27.109231655456597,19.89801736160943,11.10728456972996,11.955553603291314,12.392780277058023,6.011819344384263,3.214315153961001,3.262243893669918,-0.912749963127335,-0.9968719363108337,4.691865698696353,3.7172911474780896,0.13094932940507165,5.108323948425739,9.544646057718118,6.138545836061125,3.3986373667047025,-0.356606604243491,-10.758540747538625,-16.322700583267178,-13.576610406555528,-16.00646369067753,-20.645766900273422,-15.834684379627923,-10.425391218566839,-12.44694786216323,-14.777406063189265,-19.10771430673814,-27.989307719582598,-27.52071272025139,-15.408305906925698,-9.079634604433139,-11.178921723561267,-12.912663114193208,-18.113612050866877,-25.33031938385939,-23.755819993782993,-19.72269641026457,-21.313270725515427,-17.506215466873556,-7.210206040285272,-5.593825137443857,-11.383849276753077,-16.045390423260212,-26.136699637266943,-38.82046918585431,-38.421369087467355,-31.12763311681495,-32.09764262131801,-35.305119133413605,-36.155791526510704,-42.24342712446192,-46.35994649191976,-38.07896607490425,-29.16787946522779,-28.515262159981976,-26.684820002260423,-23.476798091144378,-26.18510165248395,-27.626698528891623,-24.819034269553484,-28.060875981153792,-32.887464305571065,-27.894163221550336,-21.485028710768706,-21.047949382553778,-19.740308019041088,-21.24740801348121,-31.058630624658498,-36.38381572855066,-32.698465898652984,-32.582605361156396,-35.038910419167955,-32.62504930454176,-33.680254741498075,-39.32686932128883,-37.41916203474387,-32.67282742930635,-34.28689084877762,-32.818933495119595-26.963734570376985,-30.035696257647867,-37.38940008030512,-36.50773484672804,-33.429357243530596,-31.559700493539758,-23.30348832175981,-16.833503034905952,-22.98206005923978,-29.367727604215105,-26.494505724800185,-23.078859573213805,-19.161371353318582,-9.3995472395991,-4.24009666788631,-9.603857818913577,-14.813264037222687,-17.78164840995352,-21.490977328684373,-17.197075369333007,-6.018871429441498,-2.528275845007456,-5.418114987978005,-5.0937476622319835,-5.3916854341111335,-7.534527053024235,-4.583933094247794,-1.6469505059921274,-4.255559293136249,-2.3541047863986035,3.9828459657479414,0.3478792036676728,-9.693294794160838,-12.919039208447908,-12.256800082075909,-9.605168278634672,-0.023733798794791205,5.462589699453712,-2.8452765548490477,-10.91592024590032,-11.144675817634155,-13.511610266589834,-15.763787900015487,-10.539770938886289,-5.994763660946246,-4.231656439646578,3.1616365234846637,8.837677573497302,4.503297609252089,2.6257515641612423,8.460873311626495,10.656983394560521,9.594745754729114,9.755060550213168,2.901883973030959,-7.417852968072335,-5.22661766764752,4.916595889072438,10.812945456485693,16.549984928567223,20.190533404138165,12.428021649021115,3.575188159022205,4.969805665738519,6.8061752000408795,5.272868666740044,9.120434100000349,12.948204792168776,9.212842653132288,6.653726673404345,5.4468726232317355,-4.187478730804385,-13.110987414838938,-9.863404600888721,-3.0729316193076808,3.258781028594356,14.514879811887422,21.521581963025344,16.275256466827383,10.716438388597782,9.95225963895539,5.615242816667527,2.4693609099129326,7.084726298534444,8.79326570092764,5.831199442063203,9.555003601646842,13.888929732307119,9.265906404245904,5.113912469611886,4.179413976591686,-2.039833522358203,-6.403561206499384,-1.0644392306497508,2.550543168511167,0.3060303502035806,1.5187550057435775,2.6799612875955074,-0.31369365187334597,3.782325994242029,13.557549688870123,13.527528262959748,7.1851185138475175,6.189071866579666,6.532811425195934,7.126381541689195,14.024494659891202,18.20683775483387,12.472599838929511,10.045224168358697,14.129694282184326,12.753287163717403,9.737569872649587,12.65087519966864,12.979875076372565,9.318687513281386,9.701873933697222,7.418550297362767,-2.87730232125547,-8.578274015359202,-7.221913013748646,-9.69492047768193,-11.965850197110644,-7.260843850387284,-4.838266269910077,-6.703943899441493,-3.3525281288526463,1.595355445454432,2.2976463575218906,6.539482615297998,13.919591483493132,14.068533499992753,10.997566295873186,11.541211650334194,8.651751895100002,2.70819058209095,4.059708129255974,8.352634199320807,8.282694553082184,10.859701838244789,15.187447780031402,11.916627353540356,8.451264072964346,12.274429530552954,12.81940539232966,8.21609378136789,9.349585502768676,12.878644977442228,12.386235936738785,15.393511344027168,20.222400645466873,15.688558949711386,8.854092153032049,9.740921926215611,9.314301098912896,3.6019698195560768,1.1206476956622409,-1.2376364346749744,-7.120313769273592,-5.781646188785036,1.6494574586803634,1.9331438446751004,-0.08842968199638301,4.119268335803347,6.074272476849845,4.417025284291215,7.662047039998934,8.956828514678348,1.9327542795871588,-2.111656267963072,-0.8750024075265591,-3.1980477247046606,-3.2286736355257606,3.921424893438466,5.501412774683046,-0.8635040184793641,-3.9958114516207948,-6.291569318783743,-11.071974246083832,-8.83732630940511,-2.980814038645071,-6.187325298677099,-12.351657402924198,-13.564192904956089,-16.61411411592319,-18.391956541960518,-8.908952409018815,1.6438677117845844,2.082625334561666,0.565566951595994,-0.6550026603474621,-6.808282693196561,-7.539382674632166,2.7682000152853976,8.989180713319062,6.815793790063902,6.068442339702498,2.694935262545888,-6.641725922997429,-8.686751913963096,-2.4946552965894697,-0.19831144641353776,1.9574488409731752,7.5125836293076755,3.937842270922335,-7.865338525765192,-13.468899783783911,-13.993381598523282,-12.955097536782924,-2.7146784676506712,10.424272478794324,10.853183495885219,3.9365317871771284,0.08454658583775297,-5.304723175657877,-10.00772001536076,-5.62118106315867,-0.4915839373230142,-1.097099429419042,2.829725673621617,10.141767966421497,9.302932300428628,6.772030009928546,10.253750135816928,10.37216863577785,6.39663828855518,7.583888493966283,8.026439484393242,2.495683676922214,1.5389334096069391,4.330012205748318,0.4049675385298266,-1.7368348499772013,6.305201158529866,12.64704186854742,12.134285977121628,10.721049322141276,3.884224640786366,-8.052585942201416,-9.084161465431201,1.8564866299868852,9.29552001226545,11.866266075219226,13.166649889416828,7.606120906850886,1.6705628916896165,6.796905821396774,12.539599100739535,6.814880389141634,-3.150594017158202,-11.85699791708826,-18.581992400942166,-12.00479382214873,8.017556204625873,19.177968447455882,13.414363687725796,2.639028655311444,-9.91549667704962,-19.61801220076327,-12.167900485194972,6.1446595477500825,14.507619233575603,13.854772991066351,13.534531532052466,9.649537336335477,5.533707412415973,10.444016976175806,15.578522685265671,13.212541540067585,13.354427007880545,16.13353133617729,11.050757867345528,3.8357880558284787,1.8593944574358439,-1.343298412087646,-3.0024688637186268,4.0146780536305,7.679732374943395,0.46924569514631287,-5.580736647588221,-8.775812991017364,-15.026347402266898,-14.485786312165475,-4.326134245822939,0.5277545837278402,-0.31671795038659867,2.795016715238443,2.7221584859411174,-4.484935701183737,-6.745021552693077,-4.6516797377145505,-7.134326853844502,-6.485536340288617,0.1570282245506358,-1.23915462582133,-9.77956751372207,-12.654178516787518,-13.952382841934678,-17.710160006653997,-14.72854581425222,-9.6420269222768,-13.561836302235028,-16.475900646011368,-11.27920485326044,-9.652795816363328,-11.119516848105643,-6.404824689611312,-3.552843747939684,-6.939087992283214,-5.613301997577934,-2.6029023351663216,-7.5223875845271575,-9.370459718169222,-0.5612835971036017,5.924415863676142,7.179560353397886,10.194033982723507,7.744598527848847,-1.0261060831558724,-1.412156817913995,3.315410965026207,-1.2572721784608056,-8.246784006295753,-8.059429523767665,-6.723611061134865,-3.0375043978500957,6.985814772810956,9.417920578444962,-1.4807137862581774,-9.260083858554662,-9.279738448614308,-9.892373846501346,-7.496977382498221,-2.9304433489064983,-8.818836522608533,-19.560446407542628,-20.15707623593471,-15.967666777215504,-12.817101545320067,-3.2687557489045433,6.630096708148688,5.302842130833843,2.4306830368069523,5.680724493232823,4.677403995967907,-0.11562979269656637,0.7406712959695672,0.7549766888380565,-3.3478058009305123,-0.18173382816024208,6.095215148162182,1.4449682073297938,-7.40861869679743,-10.577980431870486,-12.082785401172428,-7.99614778536579,6.266654396042705,14.19359208664631,6.059186805269352,-4.0657561022322835,-9.614524571741333,-14.306486089360469,-11.405385530547019,-1.4314278428081968,0.7762293594180745,-2.762610438365742,0.4942129815044989,3.399480777987257,-2.0558634894364136,-6.7405068686963405,-9.300853592289123,-14.913461542715241,-14.092113915642468,-4.237700580350852,-0.6346912079746425,-4.462747875826067,-4.709455489722615,-5.115165625003497,-8.669488418666752,-6.100333161611618,-1.1541004627534797,-4.137294464031196,-7.205809140407792,-5.419889169980358,-7.930947414447412,-10.052438502062454,-2.6508467206378716,2.847199542119913,-0.019394751197587157,-0.24315590676897003,1.4242446798522617,-0.6301274702196928,3.691421215961393,13.460770656185506,11.500410188290232,1.7423796401278606,-0.41695770779285546,1.0981351522173743,3.6178280091259745,14.6035645551233223.690924578509687,17.612595484024048,8.462706943816018,5.729241141776058,0.49487806731016004,-4.948888057858654,-1.8519476064492535,0.7015586026686842,-2.3682168828706627,-0.43008555699525886,2.9242990954550088,-3.5005313806777423,-9.850745344662416,-5.749609749899314,1.6521630382898513,9.719135078709336,18.907586820939677,17.37993385785081,4.516901848716142,-1.2854215794207144,3.322891619952279,8.19291024075448,14.781775889527433,20.93951867437151,15.67585368035386,5.712455509472717,3.5085134320869624,2.3020298153614944,-1.7218685790974677,0.5842003907839215,4.3006469299158505,-1.1177861056517897,-6.222240525582601,-2.9943841188662237,-0.09818739014387357,2.4974973509879064,10.372067556122618,13.7912137126502,9.399266272049985,10.276704798111414,15.535231795492967,14.886466070779221,13.992152542630178,16.21435908970429,13.23843974238847,9.681785518094024,12.919446489295826,12.20004806280838,3.449682530995877,-0.6980071730530811,0.9160739150784287,2.177638155849175,7.950427909203541,14.405780429584373,7.734213395463633,-5.636534453101895,-10.842941447531462,-10.877590883847564,-8.82161648174528,0.06688163285681004,8.460240046343813,9.376703950629137,12.646920118681823,19.492384006521686,17.325266743774506,9.532803767806724,6.8972077172061725,4.290306156428112,0.01858137851275332,2.053967992162674,3.940985440059185,-1.2747039426170956,-2.017639585948036,3.805809354809801,3.374326685314376,-0.5222818467835169,0.9557269557439272,1.4609267066672866,-0.2195482288183539,3.91029196070569,6.795801077276905,0.32392785186356887,-4.757842148994287,-3.880241560650019,-5.610965273801195,-6.155034840961905,-0.0802001861875743,1.9830926529884592,-2.6733581699943616,-3.8414904895342854,-4.662406834669105,-10.6614103412577,-11.213831336710363,-5.131547557342074,-4.787450584126461,-5.879421299744821,-0.6373782987382368,0.6966081427511837,-3.6983000894429146,-2.784923162037105,-1.8648736708555385,-8.468817048842974,-10.440786503004674,-3.5984702040814436,-0.1343268792904529,1.4089988210879034,6.704552196248233,4.534616025606805,-6.473389787778546,-10.832367688168272,-9.617796181865735,-12.774299137333994,-13.595068874509838,-9.059809538694935,-8.616136034941244,-8.319304066783106,-1.5666627963276156,-0.5065866243263782,-9.18642884932495,-13.542142353390581,-11.910165315503988,-10.570478852127437,-4.8772688433740425,1.9286811954138308,-1.5122263318674276,-7.334926146059216,-4.002703689184649,0.13204408971218728,1.532878057160073,7.811192071811111,11.283598802044366,5.1476671225464115,2.9067363034883535,7.175611353568844,6.015975168468248,5.046085490917928,11.584268182159036,12.94332509586385,5.524328612441495,0.42616041155793005,-5.536883440817221,-16.88374632294186,-18.730632321166972,-5.346723321700928,7.579802024184638,14.393892513880377,19.122502304008574,15.67388917948485,7.527181006910135,10.507652287390655,19.09722255012879,17.569249611089383,10.047445455513694,1.3830876420803482,-12.613846276034021,-22.33299391154943,-18.787472595891046,-15.359529102553214,-18.80160383790172,-18.684079322027245,-18.24325498451129,-24.648830462937028,-26.14260679584385,-20.5647563988766,-21.08666813220843,-21.12415734485869,-10.748883220038767,-2.9551082484165514,-2.049787413053438,2.767598473681927,6.299536537682328,3.531154230300788,6.9585652437019085,16.596928295185766,23.043439411771846,36.46182564329178,66.03316693193143,101.29017326384724,136.46522710822467,172.7252394241795,197.57998083988343,200.92606183269288,194.08912980491561,185.68848911366482,172.42396019320165,161.07287062664847,155.21157692907835,136.39102024738924,98.00936481156873,58.79263267904153,25.399583406300934,-4.181270621769502,-19.40735363954512,-24.368152555848575,-37.541854636395215,-56.885962015099665,-75.12327949647356,-99.35324464031952,-125.88305511411036,-142.37044011988138,-155.97406594682263,-173.5453798062324,-182.22680917814694,-180.12999818798752,-179.07716364237587,-177.00339037572775,-172.57742101000707,-176.29139614584787,-182.3508110517604,-176.1689818274863,-166.97674452153723,-166.52417738819886,-164.0039033560985,-153.34540587151218,-141.62233999453727,-126.6808597224015,-108.68925097106248,-101.09910591775608,-103.67617434768889,-102.75627946144215,-100.29084177742729,-101.17015762379448,-94.97293210701076,-80.5755130123658,-69.94461609766701,-62.62123550617994,-56.29484874698419,-58.8092407508911,-63.83640662132585,-56.60112819107059,-42.96150112424753,-31.301725647677923,-15.041986764698292,0.6469257028375734,1.6007877082725501,-3.4182193416830065,-0.45973129985100036,5.965380331618239,15.793715733267986,32.4150952570955,40.29079843857509,31.400709383428588,23.778290962494985,25.617123622959348,28.06697191485088,34.0818800859853,46.850868829372544,54.41472165186902,55.00748391019572,57.151291728576744,54.90602631191888,45.51869774540538,44.194252223495845,52.66458958952105,57.19562831164357,59.95156026915262,66.43670398644377,68.03717436013997,66.56175782103738,70.95041017859792,70.93997245421951,60.9038710728049,56.822563035705,61.5691664247219,63.241715481069804,65.13770620240197,71.52388670067806,72.81575846754706,70.91318803577451,74.83647873493237,72.95556443800578,58.29875128656277,50.7520534631814,57.95617666654489,65.47416109598946,71.69041922613195,78.36496973573031,74.52274308204866,65.6584692270111,68.17432336843939,71.73309112734643,62.05272504048593,51.63897949891057,49.56325828927656,49.294665741863035,54.360270641382684,66.43592311691758,70.28791566112947,62.54026489467757,54.65641272358444,45.6842799470744,35.67776780433048,39.03636757816979,54.58551865722134,64.90914266832797,67.04619565825112,62.84852111896091,46.84111753683773,28.36959099521983,23.016222511463813,23.13262749042002,18.72496276729102,19.671662186211623,26.777354733016846,28.176158693425464,29.805482085487192,37.42438687047368,36.72910196996561,26.923199261922193,23.137261675342064,22.38449130314653,18.262917211117834,20.216161655582763,25.823170041120846,22.16465019553523,17.06167659453287,20.3932017850397,21.16941016262248,14.839139826942574,9.781916746986797,2.6497083746390984,-7.2738363700960615,-5.167441874553656,6.776999981880548,11.09339405819528,9.791470449707564,9.379171126619438,2.7912149042870524,-5.803497292306101,-4.917544030866035,-2.13841974365733,-4.5380786287876065,-2.748192553497337,1.612226698851036,-2.3108849316546123,-7.170148538682174,-5.339253528513872,-7.245876258013009,-13.60134799901877,-13.702926583894701,-14.252751948218943,-21.756265340890717,-22.924006364178723,-17.16406202802918,-18.363302163615746,-19.757808520114164,-13.225283768776897,-12.757257612959053,-20.912657089527524,-24.811438625431567,-27.279194506754834,-31.31028375006643,-25.38631455560821,-13.627808880492925,-13.227503036880186,-20.700226408461894,-24.82555623952847,-28.650969450474285,-31.745156562058618,-29.127404977972844,-28.45832014184776,-32.3869759737644,-28.60609226817222,-18.564772794785412,-17.140613571131574,-23.606563473301815,-29.8058605339416,-35.826689441749075,-36.28687927504936,-26.651456464359455,-21.73674363766386,-30.860388658121664,-39.61943836663362,-39.907036725892794,-36.930413280866595,-28.020356397000164,-15.80709698279415,-15.239128589782464,-23.628334323507094,-26.146718526504586,-26.463632110439324,-30.117846583265926,-29.110161589424088,-26.374105837315675,-30.165664301690956,-30.657792132906355,-23.30691201534109,-22.308027079269948,-28.201164746332477,-28.600929767567003,-27.262463930153363,-28.61698841203174,-23.83861211793845,-17.036003176930635,-19.837375291196487,-24.101846729803533,-21.524160546961227,-20.502560158504643,-21.004240806308648,-15.431157894729724-11.863988154475617,-16.959554020213265,-20.949588035605924,-21.27375284027015,-23.292526678638673,-20.9979563761073,-13.415277952973197,-13.7784369496132,-21.78976127196358,-25.777728044775095,-28.200709726318326,-31.555470670146974,-26.39866062666426,-16.275836833931002,-13.850985071505512,-14.693979736973215,-14.801406114115176,-22.912615465039565,-32.199823280556046,-27.874461199101408,-18.375578286275896,-14.10602133083042,-7.796265692742907,-1.6212068396955108,-4.32154694194475,-6.142154256572901,-2.95334752903304,-8.167520591372863,-17.77859004915226,-17.152936130876558,-12.815282517860432,-12.25187513501584,-8.206018804071052,-3.9742914147790365,-7.684091359617474,-8.80791661884439,-1.754082589894575,0.3608754899446802,-2.5442839642448494,-0.6988368433527881,-1.7273054031108985,-9.287080000253154,-10.269924511245941,-5.286621377676564,-3.148732800464736,2.913324791024672,12.870457052736642,11.966093655455207,2.4466536573988122,-2.4558658791551524,-6.229150071904466,-11.788212503791673,-9.231851841056043,-2.3062475824638633,-2.3041977556202102,-1.298680365192906,6.143933441110359,7.896232419453984,4.751064187358654,6.975095039766358,6.532527005459999,-1.9954936515097614,-5.957141580486104,-3.1404716958630794,-0.5411718954642848,7.956781572329985,21.80119216082572,24.361372999980674,15.944131320107761,11.152646934133571,8.77701539785711,5.555655266040786,8.187480873451413,11.378985151949705,7.013985519318327,5.005185106506875,9.43450205507508,8.979430430536636,5.070088109176175,6.342699184749284,6.928653412352192,3.906211907107789,4.159901716007632,2.221629106332596,-6.951453270206491,-8.69296560093033,2.3384654689666413,12.063093302072328,17.91996640162251,23.57987277801696,20.477981689371067,11.322638832247396,11.76789211352865,16.161867896987815,11.362885931202442,6.604243759919706,8.184870059214703,7.139186025067099,7.794752740603608,16.966309004452246,21.017522739736094,15.217476982486371,14.60152055946536,18.610226551866088,15.827743340849718,11.973707347821904,11.217545035020617,6.361267538168487,4.6466926036361205,14.640543629082602,21.736708442947535,16.641034645095118,10.041745121398739,4.451939936322776,-2.5307670272172156,-1.0667491918649292,8.111729384426514,10.010231652596653,7.546170133072216,11.840953044789561,16.45465079792821,17.55752468895532,22.328197416414042,24.6138034465542,15.425544424095612,4.963229908009345,0.3553985086178906,-5.151214094620744,-7.224100277033642,1.0500048877419594,8.38419620985343,8.798425822542377,9.715078092903376,7.465634286394513,-1.0434168465148748,-2.3506592229455694,5.5444884628303,8.113494464680794,5.6677384561377675,5.8214255901551075,2.7777445598683763,-1.0510651552126726,6.907608813144081,17.875541351087204,17.162609801602194,13.362811906878328,13.49493024874034,9.55953314780568,4.974384603201588,7.2253816343249975,6.485819694622354,-0.9760578597961711,-2.59345875344513,0.9690494931556808,0.0511470834952219,0.08245263879658893,3.819463306189545,2.674786982422682,1.588497412795693,8.182715049694782,11.732193636352182,8.428750424719576,8.68712425524892,8.933333164594508,2.4820040316862517,0.18030933177343442,5.004480741800148,5.517886660365159,4.811112768186668,9.560361653118362,8.187938706509826,-2.1712304191826046,-6.678365833025845,-6.112595423968797,-10.06228070502528,-11.663454484341475,-8.703231867312905,-10.732591955924146,-11.617039902773277,-2.7082419109148965,3.237990491633613,-0.31459932462840756,-2.287606379750909,-3.14654241795197,-6.794448627511052,-2.220147078246413,10.32877278308977,16.669192888374496,20.055602905514963,27.216366919198656,26.305193279191023,14.767215182964572,6.260996713979277,1.5986443122808223,-2.7514973140877363,1.1442150920762812,9.41932580755455,6.496273117858865,-3.611709841149096,-8.179462470640189,-11.000067310723713,-13.497746420333389,-7.506684433834087,0.26941119521922685,0.3356092587477282,1.622979064700168,6.665333117476138,4.479640986389141,-0.05880849420155143,3.1517692426730006,5.426305759284748,2.9886037830528283,5.542717229349109,8.65494143647366,4.089169659924666,0.8160334183820793,0.38263350084301406,-7.791125162635625,-15.195294475404273,-8.668611795869376,1.439245826648194,6.028439605626719,8.860680788113793,3.4784339789819594,-11.663342437063733,-16.975825862453128,-7.987320925015432,-1.9315268973704436,-0.5911393212013216,1.7662962336403232,-1.4012987297194175,-6.091467792837279,0.0682171290142306,7.736937993138963,3.968997075660649,-2.504557951768581,-6.335168731137094,-13.56518086542232,-16.65758715745981,-8.168341628130896,-0.7117126089084094,-0.8091206463133067,-1.3151390225461395,-6.24912499660575,-18.573259811468755,-23.36774349714873,-15.90292062183195,-8.909874334815852,-4.982581393500853,-3.5071323093928903,-13.261662887983912,-27.54379132521495,-28.06558539439716,-18.428472524485276,-10.150481859159223,-0.49243143065694017,6.469410240620111,0.2532817848752513,-9.742934507652706,-12.39963398409536,-16.33889723690191,-22.294344052346563,-18.377193065962086,-10.719837513750978,-9.715462682365704,-7.113042825855806,-2.288901518997361,-6.529685428301716,-12.455890797459134,-9.646158872188881,-8.128577649606996,-10.926976627598966,-8.806265433514902,-8.014139531609162,-14.310804649722758,-14.595447193191376,-5.780170058346695,0.7906374077054374,6.138654940478094,12.451725349523475,9.218084774378607,-1.4779117373804622,-5.093017819459584,-3.6619615476017833,-3.2661138017538662,3.812840512041274,14.325952024671043,13.97012894255927,7.990722922922915,7.313425979332704,6.621435700445801,6.724503368223604,15.478574988341395,20.555401059042968,10.586062069407925,0.947143762398474,1.5080120532544725,3.603958470235332,7.827682515619001,13.727540283004915,6.181598002970504,-11.588855476046536,-18.73887136082942,-15.836747790012058,-13.376995965206245,-8.56736695705153,-5.377920952612239,-12.236803280834202,-17.142606445466736,-9.549236310100277,-1.6314198704572158,0.396547349146249,3.3633642808914823,2.8899738476641295,-3.5199754802253205,-3.1519221901125314,3.445625031015201,3.0871042237547046,0.7698714504720681,4.892557565853208,6.657978441651871,4.351855442137963,6.21930606221538,5.7959488630445115,-2.025397917223974,-4.447608403346144,0.22258747642959031,-0.8585760344372002,-4.2307135571966,-1.4935248608397396,0.07196695468158434,0.5930526974283867,9.234898263671111,16.643025659473636,12.050034674643214,5.965251063664106,4.060102716117993,0.06762069484148459,0.8136626522740624,12.226885550680663,20.52762787153312,19.337565737671813,16.652177771158904,9.755263247105109,-3.1713006348838455,-8.509812889448218,-4.3594261789647515,-2.7151043572086926,-1.5800570128762188,3.483183666928669,3.693298015718938,-0.20464829276318453,1.585742743918532,2.910741467718061,-2.7257956618751042,-4.576008551613255,0.5759575413312188,4.552325827782056,10.346611767514258,19.397232478714937,19.2818096666816,10.33557168076837,6.248981737887774,4.8053355514391916,-0.25722002933092813,-1.6704777556787183,-0.6627400408647102,-5.068536783834294,-6.715038077988841,-1.7701283024027241,-3.3964780216762502,-10.832128133811283,-11.12057795740774,-7.543512985964762,-5.34384730363746,1.4879013574960611,7.33460760386338,0.9419541352414269,-7.881250021945079,-6.87506587935637,-2.416672535807279,2.974455985039027,13.762699172714965,18.38659563378204,7.3768001803883285,-6.0519633783077085,-13.86163406706698,-20.23885851450724,-17.66094703889339,-3.1752071969231133,6.582486745000106,6.39037265242061,5.703823598741162,1.8270024968581569,-7.214123580433284,-9.433278848808541,-4.764074472352519,-4.196891363333302,-2.515969717152536,6.59321854029068312.149181103702263,11.35075733169041,12.614209425309058,10.906265767797532,3.502763737549837,3.336556332848822,9.221435875621568,7.416745704711177,2.577271127005806,2.3118282437871227,-0.8497144708295543,-4.161426735633953,1.5619615503345798,5.190113556504411,-0.9326845837682693,-3.1893309097186764,0.7973303322454515,0.6649385124627286,1.6595253920099053,7.837334348998908,7.296921805697503,2.452734157734902,6.199232345180876,10.0195147374707,4.996459259825444,1.9449160057290786,1.722472502560421,-5.364600809477178,-11.21525714428048,-7.705362228648758,-5.061809449763812,-4.435688675932626,2.036256806185752,4.477978398569792,-4.226722880892986,-10.037627862131348,-8.373219315679624,-8.40245030906874,-7.348412799519146,-2.936405667780706,-4.230337985955999,-6.433990515337774,1.8143957703427853,9.724507411732928,6.210781236366545,1.3020826330412305,-0.4837900530530902,-3.082542762048183,2.3347346768813635,15.8491391713201,18.29089549364874,8.757436201057248,2.8203761149463493,-1.472612686203549,-8.1898146798929,-7.172227372925688,-1.4592234629974163,-4.323441000258114,-9.29480156735498,-7.6879442698904015,-7.662302393833136,-8.724691365108214,-1.8676744794704434,4.257534824181469,0.5686306538178072,-3.889795593230584,-6.573039151276282,-13.419007970876438,-16.26957233292783,-9.903768660971505,-5.139302718944515,-2.0135825070250957,6.744436479004583,11.540617411112132,6.495576376106288,2.645348486177907,-0.40328308177491823,-9.952469594864025,-14.712665190593448,-8.287349346221538,-4.3371903737124375,-4.4602621443406365,-0.3813159901001655,-0.3555986515933458,-7.425080434155475,-6.903064004959163,0.6887366324139279,2.4916350918728223,2.4792918195286244,4.614058020650409,-0.039375748968239144,-6.432793363687206,-2.159678789307578,4.680756655124789,5.2321772584512365,5.543784754292902,3.3838929275699052,-5.353552378171537,-7.119407058370061,3.0342379434745466,9.302949276311757,6.914793553139405,3.513496980620573,-2.9400664370587153,-10.162246849039361,-5.750084980753589,3.789954590297474,2.461533298782511,-2.7821438203321174,-2.09731680768811,-2.059679212247276,-1.230864473820226,6.698981744868666,10.839958381899955,5.540104375169867,2.699232954807496,1.65021951034958,-6.071438895590084,-9.841371562704872,-1.7794610393602945,6.647929743562167,12.255234658688007,19.404094302853576,19.163523864629006,10.120991992839295,7.0134410609505204,9.31654429974048,6.884600187517281,6.602909025766836,12.362281172838843,13.169624831403558,11.1630001640592,14.87200540364202,14.399079644598238,4.7428838471376755,-2.560862305138703,-8.068497807921485,-16.53818479789486,-15.792469592055944,-3.1224130649769934,4.929602996090813,5.225486427876476,5.551362248082235,1.251864947690075,-7.096233710861814,-6.2340387002878055,1.0642629148318408,2.8673049535465682,4.397208546906618,8.896474932311214,5.473370336987365,-2.2741367758828672,-1.3362835581455257,1.7856514376494568,0.221003275024807,2.4476918617563688,5.249418879238837,-0.9265768424698027,-5.2609257742850275,-0.0555456431357908,2.2266968943966026,-0.2553409735844703,1.4409419992294474,1.579210262292341,-3.6281022730502075,-4.155739135998978,-1.7866773833481202,-5.643349281782654,-7.794315219956705,-2.651984209018783,-1.042822135398648,-3.3633507805147382,-1.8698084325566238,-2.7201460015033994,-7.010507175704855,-3.0451804522474033,4.877359143959751,4.832070889969518,2.7735051606175176,2.6107650810253795,-2.887219931708029,-6.766207464011426,1.1248303509496886,9.702484393379791,9.78487017658096,8.015009850696647,2.6307505205294546,-9.879689969416459,-15.22466007073958,-7.3696329927499225,0.45861380210784786,6.623127627219614,15.94653924113494,18.23367072809838,12.513464965981807,15.010172807567624,26.96713182115144,41.04835259155223,65.51953249851219,101.60185675176209,133.14754549518486,157.58943761178435,181.24608209596562,194.48459784904736,191.97838773158227,184.1697135159056,169.89634468627276,141.5224738112904,109.56127288491334,83.60138903466883,56.76140011254097,29.42797566304501,8.306992844573893,-15.675306278879473,-48.81585920530374,-79.37950963219035,-102.68618753828486,-120.40435701507113,-122.9331968749638,-113.04476544442892,-113.05766534696684,-126.67760700580862,-139.7729802444875,-150.8585487913425,-159.01619813348722,-156.98207588746513,-154.64859892087023,-162.40838960869996,-165.3393127418778,-153.5969470588599,-139.6850258276184,-127.94496280537979,-115.74487733560201,-113.09064898857652,-119.77245133343578,-120.34667629266255,-115.62608310753181,-112.26007684620902,-102.44851192371172,-88.68499967849914,-84.39695678701774,-83.23652145215965,-74.35800865473622,-66.04765883690763,-60.883324004954225,-50.218095302157465,-42.30705509103428,-46.24672419967409,-48.75273990398621,-43.631510732842074,-39.794389441225256,-31.787747322426206,-13.674891588393411,-1.166238307459419,-2.274667450938834,-5.51088362406228,-8.580549211446739,-13.78718784345689,-10.200345717164675,2.6438999268566934,9.871678457107482,13.582935967979076,22.62258639325611,28.89879974232082,31.541497919329025,40.53370898648821,47.956798339824715,44.210470300964765,39.20174544991418,37.44730596205506,34.83002070059635,40.39517360979819,57.08305762175981,66.09988347132322,60.613407817723804,53.59230021149929,46.99449282367389,39.64088363237569,43.25283288988789,55.01170150673524,57.824001774080315,56.054682970527196,59.810151222355785,58.27449785877197,48.882609523386876,46.14082901924495,48.328521804798285,47.26015174034818,51.68373577235954,61.18450458412144,60.72617372326027,53.936919472665046,52.094921457682766,49.4913631498636,46.084103762457765,52.34434607621937,60.62577832161622,58.376162909041824,51.93309621693952,45.00482437497269,34.01759036465292,30.572497302579183,41.9949764033312,51.503214177381125,49.618535602704,44.264173805273444,34.3275470049175,19.787750732193302,17.044408039142507,28.62937283790883,39.19301618097177,48.52141205660454,58.89756162928618,56.202188533634384,41.328843111305424,33.73869258935242,34.667958501140525,35.2015734059576,38.59621665188614,39.85844245365298,27.07813836940815,11.743161301164793,9.518395185470888,12.6645542619315,15.606603648286708,23.579372774756777,27.42617647638272,18.371783642293927,8.550442755823147,5.1691840408975995,4.1827677190440165,12.446665104779749,30.72621720211555,38.49917520603792,28.62110411740956,16.283376077788063,7.246755185185691,1.8536231468782745,