-336.5351342290843,-337.55530744584314,-334.84236794908804,-323.97682397530997,-319.36525889923746,-327.2682086700688,-333.7221613423506,-339.0143032669719,-352.98295778210684,-367.5869400622346,-377.2226010571394,-389.7922170667533,-399.50748088878004,-397.2309635213649,-395.4330747532293,-400.735951623444,-401.1418690003583,-398.986636112771,-404.3417503295732,-409.4297391758551,-411.6999066607153,-420.26699573265466,-426.20095050928217,-418.9890979410925,-411.99975182019875,-412.3130218776485,-409.6929106203098,-406.4780779053545,-408.50519114621744,-404.7928668016794,-394.3737267946443,-392.7296765525197,-397.3139110937384,-396.1534909577781,-394.15605780395185,-390.60561788625625,-374.8983998271766,-359.2472901663516,-360.00860953066666,-365.38597773594137,-365.1505661459902,-365.87977827503363,-361.9947493072609,-347.2481166969286,-336.4443949088601,-333.50133641366045,-323.3579763029666,-309.4499254810463,-303.79628735884575,-297.203295209021,-283.58356889592955,-272.9650584022654,-263.33805504608097,-249.10993811626366,-242.1754716192713,-245.58047789857,-245.86329887107513,-244.86660879773606,-250.91337312191598,-254.54760860998618,-252.21136745223566,-254.6237980924905,-257.1469258261264,-250.26098467978218,-243.11309555522405,-238.12226093523446,-224.52052130418028,-210.73287290881427,-210.3627631785324,-213.88693750739228,-215.08083023532706,-220.95932332507908,-222.1701138908026,-207.2170455941541,-189.18428278962847,-177.45449288753827,-164.94914490055487,-156.21574883835052,-154.41643081536458,-140.49110344622304,-109.36388532416504,-80.41742761608543,-58.72676638972925,-41.43966627281024,-38.840966253731494,-47.80141767411789,-50.96338610958307,-51.642218984045776,-58.58551223007217,-59.71084192465258,-50.76894184697851,-45.20026253046644,-42.48101156654367,-37.34765554571922,-40.75213432978893,-52.308827546645276,-55.42545941946285,-52.58151669741889,-54.999897423583015,-55.841870457889236,-51.891887486287224,-50.65828467542221,-44.42025569748083,-25.33524076134661,-8.882803996820419,-4.51289829868988,-2.022084393295077,-0.8061966926235278,-5.0090760688076585,-4.6293644146693875,1.0032727063020075,0.5232244734515528,2.013446202519459,17.342914312407178,34.65498082423333,44.81848723809038,54.1819507703568,59.211554667803156,55.99701461242901,57.46778071229534,64.7922476850032,63.34010791997173,57.933888939762866,60.35203694439985,62.09813722073774,60.3336154133012,64.96951921702305,68.49355559868171,62.810922302133335,62.657993427538756,72.78234130127083,79.73343999950063,85.38502468280096,94.89270790280791,94.81471640560079,84.1933385548005,80.67042478824894,82.71554671794249,79.61617896383478,79.59301725489561,85.84670528094743,87.49265668168108,88.97689781597511,97.97783927858185,101.99331475164296,96.99168639098468,96.38542897375629,97.8628889285984,92.205533294249,87.44551802865723,86.49406843837386,81.15469558673377,78.40838029204424,85.53368821989686,88.91072987258559,83.72633176818384,81.97214399643568,80.93425099946683,74.21075344811732,72.66917611329228,77.59357951646804,76.70464856188565,74.42231527951003,78.23416332336134,78.85220778810043,76.34476311387036,80.7662823948166,83.06002220420791,73.35691076932416,62.57140373978926,55.2181327901621,45.57727408943548,42.244792676031814,49.81709481100236,53.35871433644053,49.66937674692762,48.78857476522757,45.363655232344954,35.12228562566706,31.759704161252593,37.09510692635145,38.9468215423016,40.99042373547904,48.60175121957589,50.68950882413178,46.93183755365435,49.421711987886766,51.98565000743197,45.23118144208681,38.61113962375915,33.69857592090472,21.805741684286808,13.629744989056675,19.539383973538534,26.471350933790653,28.626776061131483,33.37375136527122,33.83238667545541,26.295899765232257,26.444134254477696,35.404948650519245,38.04541525880453,37.32620682012089,41.016053088997396,41.81464656965768,42.49173780652369,54.193429851849025,66.06883575757138,65.22187813690235,61.65475047481377,60.47788335714944,54.87785226268599,52.14035216949176,58.03557906745105,59.75157069716304,56.5671171228345,60.85694482560102,64.56393948424775,56.59974297679311,47.74692340959822,43.158689870226205,37.47298292677824,39.31810540264209,50.973093072282666,54.232274098172816,46.97535768826761,44.3185454702978,43.557436082687104,37.72612984110822,35.35929492235306,35.488941118552624,28.756402618193174,24.714933566323467,31.317872070922146,35.23412367504671,32.778528349850134,33.91991766319462,33.65042053397215,27.304170331258334,27.475084340484415,33.8807927511335,32.1939435202676,26.378416757116184,24.381569339425276,19.814544261470743,18.54055723177916,32.70924721330216,47.737444698377,47.10019554275976,38.99130514152402,27.883830895541358,11.005160139824415,2.162100883223303,7.996362523879634,11.137031081797604,7.709658116438059,9.89514216371279,11.525207058651343,5.455063935975666,3.3866097517272538,4.8570954348753945,-1.33113523962867,-5.3494014797915606,1.8823749233789555,7.758428696378729,9.994150478608255,17.817928244824863,21.833321976561123,14.37349780369164,9.074901663304594,8.552530000045797,2.460879981732511,-2.281829063756269,0.670581376798028,-0.8486990860822635,-7.591854633373676,-8.622451912511368,-10.670983982377765,-19.88313570938963,-22.533125737245076,-15.502740002932999,-10.288613822454469,-3.8810443137005715,6.663163753915053,8.353651470028764,1.5376591551682344,-0.7183698499978051,-2.647382060076128,-9.857198030677836,-11.961934430397534,-9.969256449952399,-15.838936982230079,-23.463436902731893,-25.030659329767968,-28.14752725132456,-30.719922048527575,-24.8355966134344,-21.583938187284392,-28.599799012068765,-33.83049151016497,-34.70838830642558,-38.07319897233352,-35.664598543176275,-23.290052784922395,-14.759461993707426,-12.1720130898075,-7.222280631759211,-7.591252240958784,-17.19665049007187,-21.694569833247442,-19.943242666367574,-22.530922655449043,-23.57421659871831,-19.29415264298566,-21.35132105005504,-27.19351404869717,-25.03815718589348,-22.077770094652113,-24.186529475529667,-21.825162999557616,-18.600217659842787,-24.97944343491131,-30.502493475310303,-26.929109935028674,-25.021563624713306,-24.89520146857273,-18.74633174407294,-16.428297029179475,-23.024003390903765,-25.46819843604071,-24.36839826581827,-29.3589403215369,-31.304729398397654,-24.391238885215124,-20.803386887521004,-21.497778466661895,-19.82059464126616,-24.19908155289535,-34.69764412989667,-34.11980720137942,-23.612444919640133,-17.527499087504594,-12.916251776192372,-8.127003462703817,-13.68486963666229,-22.651293263778847,-20.95167647842585,-17.48147255727564,-19.199979156929952,-15.151775528104181,-8.409288088265809,-11.15519762287364,-15.426262035019365,-14.97659071260659,-19.358666379948467,-23.056918517860986,-13.839555072260957,-4.0173682504175385,-4.856799283041365,-6.545480492011938,-8.203980357447783,-15.40336705608053,-16.17384064249772,-6.888002214299686,-4.309120227465967,-8.648313985437785,-7.1552499622483925,-5.745594451510722,-10.143134634845685,-11.049148059680844,-11.29262796558968,-18.71243455418472,-20.647224494711637,-10.028715576095045,-1.2557733687443802,1.973991833958618,6.421251333420723,5.667770592833534,-1.1629401244838355,-1.2446125746398808,1.9743214408534737,-3.4422843454402585,-9.694377920074677,-9.522115679071664,-11.068854648189951,-12.631738882508149,-7.950745559287741,-8.080633244428515,-17.399729322041388,-21.087259800602553,-16.89973436291094,-13.728971432299652,-6.591072663975192,4.996253600137907,7.7210092182645,4.790599246691713,8.245606073661602,10.852830082649156,7.423755999962301,7.6235703053756818.486584489702961,1.682460282093951,-2.6767829928131834,0.10531823046274758,-2.0605439459685115,-7.106799284767333,-4.81901773160105,-3.564438287152239,-8.127564841664316,-6.445872390842309,-0.24646317387640337,-0.1376585481693724,1.687481338483891,9.785438861091109,12.5690296952442,12.306851136492583,17.78670852479219,18.146245006095203,8.421542957304341,3.4837580895668783,5.2560478898946705,4.682771523703943,6.7277768243944545,11.18554302309931,5.491169230628602,-3.755852800580759,-1.9053855444615782,2.601518098131205,1.7750208628925976,4.8909885975817,9.780721500054977,7.237187446374419,6.0658186893884825,10.552499671145899,9.000215341199237,4.518145285389903,7.527033095217748,8.703765316791511,2.8311144272369013,1.680446057274047,3.0490456095605856,-2.735143400006705,-6.541832447660565,-3.124549571655015,-2.8805861229769905,-2.9218805764283524,4.549785477444885,7.183107169834123,-0.24645379704286308,-1.8795947993208373,3.6448973089829977,5.489679725717169,8.80448472081851,14.876475717973367,11.435080973695335,4.191232749736128,6.817757175683985,10.514686228946765,7.770079573342445,7.53072692359011,6.274354424685168,-4.699223762356004,-13.814114597430887,-13.571967630845888,-13.26150304729418,-10.531402921613214,0.7578755001517168,7.212652249216626,1.982549527329307,-2.067066141428534,-2.9467526415546064,-6.032970308328433,-2.5706424087921658,7.5326933676677275,8.859412198805385,3.915912661030411,5.303686159530095,7.235548952697651,5.856611510224405,9.894333148655914,13.433184648361348,7.070705768583704,2.6143470261898383,6.331632541905881,6.854382273307925,5.003433583663098,7.0421337470515155,3.4790650659190536,-6.223464618647466,-6.747388849220716,0.26412246549291396,3.550252515429995,6.756997293112879,9.039582340082198,0.6343807597343596,-10.106587415723215,-10.811654878501216,-9.681036069644747,-11.53770650711688,-8.074457458715955,-3.9467345419433286,-6.312506769655678,-5.082147331475607,0.9638376878653263,-0.8331514065192562,-5.918175477203709,-3.787433019163225,-1.2721436616479778,-0.374452223746887,7.218015234664667,13.50081914222916,8.303299394003725,3.026612902483454,3.484365057803395,-0.608271817604477,-5.161085401172951,-0.815378431837128,3.1436035174621537,3.0845621827208474,8.691246563333525,13.414011056102973,7.390222138892012,2.946957207389823,6.489791622639541,6.4455399446914186,4.634145760460994,8.265671462947454,7.473069382302851,1.050878103721769,2.6306587340372145,8.480364886708978,8.429512406722248,9.705135060630434,13.174962656087036,8.003458631870611,0.7693293750834775,2.651872993792182,5.005780329581493,3.107295132165577,5.29606817517942,6.351985020803711,-1.1301699433330228,-4.971297997424289,-0.5414105113203103,-0.11180257091570789,-1.7907464972397105,2.458575634290095,3.7038419662456468,-0.18260803005159998,3.2611594001336695,10.188205691046928,9.614455409177925,9.061546263571923,11.942188516603029,8.395174204533092,3.705903981779421,6.906852727021369,6.957252673782844,-0.35107792071886035,-2.960432796249588,-3.375843852208291,-8.897821429344189,-10.010979157842888,-6.053477361040933,-9.336296108728218,-14.658549668289293,-12.71181857292775,-11.859125494037318,-13.111324418830277,-5.5311737238218885,5.430857288409275,10.226065956815216,15.985733516630246,22.513926510487984,18.46352710746954,10.2941340571573,9.388737350054813,8.787650551481274,5.194021346801294,5.48351589538667,3.074444227192691,-7.975539951688161,-13.696349321827526,-9.066698966545726,-7.25907985546683,-9.214283216539124,-9.213932127421522,-13.430692372247158,-18.88808009007089,-12.451346744304903,-0.1478054351201541,7.395019733105412,19.575190669257587,40.43275420129281,60.21420967417146,83.72197002727233,117.7227959365885,149.36919759888605,173.04390537090947,196.06020026593183,210.299294521306,206.4299651893109,194.99467672186267,179.07302431570497,148.55832812914508,110.35972157770718,76.22612613418548,40.437651715699374,4.169054850957377,-20.367485175067433,-38.632956049731206,-59.64425256119978,-74.75083486627652,-83.2024864291939,-96.03244521518552,-107.35920278831514,-109.02035203073206,-111.96674723143799,-118.92408110922739,-119.48281728362733,-119.8235406865306,-128.63433784924987,-135.62800799256345,-137.96376733351659,-144.47975497472189,-146.88062912798537,-136.3266267114537,-126.59496462732781,-124.18408016385752,-119.40294715157842,-116.01037015811247,-119.5648515486908,-117.94827960689938,-109.12530710430995,-105.27862363693974,-102.33578953220811,-92.69685112993037,-86.28294118283675,-84.97671786213189,-77.27201012223263,-67.54499891097821,-63.99749266909972,-56.948389286679514,-44.874858368174515,-39.44738915017401,-35.6983067991747,-26.48315716140668,-23.261935246774655,-27.316021680372984,-25.30703079109246,-20.050523892701843,-18.316454142099772,-11.152433763238456,0.36926639271616857,2.929990092789334,1.9714757502708469,6.97141439292877,9.140590851541184,8.3846131765926,16.040796198239757,24.31425667387056,23.150183964530367,22.54108962139668,24.31394106024167,19.053850725069218,15.890807511465216,23.86350089335309,30.32478531908119,32.41903042607013,41.05649252670629,49.360884985966194,48.243258374846306,47.32409212251795,48.04641054966195,41.67676988420505,37.497412663147905,44.48846311235089,49.60703771038022,47.70793211581186,48.511979615091605,47.41966485346405,38.5362158883474,33.67734935233791,34.52044999129989,31.43421207377397,33.373559789124215,47.296330583617824,56.39468095516182,53.76439471487815,49.69943992952875,43.5353344947474,37.15855896459453,46.41667097529932,68.14791686981398,83.52626909884546,93.81294703296155,105.09996569823555,107.6834267327656,101.55113615662196,97.01112618670166,87.95162756737292,69.62685625772852,56.39988586388611,51.53523464617408,43.98777349916661,37.92405629246157,38.38150740124219,33.8754864983239,24.150209668940928,20.739582000323708,18.33689672302866,10.836359959388291,8.449270649646209,10.572663743704165,6.193463323458005,2.0459301028424566,5.292593142678522,5.239249334516673,1.5467039180479554,4.629019025756202,6.891123901586922,1.6583511644336837,0.6699184860902666,3.091289364249686,-3.0019684149045407,-9.867082104737838,-8.807202015544881,-8.910065462323848,-9.308184783682812,-0.04323468822662635,8.972203933197557,7.178138116347174,4.302520821116289,2.253163837122306,-6.7096782313323775,-12.59771861464645,-7.346770120746669,-4.4390401312178005,-8.063138041259794,-8.373341060816028,-9.58783110177467,-15.833760389743537,-15.933661398491042,-11.341298761163504,-14.14845719388929,-18.171986801101692,-16.175894190651032,-17.4394348106924,-21.82570053898388,-19.252997783927945,-15.332101946741306,-15.804759285981973,-11.8294819680021,-6.525734886468086,-11.047271258530452,-15.910395136432602,-11.943200878697162,-9.734263469745457,-11.508974419054661,-9.853085947507092,-12.584235191463609,-23.54529270461338,-27.877842071593832,-24.458606079609552,-25.079520326224824,-23.478323932390104,-14.390288156753535,-11.301552576031536,-15.757390902773896,-16.939467897283404,-19.712924696159977,-26.694841481163156,-24.023607152663775,-13.75606729842248,-10.866194801256691,-9.318388437602177,-0.7605212285777001,4.221149000149267,3.7758830147068436,6.222769232407453,4.058324008522666,-6.831106126224215,-10.919050453851002,-6.577526506620991,-8.590829845816616,-14.301715679980347,-16.14456841450079,-21.03667893960343,-26.11784313160955,-20.953553019207924,-15.100423420565393,-17.645412959307027,-17.71729995292598,-13.43558216388281,-14.13384044743477,-13.443390516450407,-5.687305154161233,-2.0140893801954,-2.564022203506859,1.93179549140794782.6936593389169072,-5.715207809478715,-8.97778498436464,-5.895660161662471,-7.958015915241079,-10.045101726742786,-7.608600479993937,-10.7104730355974,-15.978058112730851,-11.783855150302191,-7.332051940237555,-11.29858216101773,-12.280436781072861,-8.119802644659348,-8.248103596439377,-7.0264198657862735,-0.2726004807071938,0.024056484712009052,-5.134229111290843,-4.17678504546623,-4.632397010621048,-13.20889725979225,-16.420778664199563,-10.99977867810264,-7.152182523839645,-1.9620744808353476,5.004418144003026,0.701878969747936,-10.103123031028312,-10.753853049036936,-6.818672761710468,-8.323028173671219,-8.463328730190545,-7.3418381920205285,-11.746323597744391,-11.897598053268073,-2.5245121965259516,1.6777135770979617,-1.4274545491646489,-0.47273758028549095,-0.06877851808321601,-4.780773292725214,-4.493363949773176,-1.834556067124634,-6.946729515315068,-9.862895288694098,-3.281491704356841,-0.01178087748367708,-2.693738056649603,-2.773217347303982,-4.466287562220947,-7.999998511445867,-0.9671988552397699,11.483547869546307,13.192683399000547,9.540054169615367,10.126688706605083,8.782943047073033,7.052411955866678,11.593551455379407,11.340184260369309,1.2862706597902323,-3.8344129263280435,-2.544365842911978,-4.618095990100581,-3.6978028970925143,4.158991447455854,7.662171481212099,7.755102743536507,12.971535272389271,14.74637140556226,8.506786747829167,6.628854179918431,8.407444914164772,4.2772805183210885,2.3770572924778133,7.287045145363291,7.167045904435991,2.9134974764109374,2.657492188563954,-2.147923360911014,-13.605567882037416,-17.191632259809836,-14.417055308620341,-16.735547316878474,-16.969230691452005,-10.000854300135206,-6.226949001626192,-3.537547154269371,6.180338449452893,12.148175031411443,9.107436224485857,10.713019331675136,16.807574360262265,16.14859080049372,15.07003468661884,18.565340683065727,15.95866402702518,10.342004205514133,13.213165402208617,15.74621014638292,11.02917139369517,9.36731763800148,8.912266616545857,0.8487442995679362,-4.930554717031154,-2.49708475466582,-3.2874807250216045,-6.653470135239175,-4.110474373709924,-3.734333403274702,-8.506923667320967,-5.586676473557022,2.5885199068959115,4.596734609233691,6.745869708021741,12.442426234268694,11.844430492667804,9.679708744365438,16.195305555688055,21.87418499811481,20.317687610974183,20.64809034038063,20.494279397573106,12.663548067431426,7.224282891794643,8.613093789499931,5.757110170363278,1.4461748762533806,4.783415981977725,6.266866074806088,0.9417016779357792,-0.3599286563149713,-0.1099429545255367,-6.532946437236111,-8.848353376060615,-1.5550933641127997,2.618796237201845,3.585805444815591,9.133350301422462,10.310422745477718,4.19380260374972,3.7561650742080914,6.136342200932966,0.1459027961071402,-5.97217047050238,-5.699030537974414,-6.970858293491628,-6.205459905595269,3.1095206250424323,7.913045994587743,1.7910393894132524,-2.4069569625039304,-3.3613108830349647,-7.900428691159886,-8.07781733679029,-1.5943831621805562,-1.0674964190589036,-4.753978337411248,-2.7689408711623873,-2.2100475902904035,-5.787990927296139,-1.3386391792198347,7.474844403119777,8.194469904173971,6.761486228674144,7.2758770434395,1.7986696602273575,-2.5870784508690257,4.890230574241304,12.557133292019582,12.333938576029624,13.391036295337063,12.712300389018239,2.7385038742006387,-4.738962226087518,-3.6370768762950574,-5.267026535453441,-8.946153780803227,-7.229620142510663,-8.216234506373477,-13.51475721955482,-9.476095200716092,0.6307588137980082,3.384755759502334,4.096374232751013,7.287079024616263,5.3755980302022035,4.133087650993495,11.181593402664443,13.615498117317967,6.06329616724231,1.9738977021672883,2.125810766330053,-0.3469401896696114,2.273342430032667,10.177299118595565,9.443364224942925,3.465125338679899,3.0829622180758154,-0.038310576216695535,-9.734798748615257,-13.742084727135026,-13.086196525943901,-16.042686701207998,-14.297938717534535,-5.144960728403409,-2.025646301764634,-3.8960965476754597,-1.31302596736904,-1.272569036333977,-5.067679221996477,-0.08574018767797487,9.160657080942007,10.25088479627996,9.41119435687946,10.086678315531195,3.7404614209348543,-2.869336978448385,0.14637328747900868,1.484388106029924,-4.117168691368552,-5.442758399633244,-5.9331362413231865,-14.046948195389412,-18.7255685302853,-14.816937432866673,-13.096191777179607,-11.211127813214151,-2.5092216076681426,2.3447311549699394,-0.015497512955156001,2.7118997024606366,8.115515989324068,6.6366586896801385,5.9414538794239,8.857827496245939,5.03178505007405,-0.3394191146711758,2.023246297982073,1.923953725147879,-4.085340231369673,-4.731133972690425,-4.203587688975453,-10.326457201971804,-11.851801827822037,-5.731517218543084,-4.423972677721144,-4.906897522997018,0.30325512634161056,0.7274101333790904,-5.700656223974439,-5.462418036756775,-1.716422776355013,-4.869218813818441,-7.0528553012355,-4.837535288292225,-7.899257665385952,-10.967926322599723,-4.603307427216905,1.154132298358685,0.9037319873117869,4.008176707775345,6.929705906594566,1.6236126465796088,-2.3030945474547404,-0.14372710691359258,-0.4453566421761883,0.4196378710540808,7.682781640176488,9.320233520416753,1.875941322743197,-2.323180164458236,-3.5090376129084606,-6.380115709477041,-2.699428924863072,5.069554739025516,2.7577347662349103,-4.339730185972501,-4.486384840517603,-4.027462843529831,-5.210135342414295,-0.13311733469399956,3.5801527834768523,-2.082502761175598,-4.216646386929613,1.791240969547209,4.20601941460546,5.2315607604126555,10.709728914363838,10.39126878920524,3.9952816083719136,5.260001107981745,10.280089900679608,8.689070516319262,6.866812780318757,5.645070734678087,-2.897257455331647,-8.411911622964684,-0.7393404665865679,6.206340495245002,4.6199964435262935,3.200295015068158,-1.2044928723061141,-12.8861311929917,-19.16500665805971,-17.576576603196244,-18.865541757202287,-16.493967805616407,-2.036919183239391,10.84796450592367,14.327168234413078,16.420580059577865,13.794214600288946,2.888669187561373,-1.8479779728042627,2.80807355163046,3.50862746602287,2.2981305564652903,5.1617894096010914,2.767966277233863,-3.883179578529914,-3.239049217584976,-1.9591694342085846,-8.823506408129461,-14.300078104365259,-15.396214998228956,-19.93296127653697,-21.20336278325581,-12.797715302279027,-6.670989856943255,-5.232206843760349,1.5750847978591178,6.545605238782778,0.9296216538612598,-3.6980905337851326,-3.650867982366896,-8.727306411730543,-13.12710641689561,-9.690472222277998,-9.310387193995185,-13.114086242187604,-9.820097223224082,-5.922441990102633,-10.177878805942152,-11.679548487591571,-7.210476744868377,-6.848551532237764,-6.07926762223385,1.1820395176137626,4.349129845287159,2.5607506474936823,6.515175758907022,8.85243267882202,1.4021584914729321,-2.8110633599325654,-0.26387368702697134,-2.432740454764862,-4.943917021873438,-1.8022905169289978,-3.225245654570622,-6.7498380188174645,0.5455348072580577,8.579768782476465,4.650620442421829,-0.02515115386825395,1.1001019713392437,1.098735485281001,5.353921844945265,17.88084541870693,24.139274459452132,20.60006531057091,19.689568321962284,18.27686189789029,9.56914521558991,4.946600459895086,7.556676012581433,6.140314893338809,2.9941643302982985,3.0321813650484977,-2.2037510566026715,-9.696086433285245,-6.08360615068685,1.495076020153229,0.8731751298070537,0.0737522850400229,3.3396542716206215,2.8166174301446265,4.1401140102927405,12.953608504793724,15.853652391214851,10.149945027574073,9.358558876042498,10.788037211985587,6.4014932772881075,4.647342135817553,5.899646855488591,-1.203658256265654,-8.993680311050111,-6.042901910453036-2.3659876562814235,-2.0117741985043844,3.3350479381335316,5.573898148772885,-2.225259684674153,-5.426242454971975,-0.6009065524244441,-0.418169407550981,-0.8955595492898861,5.452375752021144,8.326861244776676,5.807139041017196,7.863738997369277,8.071187866096409,0.22091864907799463,-1.9158135630694333,4.269017160822921,5.755325080773105,4.768950712278634,6.1934835156723045,1.8622719053729775,-4.170739657710847,0.0013687678579561435,5.003414027191022,-0.3476673700502455,-6.482482927734856,-8.663615939735369,-12.373128708810444,-10.133200360438815,1.3870593822622461,6.266498599111843,1.560544878965955,-0.42475987984424585,-3.5348697436001455,-12.638896241548123,-14.389972568865602,-6.154394756417296,0.8125495118031542,9.569659391948207,22.040308550950353,23.94745401126086,15.710177324721567,11.728083957596613,8.440508451605968,-0.280687765282825,-4.495617799467048,-3.9327594744105863,-8.302909594139297,-11.150235292450079,-6.852954513150678,-6.84925179596926,-11.079491600366328,-7.577803413826051,-2.2648752672221732,-3.155509272164353,-0.6383132256945632,5.255556834593003,3.154435192923386,-0.30430606350114153,2.5508281971664832,1.1978142886855931,-3.7403274293990503,0.3991091755366276,7.040686082644616,7.086661103939017,9.51181941275986,13.861165275836761,9.352399514415426,3.3071780360568286,3.3978328823051074,-0.09763155855088357,-6.511685115217613,-5.388969638595443,-4.049048017146309,-9.670945908134758,-11.48650419051744,-8.46217328131801,-10.536352507506617,-11.15952036867844,-3.5764272541779882,1.618957081870139,3.5101916651779197,10.816529528453684,14.319865553395513,5.825501716087766,-1.800618621633867,-3.131482521540412,-4.895915248473584,-1.274147034671945,9.517623090826204,11.277479764528785,2.24564267085103,-3.653772142819702,-8.172495067683537,-15.227415800985787,-15.04815630097535,-10.587271980888165,-14.274821756825405,-18.655697616554193,-15.034103998813062,-12.712731349122643,-11.910220281710384,-3.5869669780652593,3.3852458474878975,1.2593163283872415,1.5608181836575863,5.462526506870525,2.8480900216536362,0.42353000354978754,4.249455071796982,3.724410261415445,-0.38964823794420966,2.0443045635472377,3.5204133491918492,-1.903252061991382,-2.843473642079402,0.2455194877964817,-3.6668396050652987,-8.205721536977071,-6.900451262436887,-8.704153227334455,-11.23083663985802,-4.326906492328371,2.661804820342938,0.8935487227010863,-0.2509566364626992,0.10465971802629914,-4.723622993165926,-4.727199702607941,5.327931292284371,10.094125928745111,6.305704583941797,5.054130097828388,3.1780443205183992,-1.8873377899645765,0.869144181160258,7.28402871740578,4.010197007987595,-0.8493486724604444,0.7278697283004629,-1.570820159268707,-6.619947074166549,-2.914331202826263,3.1725024709537846,4.561724818997206,8.412749292681747,9.860653803818925,-0.8083394084596485,-9.712598698633947,-5.6790221314468265,-0.38884282819106253,3.2498472565081196,10.570586182745254,10.509136317718967,-0.11523081757902087,-4.055029120974291,-0.24870146479810185,-1.4163880494045653,-2.252912687578814,1.5560015038548414,-1.7633923746052533,-8.653098179002011,-4.834996760817236,2.668994836071799,5.21111262972725,10.373065369125191,15.028697956639032,9.194934568015995,2.2700315717786737,2.202648925593097,-0.4888174655878543,-4.824765410543737,-1.257070175919224,2.6963980357602626,1.3979925317851074,5.050021707443054,11.281695518432644,9.094563112664584,6.301756811065811,8.854670288577326,5.683325985932926,-0.9666311740426474,1.234876224663658,5.329245724184915,3.8458632543155824,4.8712959035640075,5.0263733505703385,-5.32291668786602,-15.0124700182094,-14.766232615856698,-13.830426554327397,-11.480423025995691,0.10829586200186281,10.055108260607993,9.72474530470422,9.251545758360677,9.54138535961795,3.753371050193162,1.5677121188927599,7.4716034169132275,8.261971873917034,5.6424583362574445,11.218227919579638,16.509539871284538,13.947017915025047,13.0762429463242,13.2718461974047,8.502443876862277,10.985585627765415,27.296206164808005,45.53112318358386,67.47321267081514,103.56326109546714,142.58865054477639,172.71943517637405,198.00132521891535,211.53068741246906,204.210814812385,189.66371453258103,176.42285187483287,155.11989703549887,129.8876367671383,111.15478361042703,90.6837879341637,63.92889544315307,40.11511971087867,14.802131547249411,-19.069192176063012,-46.54909703944595,-59.479641003048975,-71.97783280383447,-88.11116721036613,-102.55355228376214,-122.21688318297156,-145.6524059314632,-156.69505743736542,-158.42025065086628,-165.54501997748156,-172.5385998731445,-173.3954524064732,-177.75471944833592,-183.68955478520348,-181.69253276325998,-178.9769850211913,-179.19775584538215,-172.28039099374328,-162.6697706674375,-160.7977662396737,-157.69272205372656,-147.9887409449069,-142.1895944515964,-138.83023008868514,-130.25740319436562,-124.34685372926862,-123.15128413730001,-115.20112583625132,-104.23783620670525,-100.14685593662362,-93.70947270148912,-80.55375526165,-73.1713487507668,-69.32081787780552,-57.767838350367455,-45.445800427881125,-36.314202735056085,-20.74701463351378,-5.638612394852632,-4.03929719110023,-5.830646794588306,-2.484918660527759,-1.984826856122806,-0.3950664511347454,10.053104879153908,17.178868277341977,14.956189226252775,15.811795172450317,19.77216826340797,19.395215080620094,23.78744493076126,35.96880580802628,42.01121038480382,42.75137658531948,48.154046034043624,50.702135471972696,47.763101455575594,52.47539386063235,61.838381390017815,63.61590581185378,63.83682901226562,66.1311571110685,61.3714472569973,55.85029983185205,60.68850643235972,64.85763137869458,60.64048666579817,58.28788991545292,57.22681957338082,52.34964979906773,54.91839840914957,66.383371904997,71.53227144661236,71.40857848516943,74.93611087515862,74.97612952440657,69.65208312511933,69.41701143147301,70.02749778906016,63.70935893917098,61.42468611644284,66.7392477481545,66.7857646532029,63.5488280775684,65.6926783588782,64.71595627798102,58.479029162039495,58.21027875734499,57.54963455215494,45.84767683950125,35.3728412685485,33.650091516117826,31.6242660803536,33.084085082169864,44.24158585056235,51.80020650888227,50.04492733771303,49.798879216078944,48.933099364972136,41.69894939351517,40.160106023763994,47.70823612535231,50.22653136803644,48.15936937863504,49.41851248797092,46.08214714412102,37.84193136055906,38.200735671895416,42.41397304928352,39.225450309275814,36.82888525046055,37.586543986582654,30.25161540856766,20.817188130487384,20.892528505681405,21.764024737913964,18.063666199277833,18.40410927760347,18.439006747387527,10.674856617162298,7.3720562627633806,13.99638683850971,17.22850925492809,16.92503332036815,20.454089057125916,18.28620850252007,8.052713448606603,3.606806429351808,3.4844025625831248,-0.6502186691192204,-0.5610968332225025,4.3120120408715845,0.37877330538639153,-7.626051245294215,-6.95070946373505,-4.501071084798715,-5.252201596855957,-2.4273614940151766,-3.7432977976645336,-18.26069529222599,-31.6430747200695,-33.972289219976815,-33.43490041840764,-27.84591245030226,-12.61764965455751,-2.085362346427075,-2.5710880942010435,-2.9116595560594045,-4.4218423410884435,-12.333956570579865,-14.935959056395982,-9.452921588208216,-8.843311733890223,-10.39737679638695,-6.048396397090395,-4.966316409859663,-8.493219918412656,-5.310867796824841,-2.0625946593818414,-8.846152971412492,-14.736007436326123,-15.489861770187254,-21.126729750596414,-25.755242495226533,-21.45080853175382,-20.12842678101665,-24.1484250282128,-21.609594689588267,-18.678523490734907,-24.420850955097265,-27.956142222638505,-26.37199613387125-29.76984904405098,-31.783873536351734,-23.56070601429078,-16.651065123064363,-16.696427723827924,-14.47004105879821,-14.43969368905017,-23.298830590165288,-27.78902664643856,-23.774204667287815,-25.250518319904973,-30.910224221770026,-31.906529097196817,-34.75028840751941,-39.4700487809171,-36.180521884762456,-32.30219488591436,-36.61766320979809,-37.11746329548417,-28.639790367261387,-22.130398496301023,-17.311307667591446,-10.974453187413449,-13.56337480710549,-24.074666402228374,-27.834938525403945,-27.49999083951655,-30.60454693200119,-27.941151201621828,-19.15638709822334,-16.949035836045077,-17.654331137084093,-14.380003590916116,-16.592356100691067,-23.90990472920656,-23.726260217858247,-21.335660500038266,-25.30876341836657,-25.941950966155378,-22.430240410905604,-26.214217027240682,-29.929527368919743,-23.295828091181153,-16.774742125475182,-14.72892511897368,-9.127882468910496,-6.785483631236447,-14.414252524109129,-18.451800860422303,-14.461924336537297,-13.693972152204882,-12.31529775719801,-2.226424230157239,6.834693766708019,10.256820530195052,14.589334336265402,12.356293404849758,-2.8370777377128356,-15.654114085776222,-18.934309493342642,-23.008547150072534,-25.69538169389925,-20.557142456263538,-16.729074308345567,-16.114203462320447,-9.58727686100196,-4.864598636121844,-11.619300442509855,-17.367731769622473,-14.628584850908531,-11.908863947181779,-6.798182186454301,4.344450606463689,8.929584899905349,5.452501378045788,7.165053013591807,10.852533049352594,8.83576594961962,9.594386987004961,12.617127765100603,6.2483984360788165,-2.2391585554230913,-1.9927438346355866,-1.5611636907010689,-3.323619694056773,1.301869595047584,4.333088471641123,-2.611666521004268,-6.646306601926128,-2.470949020078463,-0.27045446698004516,2.963879147723304,12.545727901619921,16.628348735251794,12.5016242568128,12.224389902463512,12.633531986402367,6.107023744778329,2.089510543624339,2.9740998804018424,-1.5399198050139287,-6.550112865475625,-3.874057004788176,-2.7137082369921592,-5.102760699721924,-1.3167785710060746,2.143482067635823,-3.169433901974453,-6.590913248912581,-5.293902318735828,-9.382860690532711,-13.326574627779312,-9.37314109788419,-6.577589018784936,-5.046451207055341,4.167941087188664,11.036096471597501,6.520153561395624,3.1293575440699217,5.574143788677891,6.088975114577487,9.435279656935736,17.73793824972104,17.395134562485786,9.012041630055618,6.518497829911755,6.190353328953394,1.7213168749033674,2.610795375392894,8.018068403273391,6.739943699779915,5.508759089234698,11.851547813199009,14.197224651799164,9.68499869802007,8.308912352063214,5.469745662571283,-2.6869010313216473,-1.668069507441135,10.04641336773539,16.841774865936276,19.33557873665573,23.2033860742687,19.251772676356225,10.30811557005661,11.71903074785443,17.768065769246842,17.46150755942997,18.237404760404203,20.272038322190493,13.723326395350448,7.0589959838891065,9.682096463928804,10.353462839588378,6.126622125023531,7.72349810724861,10.18283067811218,6.388046624701003,5.4115713852815865,6.782457192787463,1.1787671477294968,-2.475726542165464,3.623433020730985,7.610223957866012,6.933996003794152,10.35425405677461,11.90852327034436,7.562192330568616,8.46784322433335,13.661856237011323,13.274989339355622,13.66205767478025,19.07923779352782,18.04783535814899,11.558731286206534,12.016449656184616,14.742561441028691,12.354355227779212,12.093552785635785,12.656843394010734,6.096933700807211,2.797281100792112,10.625059421748432,16.35953778791756,15.211441407104667,14.676237381029475,9.524891030420719,-2.7106722639489753,-7.340140557557264,-1.7206483469511922,2.4308639502724283,7.392041199659045,15.521299678718508,13.908973135294776,3.949858796833377,0.2776383537457675,-0.6990681788962977,-4.382859014627801,-0.9041889256439295,6.748577750058499,5.186748767506102,0.3066068302651195,-0.5732419129827546,-5.271801183415745,-9.727985034325929,-2.8556284134834735,4.6517001728482015,1.7764945336841846,-2.3504342883487412,-4.833891243940398,-10.995441328357561,-11.233128630053923,-0.18814038590956095,6.801891532705393,4.7351764022242575,3.746938438321761,1.3609698387141165,-4.93684534491584,-3.5719307301087224,3.600378643731819,3.083284501639335,-0.4518928086620484,0.2947741697121906,-2.0984682951940052,-5.639189968593242,-1.8775086773501886,0.23773421342539572,-5.1840778532004315,-7.439822545246531,-6.84179376379598,-11.269223674532064,-11.806757355602814,-3.1270576523389546,1.666902358892335,-0.13589895304247745,-0.7656697657269517,-6.1445041429254,-16.621449096673732,-16.057372087088947,-5.643167828649696,-0.8509496749241012,0.10770281863224994,1.595403887814169,-2.3839542223190286,-4.540829027060186,5.811355403562189,16.08323433598645,14.895213734089156,10.795502647088876,6.649701985560384,-0.3687677685527051,-0.961999242404954,5.87362306006527,5.50159721420869,-0.48721137277676574,0.4056970901317025,2.056539404169422,-1.8165528000204236,-2.289275312315278,-0.8963529216819266,-5.068770219015584,-4.941253529792184,4.1780656270796035,8.802340146404934,7.972523254107466,11.619885154481821,13.268261586593969,7.0690084188938656,3.834831990375205,4.730204210877503,1.48740472209818,0.8830914302178778,7.218776302051158,8.293103010524177,2.805856083419127,0.29381243319335726,-3.142156727385553,-9.844923869201484,-9.039359486877759,-3.2676978505132315,-4.864803415790928,-8.70671418187326,-8.694906029958775,-12.053565151717095,-14.488089268460483,-6.828193996776545,-0.713696927882205,-4.1252037175664045,-5.256799176133468,-3.7552606408483937,-7.887928921989178,-8.13665276000193,-0.30209392790177736,1.038306451504503,-3.5566253849032012,-2.026930806231201,-0.7025639766243642,-4.130159229351837,-1.497227653592716,2.9771256063775215,-2.8888974091391364,-9.408888060102583,-7.549932617260728,-6.282354089134444,-5.168982603643977,2.1002305116031708,4.622351141340245,-2.6495591895572224,-5.911195728884694,-3.403144959699281,-4.377955336678011,-3.606186983794222,2.2377823849334497,1.8805197129392852,-3.5042901807196656,-2.9370659661213,-2.4487187167461806,-7.350634878006077,-7.113603019878891,-3.184971948637039,-6.252457049832382,-8.993158313970008,-5.0984628818486355,-3.7538842944174515,-2.6233233958088684,5.957557091888164,10.177331250657652,3.978374415880659,1.420111156957153,4.11542938599548,2.7349612862174317,2.5486073437333667,4.692958360438653,-3.073522928206707,-15.22342594502207,-16.740123272085956,-14.034163029780053,-13.987959389452213,-8.019255211201596,0.21764008458949746,-0.6031003599565814,-2.991212968793326,-1.4532276837789546,-6.344996087815454,-13.911793231374356,-11.465570265437638,-6.34176967797616,-5.355166633832991,-0.10582700235101683,4.732361284400271,-1.7320916604315855,-9.00623320732539,-8.405747634231679,-8.791337185720135,-8.60215549772699,-1.1288291045313383,2.0802975501191785,-4.433241801012136,-7.704504377473069,-6.777870531579459,-8.66448237925206,-5.081478678031443,5.930367079487313,9.822873380563237,7.032515357658592,7.922436002623712,5.752525579239781,-2.6693166499784122,-5.321193492362768,-4.415692294101651,-9.405130831710629,-11.227216241603546,-5.811169991962085,-6.2050958084651215,-10.464027235937493,-6.50576681735202,-0.36979272047933454,2.7505586666003596,10.412950716280085,16.209829777943696,10.166820761007958,4.788997172514852,8.184050176123094,8.903436473620655,6.327944824749581,8.063377242400914,7.129789599689577,1.3904580699758942,2.2776783675473125,6.195206917272267,2.325377574682057,-1.6203469425487205,-1.0305245160327428,-5.644519113472575,-11.295515861760121,-7.53165195171801,-2.7055761350110226,-2.169968683029026,2.3705052251371397,5.9240418319363860.21077749224193276,-3.2371564811036806,1.3212560783602454,2.4326923775574976,1.5498623231998716,7.3075919659970054,11.121859221248236,8.802409249451626,10.697844051082942,12.778649418325381,5.162896433599515,-2.332109409633573,-2.51867793380727,-2.773798868104446,0.034789343400077555,10.423589703312867,14.688305354626639,8.100011965570316,4.210284549039794,3.3979307760014907,-1.0836433319035266,-1.337739784058877,3.095914695018947,-0.07044306983992588,-6.1031805282981395,-4.34614146284567,-2.7848365668852355,-5.087209922643332,-1.3665491383252786,4.059118699165782,2.013952378944356,1.7240854351948636,6.3310872229491615,3.9190575012971327,-1.1851347979458158,1.6981181668306804,3.7023579688376165,1.0762939969365855,3.7585368364694167,5.86948096103126,-0.9558769752383158,-4.143804604343123,0.5464906578581461,0.24862874411719837,-2.46386575146481,1.638331096555742,4.0124165968929235,0.5926447283201688,1.2436890841225288,2.316043240665974,-4.836063306315132,-10.275008455212042,-8.513127276984903,-9.559567726431958,-10.936398834767353,-4.5781442988426075,0.4456693986205428,-0.7498371950046028,0.49801828051510266,1.6773673353750596,-3.3057246380781455,-6.168886252333333,-5.106657202383872,-9.40327734711621,-13.489584593360357,-8.440421492475874,-3.7856056668471636,-3.9448607393582487,-0.2513488964396473,2.6719761023151185,-1.5959219650390264,-1.4402495246748457,5.455936130890926,5.8281134293524595,2.55124304031224,3.9418173205216833,0.8330227708328135,-7.867607950021553,-8.950014876410533,-6.222350828298527,-9.385274296494643,-9.466194685994763,-3.271417909100224,-2.5241905501375648,-4.333887933607008,0.033464727396153915,1.8682482740577604,-0.8482839348852411,3.7967010156056404,10.268304503130134,6.84571931252771,1.8150096495962975,0.057312657861518845,-6.009836154449775,-9.660753436868474,-2.470578602014734,3.4350592037902845,2.515476470734404,4.182952206294364,4.074760217852613,-4.123155625000945,-8.269952853948267,-5.1019166123059865,-5.534371000820586,-4.768761595953014,3.724761873892611,7.309714823308002,2.946269189808481,2.269790511485146,1.3316124968656882,-5.657590482759227,-6.343036979230331,1.3973738904458592,4.675064788439152,6.316595620267139,12.34633209035409,10.785485312532273,-0.11405961312877722,-4.991013647578868,-3.893661929053854,-3.8645870004924405,1.958055437834822,10.931631394679174,8.359010360047009,-0.3838755724891594,-2.0865932083333742,-2.59651259952048,-4.334572243736635,2.2091144862697223,9.731965040500693,6.426428018445275,1.6149739917770463,0.41034809208306977,-5.377760469383546,-7.822242547473459,3.633492017495468,15.291597072141561,16.977014202279715,17.021338601254396,13.925695061376217,3.2650120365181605,-1.4003369193697153,3.870114513301877,4.490384946770152,1.681897072834708,4.824287245235526,5.795034195222488,1.8291484770769297,3.289401881248252,4.900844184304927,-1.7451856696014105,-5.189609952099273,-1.610476338003237,-1.8843941093730758,-0.893870338236324,9.079259849956438,16.16309359853989,16.118649095781848,18.337551074329486,17.150787274113064,5.630617119183038,-2.5714901185703596,-1.9911895847985197,-3.618901641572748,-4.109564225630965,2.762434216095214,5.001671468893499,0.438925605005102,1.8347478945575921,4.41325103565788,-1.0234755257886161,-4.043522762870745,-1.9726621299796827,-5.694732060297099,-8.799181060029438,-2.727876350617693,1.448921072646332,1.4591730070515734,7.921936384312335,14.00642489298355,9.66131690015946,4.607218845627177,3.4194693936538134,-1.3626591791854656,-3.454085903403224,3.573304664399262,6.826522655147358,1.8467442264761282,-0.1817518215867206,-1.2400987133799393,-6.072623896796791,-3.504453306434306,6.098447169848989,7.529424118155543,3.419624090481328,1.9553978070440725,-3.7085206629288345,-10.135969272463852,-4.260165452585432,4.906089732962981,4.480546450053687,3.007566853415305,3.555781303697219,-2.578303740144085,-7.136562239414151,0.19411818601032405,8.10542194720709,12.126706402130724,23.784448043677735,39.7027023887388,53.552345623027065,77.78390950656758,113.26640974624645,142.99760843644827,166.23338213404003,187.49681049782896,194.355142764746,183.81007956635287,167.4704057771811,143.0536782863165,108.12415325046044,77.21328411784553,52.45269365179791,21.311861251267935,-11.603953950508208,-36.82730550895849,-61.20582567900722,-84.57220180659183,-96.55204597967155,-103.71471631732382,-114.96440426734338,-121.25938713123976,-122.01649356361645,-128.52152851077187,-134.72640642104446,-132.9885165735157,-134.05765467805227,-138.5810771798093,-135.17521665813018,-130.05672725328145,-131.19405745792767,-129.4113673606805,-124.66783764993154,-125.92564789883262,-124.0667262761576,-112.06023734941672,-103.54132717166219,-101.16270629138035,-93.879564505324,-86.99787605951414,-86.97640091339245,-83.04056320749261,-74.553434242993,-72.06524975086285,-68.81839531188386,-58.34722699377291,-53.17201841905238,-54.00565625971801,-47.239333208640915,-37.437189495499034,-33.02249301691423,-24.908070368131064,-13.624749801112674,-11.457898971131208,-11.748497508257863,-5.130402724060446,-0.562021416474037,1.2128541365519938,9.353854190999071,15.240405511011549,9.829740164933884,4.800029006990537,5.4936107301037405,5.013468655236817,9.446935109115635,22.74137752366594,30.61097946097155,29.891245649365434,30.595788747642914,28.384914836695664,21.205406130748102,24.47091815379534,38.91073048590422,48.76040084608867,53.788246911651996,57.38766805603706,50.73614650784073,39.07270903695764,37.81976934509899,39.962375257397845,35.09418640810519,33.12904557008211,36.04643457746135,33.83439194468269,32.76091391745429,39.5093136079081,43.13443188894885,42.793547392552156,49.50488856283376,57.027534137021675,56.12344461417049,55.58163629882105,58.08007627486232,55.50416150942276,54.22019706100155,60.29821057727894,61.79461907881608,56.599990418500354,55.224671062575894,52.919538425550705,44.79610393361849,41.54987966345649,41.55500605401528,33.803766733849955,26.95399963191135,29.184558255880386,29.96463398865549,28.49874876287783,33.48575442093306,36.74575474589993,32.158461329522694,32.053465716415644,37.292775349033214,36.55736212018329,35.570979213940156,40.65154620302146,40.5352789357161,34.3581922114362,33.032785066261866,31.243674605609854,23.20509446694765,19.589469745209744,20.419334345614224,14.952309580395479,9.442876410238577,10.90972992394188,9.904306374137898,6.815772832684194,11.276170462655298,15.343556462118812,11.688079927246722,10.816199527500197,13.228602795957418,9.288983764458223,5.929283914149021,9.81851550378791,11.463952164134835,11.18278712651691,16.88252813485973,18.351235231302972,8.344118144080834,0.6162882337234001,-0.33410763892839757,-2.973291238567115,-3.073441452185515,1.8415094515189117,-0.38054144941103174,-8.561303043292362,-10.5978909904009,-12.430766849249931,-19.499402741191975,-18.81986552818299,-9.599891567939306,-5.430066469768396,-4.709333641437405,-3.2534590253395956,-8.153400531748558,-12.988641259800197,-5.155630086267779,4.258021750362721,3.4532454323884725,1.3963264501810542,0.27295863586085334,-5.854965508386983,-8.79783305765018,-5.533359123087189,-8.748295643415947,-16.611612762702244,-17.79889769365127,-19.256741441718635,-25.73188528467875,-25.900186664653518,-21.350836111436344,-21.61775714559035,-18.859270876180624,-9.575460634483418,-6.627267820674852,-8.96991907597076,-6.3192585575692295,-5.9636255172084915,-12.267435139608379,-13.434282303608487,-11.178359804460838,-15.186238970872045,-16.103596579148387,-8.549765197897576,-5.58473479997516,-8.132219331146832,-8.060430079164448,-12.832236794568441-24.136463857901056,-27.174274995910913,-22.686876417713627,-21.870090102487925,-18.756126983220575,-10.965188954097398,-11.827458223915844,-18.605931139922006,-17.43012362322516,-13.689508341932878,-13.487609466996112,-8.842670989409541,-4.337231546926535,-9.5574473981175,-12.044940467797819,-3.0332960293635844,4.1024966021358775,5.69170165603017,9.112912912177514,7.866851851168801,0.13233449228201621,-1.5634004306251246,-0.9626680554968573,-9.995001449029335,-19.112997812294072,-19.518489925353165,-20.92486647682641,-24.308412725702954,-23.19058354323394,-25.129682764448532,-31.204972335416375,-27.79626969542451,-18.135244493414426,-15.910868980800602,-16.114202572596767,-12.967947053474404,-13.656884595599756,-14.0749080025597,-6.2962760693975905,-1.6407290021247685,-6.693756456468264,-10.280326320428703,-12.492537932994429,-20.424007390551086,-24.193515100901323,-18.45605372146054,-15.41217335673105,-15.587998576067493,-10.809841614295578,-9.645264091786604,-17.192745146887745,-21.170341230431596,-21.433972896043407,-26.859971882662798,-28.744815468253798,-21.698380711368664,-18.11948663856842,-17.71383009340406,-10.558482696674714,-4.907195346328587,-6.8890562996342455,-5.318865399304396,-1.4199420230790971,-5.106480105508826,-6.8093394954031385,0.31467950161633906,3.610993715753014,2.302145883017751,5.718785606789194,5.869224620860055,-1.4708969456641263,-3.143184738660633,0.12865462659016114,-1.9176669003116598,-2.179784828087244,2.926150771116661,1.367884434201476,-4.372836977974664,-2.852929071294737,-1.2167231751234673,-4.606335609866546,-2.3772219283127254,3.276836988301306,2.521318505920061,3.7304204926894315,10.697505995087818,9.906070863269711,3.7205751388619253,4.74475324922622,5.101531509058512,-1.0195740312053965,-2.547441045301798,-2.08186103894914,-8.306198443037125,-10.065137445697442,-2.791640663491949,-0.5294043150960972,-2.3558204128049303,1.8753746416048938,3.970011016386845,-0.8477836343558129,-0.9737327524976707,2.7398920733339853,1.7404715126692085,3.8326950262942323,12.720438612491066,16.427542544365938,15.334228047948619,18.003915749902163,17.159314133229394,9.433369063817924,6.608261316200738,7.756663009173919,4.505696440998904,3.6258363836229552,6.919148799224292,4.270739332993785,0.9503449732979032,6.798882024141411,11.894771527596243,9.962287407151543,10.249517964443335,10.088102259960753,2.27490146412324,-1.6206399816234303,3.753005909770237,5.931914694103252,6.200159974234201,12.874034174466189,14.851672752427831,6.542920883847914,2.060717543796047,3.03172362456971,1.6119694310385082,5.487334943426614,16.067939280678903,18.260228461325486,13.704966895523516,14.914468445423523,15.764972019747566,11.82373796612287,12.608555735000968,13.769358627062099,6.429072116877705,1.9404166780301506,7.125675097426456,11.396299019045877,14.463983627763586,21.380382691306544,22.254460536235342,14.822081174856304,12.081133485070843,11.727958419405148,4.2965833317162385,-1.2743228348210036,0.1140145623553066,-1.0537460967849006,-2.7421590574027785,-0.10528223366381173,-3.736690146285285,-13.599579141802742,-13.997817146701127,-7.080336915330563,-4.66805804129401,-1.6055643169309066,4.6787115332494595,5.326724754648321,5.671510439850339,13.683048945765295,17.590691597512333,12.40803265678149,10.162289420818645,9.472927630319777,2.5399340426940293,-1.2557114379183243,2.4867305575525647,3.162572202551403,2.0681727628722872,4.754445588695564,1.3364715439436843,-8.642250309153784,-9.981958742033662,-5.100714477700826,-5.491477146942201,-4.846664419230894,-0.5726939826778652,-1.9361685227318324,-2.091243264155281,8.235989014076546,16.37172388811674,15.650672120009931,15.672355940271952,12.443886745980796,-0.4167603287004136,-7.687657614306334,-1.5202403846908132,5.222548906409243,10.420490544665094,17.234662276687867,13.641461545475249,-0.4743197383072708,-7.442491517581257,-8.031434762287667,-12.751526269943973,-14.418967228366407,-10.65159104228992,-12.900702868368924,-16.449014333410688,-10.341482180416252,-3.397511538101774,-0.6769220535196946,6.87481492606274,13.460844018220607,8.73350739959876,2.8885110991903797,2.0581741736076533,-2.0634957755640615,-4.683779465905497,2.0693066000731273,7.376402833592405,5.6742995119588215,5.0674978212131006,1.0773093145699892,-12.915597088372204,-24.314018434667503,-25.807639886279524,-25.163215097203057,-19.357168438852366,-4.8021465151059175,3.3677527723173033,-0.5598695000911924,-3.6394918734870996,-5.177794079115068,-9.57800661257569,-5.963562401782505,5.862273311530417,10.144278401443572,9.003226568848918,11.87790872603045,10.71385137559222,4.640354419076997,6.294595131646688,10.213273093714799,5.037914622405225,-0.18099322031203247,-0.9956895133206266,-6.522954032860635,-10.669440516669997,-4.728308231918344,-0.6847792866588291,-4.568954818288141,-6.3771739506477285,-7.332670046768029,-11.808088107082511,-9.896953328968781,-1.9132086922190148,-1.6421789063551833,-5.417470093157252,-2.638790207463334,0.26360811705429044,0.4854609285043493,5.247247563286348,7.345266393730576,0.12292637426507991,-3.204373705364582,0.4874157796117744,-1.3880106367583867,-5.478216197384263,-3.2451647531544614,-1.9835051654544624,-2.02685187529724,5.355697591127918,10.204396660496826,1.6035908730012745,-7.855311755797183,-10.241210432053906,-12.384997559134533,-9.143775564630422,3.5667898131686444,9.64332750583124,4.125059184562497,0.4530956731884783,-2.102668780210809,-8.49580928114355,-7.751623696467683,0.09463551527786951,-0.39982792002559187,-6.399581653954228,-6.775391376345205,-7.571894058402967,-9.915898248684384,-3.910768237081222,2.147788093441293,-3.1713897486086964,-8.136786875440414,-6.031573364416176,-6.141474160383119,-4.77619485826745,4.079796521217181,8.879043705699917,7.480041353493535,11.573936877770283,15.761284502209023,11.095506467755,7.736241243861336,8.193086387056818,1.8433570031794315,-5.46312245205063,-4.507255528189727,-4.284409179628453,-7.341843411431325,-5.219206186919594,-5.0888912073838455,-13.994940416854137,-18.1152082011174,-11.92494989817662,-6.518865876971125,-0.9408660842642642,9.116745065185627,13.76046433100575,12.445377035632522,16.273410129646876,19.66930542032511,14.018814809481313,9.04557945203351,8.347456826595307,3.8320548197115833,1.2612796217143123,6.92878339941856,9.00810873400277,3.645352073663599,0.8374193526147587,-2.031187459008323,-8.853781890415892,-8.208577209069917,-0.14045537107598838,1.278970147494435,-0.6153596973486859,2.8875269091931157,4.006689387556098,2.368365135227573,7.935375230635611,13.177354589229575,9.394416157999647,7.241593610947136,8.95997999613155,4.715238612684988,0.9012516810363129,4.955521679725668,6.93942343412807,6.005654343871164,11.02208468870289,13.861493899075825,7.0991781973322405,1.625118512589822,-0.7947632427314466,-8.420376190737487,-12.730054292597035,-5.776221476648572,1.1172336135205119,4.960122801677996,13.312046125857192,16.244536134252275,5.911323378509326,-2.050229190282586,-2.3362607919276193,-5.9228259482391215,-7.8091462692698155,-2.1937079713638266,-1.201415003724727,-5.207903804240388,-2.296765766731676,1.1021497946564836,-3.2247588225033916,-4.416989193107518,0.2590847028160361,0.4241162244938581,-0.14500264923318562,4.021819479102221,2.647918576134048,-4.485986568490004,-4.948724715577444,-2.3804468646552417,-3.8515051928522066,-1.1705211413717271,4.508513475241925,1.679471474874061,-2.8553128383504536,0.36649314429340896,2.5004131101730565,1.821484261545243,6.42549485058568,8.035450137190097,0.3777042292151731,-2.6062967260529426,2.078945669065397,3.4590286721439654,5.7528553219243,12.797869223796582,12.0680954610510654.297841261918737,3.2591750299888185,5.0861817186053155,3.1872855689894526,5.8125246293891415,9.790414471487756,2.2901036984790064,-8.51382178235727,-10.419117405314704,-9.885979925291526,-8.392897686851667,-0.11005204162693527,4.512218487255839,-1.883850380257376,-6.345598186426912,-5.686649185055303,-8.996948173230287,-9.803352245495496,-2.1159986286369903,2.3572044084438413,1.450123921875053,3.6603848019225955,2.466547070417199,-6.086742674024247,-7.881273917900347,-2.0591891163841884,-2.000112272208481,-3.5995718678360027,-1.105362347444785,-4.864664073051642,-12.174155481273608,-9.960289527608609,-5.705070887930732,-8.048026063752284,-8.069073168831547,-6.734009858960496,-12.6895602306896,-15.196775926752668,-6.292035155723091,0.6906533697669783,1.9854376746370654,4.969604402249597,2.3109424395495424,-9.168780665427619,-13.905522793176829,-9.282755186358212,-7.0395153551973095,-4.162181870761836,1.736477369692107,-2.010111440806603,-12.588624364281788,-14.514917897927962,-11.80320885962302,-11.61502833331035,-6.9529544038613675,-1.8080782974022525,-6.813100255069098,-11.67704206745819,-7.129217824795913,-4.595997538134766,-6.03203243120927,-2.4460503548926544,-1.5670515424403475,-7.878885363775947,-7.1825522987893216,-0.8148566315327437,-2.9696651090334383,-7.2288085431129545,-6.1637737378848705,-8.9831613881546,-12.044145406494138,-3.77278787880445,5.283218494208055,4.814575003140568,3.727747206373775,2.0081001438611823,-7.582358909680428,-14.46175446278124,-10.737039293245019,-6.974646944192575,-4.602175713108521,3.040766775079037,6.096057971282948,-2.6486355992740154,-11.599320353960817,-16.382366299624138,-20.636932765709297,-15.556248976506975,0.3940370599018852,10.283119852929232,10.161901029156045,9.001580612725714,3.729677495712515,-5.580901008317419,-6.70268347868822,-2.22394769288632,-3.830903011949613,-6.060292192523567,-3.4076711257091894,-3.142170414140989,-1.2538824054060007,11.242650935831968,22.991105475899253,23.325822207885615,20.297187617630367,15.200302157172445,3.3341625473771535,-3.992444061934324,-0.962269064104968,0.5648495887857736,1.132020674683972,9.241028695268458,14.930195628587397,10.442764406238819,5.772371205475853,1.8060188277461768,-6.964797717135862,-9.712836588621835,-1.9680556259109891,1.932689184907805,1.4787625189745632,6.519880174748048,9.14739887851989,4.964773091034593,6.40009321900313,11.772401097101383,10.822328934465908,11.796936571570598,18.518242813833737,16.98344836997095,8.98618615743105,8.007532429277724,7.614360571491519,1.8621301853844177,0.9380255631621436,1.4951250758057426,-6.504109715473301,-11.65082567789282,-5.959860977502517,-1.6040120342533801,-0.28317862016141626,5.502984631580496,7.536999114066811,0.973032622334844,-1.8000949019417447,1.0930210667227327,1.6961913849140233,6.356878024530259,17.36670629743176,20.20770750704183,14.432592846998972,12.366762650560585,10.411096714107565,4.460132279660268,3.3100679607046897,3.634728260750511,-3.332177956355748,-7.315818907266528,-3.01157955662772,-2.8918041846425733,-5.417408592170333,-0.19660934514390505,4.78028561557985,3.494998070693647,4.125797864752477,2.748951938937739,-7.410439035172134,-11.540394622751833,-1.6685234682254855,6.662739672311169,8.695824101305966,11.211659452974391,7.284599928402611,-3.6671077221191477,-5.8750092913407475,-0.40877499512825066,0.08257650842203978,1.2135819267674495,8.114814498210277,12.000545453809323,16.458269168655523,31.61237389579471,50.97776349857793,71.91136023389505,105.13718661903404,146.03983857876682,180.18234195412347,207.39994878253626,224.51216121638686,220.98286942376328,206.98279967527634,198.35474277702264,187.29080388279104,165.94468177296318,140.9726568373789,109.92361149218675,70.77171292147358,41.0016944785247,26.2367254459626,7.7517925187846055,-18.858434977062903,-43.043479845658915,-67.42206037600363,-91.01001354709763,-101.80450809303873,-108.05348475094475,-125.7124421059548,-145.56253945969203,-157.14816490731417,-167.26906186304075,-174.06788543869496,-172.17258965717417,-174.03233027373753,-184.36746640703237,-189.00466697386324,-187.58074924718002,-188.83703300550525,-185.08163822681547,-173.62295002137134,-166.73912290950244,-162.62809973743703,-153.56283807461384,-148.80630716289954,-150.54617264609016,-145.5349926663507,-135.69620981258151,-129.62196789568446,-119.59735062617577,-105.2306285749915,-99.76855389365906,-98.9573967516512,-90.39548122966593,-79.83225982624,-71.29261216967296,-57.47840435038857,-46.15738089549835,-48.316512700185534,-50.92175018962944,-43.73692192652616,-37.043730321938654,-31.70328744438495,-20.29374641692246,-11.154490419494174,-8.418082813138495,-0.9812884857159521,7.48501885629363,5.89399899431469,4.192214082605456,10.730214824390774,16.868595353810335,23.56831694206772,35.699947989789095,42.051782515770995,39.59825818443937,40.91331349167797,44.77345019442488,43.92038808671809,46.075371249286306,52.70367486706567,52.581722463254366,49.43702993376296,52.58356977798834,53.57966950079715,48.983317242455136,49.71791526444308,52.696610182988564,50.11883769879222,52.10360646639811,61.02526044064888,64.20334348978794,65.14015327639387,71.98014783003292,73.97776657387486,67.67477045781723,66.01188533641302,67.9852037782873,65.97010524585224,68.22662512413731,74.93474285358072,71.63941847609776,62.43351885552003,59.62808364281352,56.78112375707048,51.74010555015933,55.49065756224908,62.865361611086264,62.10436079393021,60.12596204438913,60.76758475973037,55.42038478941685,50.59886472586441,56.46923976667782,62.08203533334869,61.2231151506727,62.78357393879196,62.44620663593745,53.854850349433875,50.049117737573305,55.19079415340443,56.339184891567804,55.29339184302596,58.940485567574726,56.92912681338976,47.46861051309239,43.17633429955941,40.21873116080969,31.017647234235703,27.070106878150305,31.67249119245008,32.65053853639197,32.57100419859211,38.135463162356906,39.18598527064067,33.57153787378361,32.18680322628056,30.777320139923557,23.2598916944713,21.221577928722866,25.827303190515643,23.89499676432796,19.50692551215689,20.83792500630092,18.123904957324275,10.454178586598376,10.416828951524526,12.759513201889437,8.349862954428303,7.749425919665764,12.41675120193431,8.404886243608255,0.8524459036248979,1.3769457517134334,1.745377654101107,-0.4442789588768803,4.8691264822244325,10.098856727935761,4.339317830766225,-1.3548528660049617,-0.8433207357344524,-3.2339007941914955,-4.3663417080942235,2.397976345274363,3.8314561602789245,-5.463829346577576,-13.025974313099194,-19.83769557110787,-31.012621057574673,-33.6455483409833,-24.740315037436226,-18.158458097884232,-12.562417394707015,-1.701061287429268,3.762419225650953,0.5707911578070883,-0.2135666753873483,-1.5179549664644136,-10.503719744575772,-16.36821316528329,-15.020535743538524,-17.197492400488297,-19.23897851606433,-14.666776712439791,-15.374307518305283,-23.810612650817873,-27.16609760709622,-28.107103322282192,-32.99202440328125,-32.29646041177435,-26.632649652857793,-27.819001444425634,-28.70494277742275,-20.42594864327806,-14.862342475270523,-15.90950191515019,-13.711287477317214,-13.921383101661657,-22.77938525876489,-27.02831553248322,-23.913760742539512,-25.554947050560173,-27.070219472673962,-20.846730209887447,-18.963218954992932,-24.539773241955235,-25.464333499050994,-25.703286338905684,-32.443349824809985,-34.20589328401195,-28.46627206157789,-27.679146113406713,-28.665715901118602,-23.390045567391205,-21.069418418871617,-24.367636492935887,-22.16436489983725,-17.97394561714232,-20.185562519072878,-19.84317044852072,-14.673311719232256,-16.04267665210391-19.843831717726697,-17.340100039481904,-16.68228112277758,-19.805111042568566,-18.241444042662902,-18.706603908127292,-27.485157555443333,-31.7998390507519,-28.312766081321435,-27.30763361534153,-25.047310189066607,-17.79471873530358,-17.717612818157658,-24.926866381996746,-26.662455452492104,-26.749393632972943,-30.779626060573676,-27.84273557194482,-18.28025826242581,-15.099882661674608,-14.21863104379123,-9.097112441313186,-9.399900353694703,-15.104778054018515,-14.71766172093232,-13.622941326455082,-19.148194052647963,-20.489132541474206,-16.137134161632154,-17.80823162087702,-20.88495876474466,-18.5480780381339,-20.765963426902047,-26.6068635480664,-23.302985626583396,-17.34309018174609,-18.314535922065126,-17.65859351270663,-14.936610284325932,-18.679905887448445,-19.22710121696,-9.112072841614468,-1.843123482995764,-0.936810886000203,2.533892718411493,2.501446486758945,-5.066578125228743,-6.878697682802416,-2.8161795740484035,-5.317234478102786,-8.358040380492188,-4.132166910602394,-2.5403817328690277,-4.737449717092363,-1.4651973713262532,0.7413978900080025,-4.5552733087888395,-6.075916581091809,-2.2823744422966037,-4.282816983923767,-6.778478873249936,-1.8954633865641852,1.3299367723725624,1.7078311638066577,7.293124181014014,10.01861807499569,3.9862758418521596,2.4919145397393687,7.121139243450686,5.3122753082318335,1.9301838823655795,5.041044575729568,5.081366790271934,1.4517713470707898,4.5656462781505525,6.35472849930022,-1.3987163207813573,-5.5251010568758225,-2.4448067029580165,-3.246165150131387,-3.2491416080387623,4.347268140751699,9.367252509701963,10.430852536742291,16.7930041963956,21.922714801374454,18.99444404506809,17.533693984942424,17.443097396974338,9.288381825878272,1.404828901578876,3.0173784764249847,5.454529864401182,6.9916079900709445,13.825997474620674,16.34546625372831,8.382244796951642,3.482619143100717,4.563628979658541,2.0231303193735792,2.22897790270864,11.263568860363407,17.100826654676244,17.304248086321977,20.467923958220258,19.44229752095983,8.760895001954228,2.7254578992847383,5.574440719432487,6.790595214512743,9.283199938967488,16.076046240620673,15.035616873514448,7.447475176380975,7.527680410363817,10.905651696297848,8.292263632969657,6.115060232145968,4.246967237927004,-4.600606147396072,-9.786962124047049,-2.967656724140525,2.243238152728249,1.9819656261207246,6.187298608038247,9.452824558387864,6.7000293576208785,7.7947842565668015,9.110783927547354,-0.15156652836225515,-8.11305321817276,-4.066796898754915,0.9525935376669655,3.555503448896722,9.544069582435354,10.305183273574812,2.9280073121647434,2.1563992956957603,7.609096792383767,5.809270216313152,1.5549468773357973,2.682996311334483,1.6682894212906427,0.13309530963508032,7.369574370414775,12.957056412034405,7.88432580486307,5.342752345645331,8.6600422736772,7.222323192900423,6.473285011111853,11.564119033321399,11.020045792096326,6.666674166184935,10.225430605166004,12.821008606144986,5.926312910041821,0.9592887074360518,0.9703883846070307,-0.4326678364792331,4.346171954505057,17.036874858837567,21.981909965902616,18.03659159921557,15.4914677210051,8.97879455762931,-3.114188247501644,-6.517225736629429,-1.5230593894813322,1.1108913733183037,7.076622616087185,18.047877585921494,20.1228960217598,15.869312115829123,18.088539641918903,18.964857468026548,10.993117848005799,5.327652931422614,4.420247462698343,2.002132071247288,5.893082871380654,17.90588772716018,21.356277625430067,13.800238142336664,7.828941831684229,2.259057973653169,-4.2200193127168495,-0.6231332445229214,9.59363639614368,13.376553087449137,15.442684697122994,19.382385784304237,14.919025789306655,7.604333103647255,11.522642388681778,18.09534295596848,18.32246529508584,20.51939585079278,21.65821647698253,12.317522587659273,3.502639408542334,3.384520107275201,1.3996739840608818,-1.9069324774700362,2.8130343245733744,7.174201381713151,4.4895376983227555,4.737958569803277,6.80391644858995,1.9242946228092284,-0.539879358590488,5.81188945401321,9.597377482412771,10.201303285496287,15.044201336766935,15.334779707581816,7.421431634213988,5.499520230811854,9.26782985627315,6.734693872829345,3.804356392612241,5.444951176248224,1.3189934322216166,-4.698707490327555,-0.04673183546618631,6.737744415532567,6.214787688543416,5.283260442064046,1.911843495830081,-10.174559526384153,-17.917109231640467,-13.015338548837068,-7.895034959375799,-5.843011269789716,-0.5555085109877134,0.7580782421933595,-4.43001173890059,-3.1276758011644703,3.165517695153797,2.478038136638032,1.1578883393535029,4.93991813802047,4.0755620135083195,1.060425827049959,5.1739132982556475,6.6359346803904335,-0.9407741192678962,-6.849850375391167,-11.663571028529418,-21.953377934745394,-26.884948010518826,-21.320399034070167,-17.66230135107573,-16.11811806231598,-9.617733051003025,-7.101219653860032,-11.199311802226925,-8.974045188241455,-2.834568185346191,-3.1919451200056135,-2.539787564005155,2.4575295140859317,0.43810413706966145,-5.3590558890946225,-4.759819308789165,-5.316538006396799,-9.793254028223648,-6.86354116257427,-1.6273446121424917,-6.282956727173082,-12.545894877041679,-14.019804226700359,-18.363025451847186,-20.723028972276303,-13.240557826022343,-8.131272578796986,-11.184746031721554,-10.08046971436148,-6.176289194610219,-9.047619668735038,-11.105229740813346,-8.296318137891436,-10.378816363039345,-12.614858405028887,-4.6309409655163565,3.0702703801177993,2.8943688338331715,4.201939508314178,5.078634752713316,-1.8437248192092799,-6.233216424489257,-3.412924810067029,-5.488540397879725,-10.533161789160802,-7.953462538845706,-4.966706236654902,-6.404117595650856,-3.9004460171796373,-3.454762268101094,-13.711372339459535,-20.1255234246763,-14.197148805334441,-8.038084680865646,-3.1358451090399964,4.294651908394213,3.608841784136514,-4.5328778591683605,-4.648222844994495,-0.9732414501896185,-5.86893941146141,-11.913669271660114,-14.290546739389052,-21.248070320768978,-26.61986601999016,-20.282106501780035,-14.131934138594115,-15.916227462803521,-14.809310269831297,-12.753094681755567,-18.516870388118917,-21.285815472069103,-15.474556128288325,-13.90082305347326,-15.638353643833115,-11.785646658292462,-11.452878870839788,-18.52378749064636,-20.207785072272088,-17.086094086558298,-17.519224173250155,-14.076629143290114,-4.556812975364752,-1.4419334848425138,-3.2463529217410807,-1.2186723423441461,-2.4524553330555214,-7.7908345915666,-3.8849780952615753,6.054573579059976,10.001278442888083,12.411600544376302,14.661546088433928,7.9937001289304535,0.22589646832390686,2.7496624017692906,5.106434663214274,0.1773537563010228,-2.7405807855337923,-4.974639128473544,-12.105981731452491,-14.040069629787492,-8.955222580700447,-9.960502640243236,-14.311014294699975,-11.888747210830667,-9.700706718708085,-11.416704521211463,-8.064536116339529,-3.394307121370571,-5.265171785569372,-4.548994393960423,1.7912969777235723,2.153807242087045,-0.7098683695269472,2.743907093213033,5.026266023002698,2.85141498736688,6.247023943086417,11.093899253461503,8.364703767356065,6.798614476828758,8.995438019632369,3.936774220968031,-2.893614759174291,-0.2759002721298969,3.0881936384367896,1.6244764560671667,3.4300406837442714,4.2348699294469725,-2.4813347574069184,-4.46678241354033,2.4517644043164037,5.221423897347137,5.0854355521075165,9.96553567965166,11.67808163770032,8.646958768620458,11.491302811828318,14.690698421654591,9.692111551520046,7.451294471920776,12.479337882259143,14.431785717702176,16.143751096323218,23.281541141588928,24.29626400181555,17.68230281813693,17.93635223414462,22.27932321245918,20.4375443223360719.167187519820317,19.83634087149995,13.263400893060027,7.96346472282951,14.705437568686346,21.191742399036595,19.60449797185813,18.696021309634858,16.231245041947748,8.296143523497726,7.838747930462157,16.37659001058418,18.992410800473557,17.15014980524413,18.531057468959588,15.226740034408431,7.745931960018245,9.06047371403796,14.184421097009103,12.342501027063545,10.70124235557562,11.260888896468591,4.677497777562772,-2.386965231600314,-0.2918043454089192,0.891604019646423,-2.799332652629065,-0.9063123382175775,1.9525338410288846,-3.4374051966149706,-6.949821110933097,-3.921717629265645,-4.168747191850221,-3.706184033593851,3.3443263662808267,4.371226588764702,-2.508905754944473,-2.8720480559702004,0.724389664625265,-0.8171751730086585,-0.5713363580861215,2.2222540898193555,-1.4931175928311886,-4.973199352258032,-0.2811691801235363,1.7600381640079257,-2.2390040470433514,-1.7543444347271238,-0.7358121956432051,-6.318685443923013,-8.259543627876635,-4.380577160571562,-5.185974215708204,-5.163351743336035,3.1769313615894084,8.15752718969035,6.3100202676325186,8.205351146411049,8.447153888525271,-0.9119122930025947,-7.992629544474607,-8.474791610996256,-12.146829658626743,-13.819430233332255,-6.927358588257263,-4.184903481761108,-8.661513207801239,-8.224566022968924,-6.517925938650905,-9.485326253668346,-6.109456709572314,2.625838783942191,3.2850723416918073,2.3195386679599705,8.79489608736813,12.16790541376897,10.344042190952967,13.248643404832125,13.78087993625325,4.452065066404007,-1.6660170075612482,-0.6362426631490482,-3.501254198773928,-6.30201721117139,-2.8103828257666486,-3.8133701330857144,-9.930791101684441,-8.800428486624345,-5.32924282538289,-7.891349090559219,-7.6402794014099875,-3.4794801646110556,-4.74095150221371,-4.481171614038874,3.6618895794590367,6.929748739039197,3.081192379626285,3.6718562509925787,4.037195707660062,-2.1829321311956407,-3.9445109940471603,-0.6664573910358609,-3.8523915486869615,-6.844339835621759,-1.3315690953328119,1.5261347687024929,-1.0450853277462697,0.6881578149050813,1.1913629979298956,-4.617471638341005,-3.5277629719150116,5.719091831457673,8.968332259588989,7.956195739196689,9.240921594034614,5.4915049577481945,-1.2193594583274958,0.7243460755810591,3.956224097809086,-0.9986279251230195,-3.4631026282372286,-0.10518110105816025,-1.0855625538576863,-1.9968432406000705,2.943623783510146,2.3314664485075394,-4.417882981857492,-4.171811590110985,-1.6776255195801357,-5.264687492923992,-5.536524371847534,-2.505498806714897,-7.05735711306272,-10.94612265678273,-4.392142705433878,2.2574188521486316,5.100077125380877,10.64956211871978,10.68853564220898,-0.5476806334937203,-8.392299748120225,-8.248948561404312,-10.19623734855095,-9.806907132632961,-2.7395543648428795,-1.4559817496370746,-5.4548291258719015,-1.804550725002686,3.3626477109546817,1.6522338184978493,1.832046054059611,3.039784226017402,-4.111511430622244,-9.62014500319519,-4.668859320699898,-0.31479895539520886,2.110134091809117,10.665209605113809,15.246853120459958,7.862722395975107,0.625308876524204,-3.5264303262683567,-11.549304526153131,-14.047136838320915,-5.432785273765595,-0.5920145267424808,-2.3984291562517344,-0.6223024076130104,-1.8313781227000803,-11.315434960131688,-16.144432514841967,-15.63716407499853,-20.796379704215617,-24.685160983885048,-19.67934440725439,-15.372621832923286,-11.775273266581323,-0.2638631318979874,9.027306188384276,7.020238011784327,5.747626836712737,9.879776390248882,13.04293013651351,23.4837220458646,47.230508263511695,72.36178072801509,98.49314037378898,135.15514633462524,170.33818330445075,189.300205956644,197.4122101788288,194.87062818728896,175.6971757088689,152.73513488655877,136.0646907022418,114.38617839121386,86.2573029027169,62.84318456787774,39.3237914457861,9.811688954919143,-15.679199509809468,-36.6443922353673,-62.16312451478925,-85.02518461316726,-97.55241903542759,-109.0427488692264,-121.70609479488904,-128.32020384024986,-134.922419683791,-146.14940783009652,-151.24493176113936,-149.9731377563569,-152.97693342682334,-155.57218057077944,-152.12902535424584,-151.23839039654388,-151.223476495134,-143.1311947757924,-135.78016454097568,-135.24758741320807,-129.74832842878263,-118.91268328450948,-112.78665506701275,-106.30445449793918,-96.13957080067499,-93.08805091274404,-94.36477050019192,-86.95125687456535,-76.93833187361723,-72.22702958176816,-63.92054049910648,-53.13334641110168,-50.052768882589774,-46.89853975023701,-37.61646908118881,-33.39131014945042,-32.813953177570546,-24.851865123185306,-17.904736826899303,-19.75745178868619,-19.33604728565691,-15.707623917121687,-17.434513285884375,-15.41832412058885,-3.896894544322869,3.934275419350265,7.846489795724235,18.133660023100862,26.204955717568566,25.473602627313902,28.886282468905698,37.38474527493534,39.80312506043457,41.86754112591976,47.89994369140206,46.78420582432713,42.189092693608394,46.740940377580635,51.954281599796694,49.54086875132255,48.83492512896471,49.24952561702448,43.4730634939901,41.95432129913833,50.42548456944968,56.04280091869042,57.84275101477575,63.64003101009988,64.51193002719624,56.1981307681141,52.552398584071426,54.83173923618478,53.56271362911991,54.32727820283098,59.95790773625728,59.60743347173212,57.325536479089656,64.94397568095685,72.48959997251663,69.59755379696433,64.6466481342068,58.94384118141824,48.39563483693949,44.583103184132575,51.31321692181949,53.16205005848683,49.27546933122481,51.378121977624346,53.89824179346641,50.45771755446081,49.793729655679535,50.017667160538,42.34858379524246,36.766688518839764,39.807800640774914,39.195619352771324,34.90036003940378,36.7911382680387,37.39144487049319,31.33513277061459,29.190029716434736,30.152248752002336,26.288904026781168,25.72564374270692,31.300492860221542,30.54575478831446,26.21052658660781,29.441242779528622,32.46502358534903,29.049304975235007,27.66959364408516,25.561731999770515,15.616991766219236,9.623648580009892,13.853981508803852,16.45380834032047,18.28841120805167,26.807082272976153,29.99781697745587,21.252463064804978,13.8321516741137,9.951692334300667,3.724704970149573,3.9875591434386024,11.965411507292943,12.27518035110859,5.8368522127874805,4.7420793471921,3.9930085418710286,-0.5289410263290346,0.32008687361548804,2.212159904130765,-5.664678863126767,-12.895292585444581,-10.264257337192632,-7.234751842759325,-3.679036462748752,6.401639042883879,10.041059325166593,0.7901745551298731,-6.7613686961275805,-10.932362310073254,-19.87331102013034,-23.812346221216057,-17.258859934879453,-12.790614678834462,-10.557904922174242,-3.274141191564164,-1.1863850010863766,-9.323588014873653,-15.366105534395253,-19.04644863758213,-27.19300144286672,-29.9992434948325,-23.508284799210198,-20.600743318980246,-20.48825432081285,-14.73394488285021,-11.363027933525213,-12.653061814614556,-7.575573117890132,-1.9573192413449172,-6.595957426157515,-10.473809905551901,-7.375399139485012,-9.16479007868517,-14.665351979190266,-15.61991970952836,-20.79815146332971,-31.703062507375677,-33.4011979083861,-28.969935632253943,-31.487797796944246,-33.19589523387436,-27.921118593607897,-25.383919161264107,-23.141292239904732,-14.868354565287323,-12.55003700203486,-19.529899046440875,-21.489319305867234,-18.929461912053476,-20.656860599498007,-20.111881261605546,-15.904982270305513,-18.60862854000724,-22.94331550481369,-18.944839709855955,-16.160689026990067,-18.85255178310565,-16.425794972380945,-14.057543850792621,-22.46979521090837,-30.87747753657596,-31.55795536837996,-32.24930763865127,-28.570546145007505,-14.73211013205336,-6.260777179785367,-10.474795073384001-14.015580434780386,-15.558417049713388,-21.248929312063055,-21.90923346690108,-15.719246046776515,-15.521671740276835,-18.002191309100148,-13.750133974813313,-12.758362511607556,-19.94982875806324,-23.645095148735003,-24.778589602645802,-30.428343689144178,-30.90562981298951,-23.362756475672093,-20.767521297373786,-20.52962227318615,-13.807617030249812,-11.605281899091317,-18.708796610102745,-21.35679858320263,-19.584704239593027,-21.202689251530387,-16.90634673420377,-4.837159241013174,0.18358014481940024,0.4579259027627548,6.622487975715977,9.369216336288684,4.398556769142646,3.994625889391047,4.717319505558728,-3.604747921495988,-11.05668443244016,-11.823641202963898,-15.010877554259547,-16.521445104783147,-8.96263390037673,-4.245070350557142,-7.346523308837696,-6.780828266182765,-5.83192719325881,-13.087667622428617,-17.37109830804857,-13.148280361675532,-10.605384486533543,-6.683904890179731,4.60533538221006,10.323211849209834,5.732405715631339,3.9341208031679487,4.225454243236632,-1.693534910875611,-5.256257827492849,-2.273857242210178,-3.743829806323871,-7.420426897591646,-3.690935848016579,-0.5961017500671599,-2.889241192567748,-0.6010953585027397,2.7720796363659,-1.9096435752423697,-5.112586353842408,-1.5767194161324007,-0.7140842684913467,0.29285053735820715,8.159641578172712,12.543931880437441,9.686511917683742,10.843424501240289,13.217964471169513,8.541963615378307,6.430861052743216,10.586747627625384,9.732884212745043,7.016986416311092,11.188054734274754,13.575665507286384,11.51874006578296,15.419244098914469,19.11434893108301,11.59042720922261,2.5001974340248,-1.844071964782111,-8.415678230133551,-10.918423801647318,-1.592672888487889,7.094215806199448,9.08990297546892,13.171163332416565,14.508808340871548,6.925000246567453,3.6448453059736856,8.292924680588381,8.839516071162478,9.224667534423563,16.82445259499472,20.587356907945317,17.439712944696865,17.668296809890236,16.06664018036044,5.8415784951657646,-0.30803650180699993,0.9461941752666074,-2.9213007282831978,-7.290900727849588,-1.4463461390585086,5.517664175814363,8.312970960628366,14.022609443495526,15.276578077086544,4.570759293813303,-2.6767330877044055,1.9640367144257964,7.994282848726974,15.403273729568498,27.196541571521774,30.93187489948742,24.884915139927433,22.93924805968244,22.55256790013823,14.835314135471764,7.717993631049865,3.9175975701653893,-3.806891920767689,-6.993946180984134,2.3746507596713875,9.948043602333307,8.620428882219697,8.838046025151037,8.978751853240162,4.651664816481771,7.365339234694338,16.85344173962655,18.192338690871786,15.176370682282734,17.679132297614498,17.61519535137336,13.479872656807526,15.901251058493527,18.12687144947072,9.872805555562294,1.5621694659310053,-1.6353330096358731,-7.272351426431047,-8.273696699370493,2.3972803352937975,11.09145242407538,12.457639513789445,16.067217591956904,16.678810349650234,7.420125860567792,1.3032611411070116,3.1819977208073196,3.1441714825260205,5.1220262697631735,13.448046636630048,14.557206024051911,7.459666700871933,8.28743688392596,15.234145401767647,17.83648156490927,20.8743870001787,22.489482693109995,11.141677806386078,-3.6517054167791296,-6.508265137541207,-4.394701181905817,-2.6138225654278235,4.297287028053867,6.944905955947295,-2.8143484671288355,-10.474756047794598,-9.050977051735625,-7.736466617045107,-4.135792000404422,4.38355855688988,4.928141009820104,-2.411886403043031,-3.6595977043216097,-2.3900164174736904,-5.1543810824781895,-2.4185732375807025,4.293413460886755,2.257503535350932,-2.2028405659770116,-0.5209503693833362,-3.13504639374307,-11.298993650576898,-12.036977993313254,-9.060008383228093,-10.021045280427348,-5.018799803275628,4.707417319416744,3.549794568262197,-3.045570006572998,-3.258519842961458,-4.569192374695691,-7.526867075158235,-2.123617301599939,3.475756916101674,0.6853958407687917,0.320680078640302,3.846393006343677,0.8891032699470744,-2.9839429006346343,-1.0644005087641975,-2.9587495372511206,-8.840067489564833,-8.34212340930855,-8.181222750198817,-16.394969675872733,-23.223528995247037,-26.283776824195606,-32.073294280560745,-32.32537895343959,-22.3593412431302,-15.85032346337346,-15.607680707047548,-11.711861988761228,-7.912781961329268,-9.051911790529752,-6.80361629209667,-3.2556820383684877,-8.594572986796171,-13.818545217811876,-8.901868919430798,-4.460099207107671,-4.811347533067957,-1.767748460605732,-0.8054755914216128,-7.609863661266989,-10.992005203657282,-10.115076565049135,-15.847122767408433,-20.9006809980656,-15.471559936263528,-9.499611255606078,-7.7210516434107905,-3.8538969774910568,-4.16755572899645,-12.289549464791687,-13.926178155520061,-7.228870401198989,-5.448075974392081,-5.856099024526088,-2.2851883177187027,-2.6561828517095822,-3.868033213022795,5.199842885620546,14.455609445135314,12.362282643127442,8.014548706629832,5.711052034089089,0.8842922446999699,2.511144629613028,14.8179607714897,21.659796108319274,18.718939770262175,17.197953568316784,14.498511310249173,7.841449818697961,8.699208381576991,15.177310256131324,14.346509881207297,11.305682641067405,13.333575818770063,11.89871469777547,7.240602310224682,8.735686382110929,8.613248397189182,-0.643329201082885,-7.045641309861835,-6.610204418594684,-6.924473204302627,-2.009446628007889,11.140078483533541,17.282719296969113,12.095516978830103,5.76466563408006,-2.4846868800054343,-12.90353468345844,-13.250549071363313,-5.437016607590238,-4.184618530437174,-6.457694557772983,-4.6394085004708705,-5.588513377192711,-7.885739017087754,-2.9729290618634705,-0.1903202277949102,-7.213382622850496,-12.778778960892001,-13.812972898559332,-16.7830059131363,-14.924511469129198,-5.171355525354724,-0.8764658381631292,-3.4386177362151678,-2.1684475680574615,-1.1830364207278052,-4.596485229760902,-2.2932752853977667,2.957543627656295,-0.9183100063918039,-6.051737618692792,-4.055569606008734,-4.70887118846718,-7.957807150199428,-3.981269618653968,-0.7628300116076364,-5.2188964342746385,-5.676741688109337,-1.9483495561505138,-5.046325611654128,-7.706274766771781,-2.202459267714642,1.5754341974780597,2.8953148507629467,10.412026307563428,15.960390715986293,12.289678762739673,10.770361607683812,13.131199280331035,9.824928777310902,6.6474125766303445,8.054351701530024,3.1700863677651205,-5.604279884339006,-5.356521113312556,-1.667250832041533,-2.6709505349015514,-2.31864479475306,-2.6507439183431565,-9.762263693234095,-11.994670254860342,-3.0338212270324467,3.351648892788244,3.676027831420797,5.905857841916369,5.533769298198081,1.464448022741468,5.475046245828508,13.571696849715511,12.670147948993169,9.845507188688499,12.374803037869901,11.17064451617578,7.737274117701968,11.210135002604233,12.570774839145574,4.931792387117177,-0.546160092373917,-3.1475356431735326,-10.911021276052955,-14.528223654120254,-8.012172966038728,-4.126545584640529,-3.8183099558771443,2.047744407353558,5.180144254326517,-0.2766186007726552,-2.744942424031139,-2.184588749593633,-6.720811242792228,-7.127888614347009,1.0949455286230507,3.916373709806048,0.9126250687377631,2.8301823633573324,2.703305727514602,-4.848714741255925,-8.268656978402042,-8.389947457113966,-14.55944551680885,-16.55172071456749,-7.491558227656663,-1.1319620354290598,0.16537970698557325,4.711451982747549,4.384370965206223,-4.327097928356156,-6.539820419513975,-2.1913193606431234,-3.469770740427891,-4.404475444335961,0.7575402290905839,1.8889184136742299,0.20053286499143885,4.183300660407654,4.9593465299875295,-1.5400062384298372,-1.9832389694519257,1.9140415912990028,-2.768344946929025,-9.458710383415214,-10.361183230357035,-13.141758771729522,-15.428050878095416-9.226255334427334,-4.526441590073568,-6.125251456379029,-1.2692360437372279,7.817476500664661,7.592825328172656,2.8243143540806273,0.48913668124166243,-4.1213644289163165,-5.2666076535990864,4.978224895040668,14.213526121189517,14.233978381615486,14.843456032737299,14.818650097779877,6.347118158352131,-0.40496558151458895,0.9765330818316524,0.7478179285144815,0.8780835026433738,8.546899177454351,12.460052212790327,6.815402727164524,4.648874486682766,7.280340167883526,6.2847101796096965,7.886073003211877,13.751949766124707,11.389933666925948,4.3076889257143005,4.831940611873546,6.679592423138651,5.112204494738859,9.056492805947318,14.575060945736046,12.27116868157968,11.160572486244247,16.142774580870107,16.86550657689076,16.24753858140663,23.283116781475105,28.421042476621516,26.24788926339763,26.930440619004095,27.42781678894723,19.387711577477177,13.706067103399945,16.504333231336336,16.915799404545233,15.423637211558257,18.463560621163204,16.554699108022138,7.101308791193956,4.355138813925313,7.883585507895068,7.124921753944587,7.132833036454333,9.891216754036186,5.862612111251768,0.5271959568653446,3.75157022459513,6.1519169603513255,2.150705889330102,0.7028288281151428,-0.8236220595675966,-9.01001924745298,-13.000845103435186,-8.364300716071423,-7.256615107267074,-8.573237652768025,-5.135496188263195,-7.722253661086763,-19.904668917831252,-26.384843327798272,-25.280694383406416,-24.399282043637836,-17.593667185976162,-5.9239864074650725,-5.014554113910787,-11.829987825337172,-12.46464210894348,-11.43116081555866,-11.972861235922048,-5.818196276688218,0.34057360672987524,-3.779689323500647,-8.05326128187088,-7.489206699635963,-12.411310836076167,-17.998573008948604,-14.103912478425631,-10.875010236311912,-13.386044730393968,-11.56808036257631,-10.236874173796261,-18.267964358770815,-23.62984480093641,-20.17079921197415,-19.395778007286047,-18.625500710254613,-9.64269248608441,-5.213463113761933,-11.386369608200907,-14.466687047352773,-14.03273463246935,-16.33628559081138,-11.296902999908092,1.1966741692218914,4.428774628698369,-0.04691518825185126,-0.6983356743817156,-3.3541531941709346,-10.340915404737952,-11.058368231142879,-9.31245061366084,-13.507632272176119,-13.993673482608937,-8.757856075331965,-11.722838656581605,-19.669926733663537,-20.066469923750358,-17.661098005230254,-15.051399894218527,-4.9797450442329865,4.059544725283272,1.1982456075267298,-2.346255056950251,-0.08412533483528506,-2.7121130758888725,-7.679171158147194,-5.2205781981918244,-3.0107938131570657,-5.098679504526108,-2.3975706452438286,0.07139209333546237,-6.714967780063395,-12.024281817816172,-10.248797098208744,-11.855370851032003,-13.911031472845002,-7.468009896721439,-2.027551519027917,-2.616524282569539,0.9433929285155094,5.3049874929173155,2.006954908203035,0.5121404263405711,3.876068626078441,0.901696272887268,-3.2530381881489343,1.9500066745789502,6.083096741475647,2.433009838633778,0.06322547279400972,-3.6262451401493134,-13.740338068441286,-17.005784667866614,-8.921757998406674,-2.5472173383673216,2.3880599231650517,10.992248421661168,11.934713299836003,3.986676058460406,3.739025585782316,11.584382679685495,16.417392927445142,20.249552806863097,21.57546810201137,11.422479395096428,1.3193526927441777,7.492905710354789,19.114331341700044,23.330785367169277,23.83171940128772,17.35229360355273,2.1782469009305183,-4.332401054289594,3.364407339141355,10.43134912541796,15.612268576516415,24.083666336362636,25.56561612241975,18.948450617628687,18.147766452120365,21.73267143748701,23.581810097265333,34.24944786118269,56.18117984444145,78.72437422390536,107.23449556399629,148.93958427730396,188.48748177265705,213.09256795491706,224.47188851784034,217.88018851793714,193.95689000166936,172.94794306457788,161.71871744574048,145.47374521829659,122.45897356707049,98.74347270917451,68.85703114363002,37.322798533484125,17.427880472373516,2.0162130647361525,-19.515113767216697,-39.09718532802941,-55.67290760511008,-78.91378309051164,-101.40468828319048,-113.5423204379626,-124.34482321661801,-136.08928395504074,-140.33143057868932,-145.22730333677094,-159.57661648223737,-171.49617958696277,-176.98564106990608,-186.0904776161114,-193.03176450592184,-189.4338644001441,-186.22492024644032,-186.41146512904342,-178.79173846256418,-168.8835912438032,-166.57808672011564,-162.07573577292567,-151.3043642619921,-143.3948594046406,-132.81180973278248,-113.27527525578834,-98.76763813423734,-94.07408653615997,-87.4174508340534,-81.35038017194105,-81.84456552619814,-78.29249657011573,-69.33819512875496,-65.61179847634054,-61.35034401693618,-50.06395393216013,-43.746083383134405,-44.28784371743779,-39.3784980334399,-32.895865781077205,-31.66349523926214,-24.85125476964607,-11.470847301408284,-4.010255218025101,2.1330779128866215,14.002701869527616,20.50829241283455,20.418553874578897,25.67110155178079,30.641826797502837,26.951896069942205,26.020961286010827,32.47308338512513,36.964473893450624,42.457177566358844,52.12825393211736,53.38919805403687,46.758591582668735,47.27775977389239,51.42743484807905,51.29829587318039,55.458272815886254,62.62263777798782,61.55534533637523,59.66160721351244,64.59802894804169,65.74244080265987,63.36478276987009,68.84083593477929,74.23579202833486,70.4176123310331,68.66214211649753,72.05438581464175,70.72695240728922,69.94740273146881,75.29566212324252,74.67443263313623,67.68658591490808,67.87753767141378,70.54833704873874,66.81986174052207,66.023249044892,69.98068230359729,67.91425286369913,64.41816036091677,66.3646919892501,64.2147188114352,58.9460950617535,63.45348583272667,70.48045191637836,67.5454780561064,61.25168045042895,55.035762412231335,45.582445475597964,43.74363792282103,54.21684074194512,60.01181377967534,55.47087718721001,51.61088875728862,46.902692795060204,38.246161081682516,36.37902230400603,40.11705947167081,37.54217054890614,35.29512069542387,41.37982205305335,44.445641310585934,41.072224624610485,40.270910427113535,36.99616822440197,26.81230682058702,22.856583988454048,27.022772970390605,26.731711953856074,24.474053705915942,25.403820641297468,20.58990819644772,12.566363812348197,13.80618595423456,17.129683747821105,13.137134381635175,11.418613689609195,13.412787113222468,9.381465610908922,6.508566554860824,11.55144237343738,12.159202446469784,7.32126253108958,8.848653225596621,10.875729418792751,5.923853267454856,3.7821401558526944,4.879466939716044,-1.054570836660162,-7.5672298355438645,-6.781047300241706,-7.483046549921797,-10.160210788566102,-6.369065481783446,-3.961536885712251,-9.949862019980536,-13.535445784739313,-12.535270471092646,-15.532093969874769,-16.934791798435,-11.975967455367696,-11.741984076959195,-15.828988777205842,-12.753725009023796,-9.129287335973922,-13.268617126738627,-15.828910613086624,-15.67570757151087,-20.730831168575854,-22.20589595549778,-13.66031350799065,-8.871076934947734,-11.447754164532354,-11.75128519867778,-15.012149285127212,-25.63639984667232,-31.345463299602105,-31.991407893841732,-38.33200668736891,-42.90612183972059,-38.327201400110596,-35.49291985615444,-35.452818347525636,-28.609159640432757,-22.13656686435404,-23.671493430916527,-23.80202545297915,-22.417014452310934,-28.75687864943682,-34.06116659016923,-29.866074135855087,-26.484738543381873,-24.87322062110659,-16.604251224398148,-11.26965119992606,-17.176193251072796,-23.28809088943901,-27.03829478047374,-34.793184733498954,-37.39783655879769,-30.077405248646016,-27.395189178078112,-31.41327769761227,-31.073706086233095,-31.588749370803626,-37.847227604572794,-38.53096434081516,-34.23265340706347,-35.53879390177834,-35.92983483931152-30.334667278690794,-30.22453873976827,-34.21786668700713,-29.893005733356894,-23.816101013837095,-24.388251442168862,-23.545055991879476,-22.86806332397294,-30.93923150230977,-36.25655343036057,-29.81515910065883,-24.11269570854755,-22.200448604137,-16.169734933448712,-13.89327826460255,-19.836291434724767,-20.274219266980595,-15.124661688985174,-16.263043636002728,-17.924910034339973,-14.82667598128161,-16.674075363760434,-19.85168931208353,-12.691823454275859,-4.070568967398259,-3.5364635153949955,-4.028766790617033,-6.020514505477297,-14.096850151079899,-16.31823290096457,-7.3769402007965645,-1.689447170641734,-3.0026845582186588,-3.609245248330393,-8.21054998372662,-17.781973528189045,-19.02347665034053,-13.68920691088887,-13.758849966044734,-12.83762614435648,-6.459607043005441,-6.452717523538716,-10.906610315652184,-8.45386040418293,-5.528078173295867,-6.375738337376423,-0.5331317429292541,7.714316545075826,5.320830547697141,-0.31283553232097994,-0.8029622771881558,-2.9876482335638963,-3.7661836175777195,4.399878420250245,9.082137825157234,2.5455887871753737,-1.7117164717307767,-0.22946501719561574,-0.2923299087105041,3.780936811855644,12.24285624432469,11.390087618978136,4.402340301280997,4.413741518082405,5.480783606066939,1.9472489896717977,2.7854246403392353,5.594880224805513,1.797023076350378,0.061384613638717306,4.687022201741621,3.7593331458702286,-1.1632534922039588,0.6638859610785819,3.009592691330939,2.0470563641289283,8.237152212825922,17.598932337853622,17.4571225821296,13.996580961671167,13.4075092541536,8.047663746298053,2.024403301292629,5.488546633157681,9.386738789974958,6.201299827204407,5.229078051365507,5.988344080417524,0.6197396722708737,-2.5543112357433144,1.7444982414422208,2.703776936316056,0.4704487687800527,3.3234752605070526,3.91982506010441,-1.576140703005768,-1.8774281938429025,1.7834012796773873,1.142559839157479,4.364518618122449,13.845790719613035,15.645150905209665,10.570947292028944,9.923899073631965,9.402446814741742,7.141317949009032,12.985973128240184,20.757628309674796,18.489438164219962,15.563601790922407,18.026432359082243,15.111365782997515,9.669113179149438,11.827644930753433,13.406935937704276,9.621094591464235,9.828629375166773,9.935100814482,1.6090618862694503,-3.3547736149570495,1.0349039938540892,1.9308351949219087,-0.40824681880397184,2.990139548801852,3.9271080376389262,-1.089818037962889,0.6188612215821698,6.823793142512614,6.502317917797208,7.060093619117003,12.892498348844288,12.947798595800634,9.645331799892643,11.943227347139878,10.414871619616918,1.1623749432012151,-2.0493492662672983,1.5403589461592977,3.202717338989274,7.7847371195143005,15.246168749236519,14.161195817178497,10.008517838200333,14.564060668807567,18.7069191673625,15.878761776746954,16.27293613207379,18.63693358049433,15.560524820037177,15.451827605249203,19.50292637752238,14.941375475885675,6.908341417070369,7.677505603630598,8.81438804194691,4.6970291565243105,4.677651597382936,5.401006623231087,-0.6647549404056061,-2.590033597331784,3.1765397465009504,3.2314638261314084,0.5210639735930385,5.805554874324524,9.346304679509558,5.925829624989332,6.946324889464735,8.338707037553158,0.5147838151179682,-4.323636388760385,0.18226322355779745,1.6793817266146842,1.2790230433792196,6.5237164835156305,6.844289787096891,-1.839604721127463,-6.168177203710798,-6.689038459054409,-12.25676589004848,-14.833426076137776,-10.754178518754308,-11.232204563126514,-14.221308325929922,-11.645333060409845,-11.474806643320493,-15.406483954570346,-11.988970342815625,-5.337679469375104,-5.393892746979952,-5.038009926430118,-1.926068273429648,-5.108062186947127,-8.045452049606986,-1.056550522070955,5.62537247217417,6.698686453241658,9.967576099778025,9.350813388319066,-1.839683241484368,-9.480674447334199,-7.540658735113752,-7.247795277842831,-7.1013566946669675,-1.7554645635516457,-1.5634212145987327,-6.899901829450887,-4.121528344979443,2.070973847013435,0.3998172499617143,-1.4596506405677798,0.33615534943924263,-2.515187388925085,-4.514152745248928,1.6698064124430925,3.6706168039502027,-3.6547037734969363,-7.573861518225189,-7.797379918263692,-10.947948885820832,-8.114502065668319,2.530144711323051,7.318866255021204,8.380584179594656,15.114875551630277,17.961577994854046,12.363071254883046,9.81831937585228,8.10792026852534,-0.10538634028310456,-3.754413667982739,1.3330038850355064,2.8148561950856656,2.060555357317633,6.150255576094647,5.929075820883199,-0.2118516466800484,-0.3798653225047689,1.2126825743928453,-3.9990700459050053,-6.0635069312408,-1.3906293129986846,-0.6415407577194872,-0.7748591313741138,4.973488968163487,7.095809628580717,4.371258064723783,7.900862393067339,11.2590996070393,3.939109645940281,-4.020796123976113,-5.633383946479533,-6.650891993929727,-2.4819705297606056,9.842239408926083,15.047430741757632,8.723176703864338,4.1267356606310095,1.1405846611697608,-5.534855270159598,-6.103866929699278,0.6771655897879065,2.8577871552841163,4.534566506408851,13.233337477165483,18.005278710582726,15.921009975176139,17.57118394187359,17.460764624460886,8.132705438280567,1.6249106550305907,2.164328224009671,0.31259053676036697,0.570682944153797,7.941888539748309,9.670482137638473,3.6229486353376865,2.3838477440159163,2.4373000128289872,-3.4646813799327396,-5.179861013009019,-0.7838391469024517,-1.6322547768708455,-3.2428823951440693,2.360530693095541,4.742548479570201,0.8366540140537284,2.215632090489615,5.118531934842094,0.7377154814586406,-1.5978333466785923,1.3385265244636426,-1.0240206700360635,-4.936437489560476,-2.9526822885255983,-4.340666126691122,-10.53302733350466,-9.825468241747794,-6.273855552244995,-8.7109787967635,-9.36527885346836,-6.76588737130612,-10.017689515106353,-12.192181705705492,-5.011142837734132,0.20415441423587377,-0.9203280400890987,0.7720172309406697,0.7239967586620952,-6.5949950872648015,-8.952073544781097,-4.069582804129885,-4.109415388905081,-5.234608352825811,0.2418038944330294,2.328659976712485,-1.2973047581830517,0.391259253722104,2.724695748296923,-2.5606832836339333,-5.693087682156111,-4.123639514926378,-8.50341032705123,-13.340795463547273,-8.548307345377957,-3.2095119710850106,-2.3460372240982466,1.367594008857663,2.111219886729856,-6.4120505584156255,-11.444363890905873,-8.481089260801834,-8.134322340123807,-8.261052647688828,-4.241146741698673,-6.5053549277914415,-15.504112536480221,-18.459329653153283,-17.315887460499575,-17.18854553426708,-9.805206973007076,1.3939823173276151,1.490016627057894,-5.186391361466977,-7.567892732519404,-8.975301144856754,-7.6919057325181734,2.964861339728837,11.057201833898342,5.873163247580477,-0.48820535775054896,-1.7978840401548621,-5.913721285963083,-8.28520318064581,-4.08070696404344,-4.419947009920388,-8.313714916869946,-2.7220311863342017,4.7284618610432165,1.8720534959831516,-3.237551403812548,-6.3870553548944144,-13.066518530485544,-15.100805605408347,-6.4915349446026775,-0.9640752437161557,-2.927860083258865,-1.4083718529895104,0.4696448536301685,-4.326065452697807,-6.910980485625878,-5.512510688776599,-8.721580290053007,-10.067912490692112,-3.2267815538584297,-0.15773781865688644,-3.434729496838438,-2.08396683942516,-0.29241857388679293,-4.18255051880265,-3.2630245186458544,2.6185310308810346,1.6137178116291044,-0.7173391976205584,2.498485339928931,0.6664779989383147,-5.219132420379375,-2.1413311783845885,3.3351702486234416,2.300946345849923,3.9662018033105344,7.0781373664485505,0.5509395269503607,-5.6375304113143505,-1.3226503844152044,2.0469409327567516,2.1393070961026908,8.2329617169135,12.058040661897385,6.3151085905739865,3.8008375392084116.58330620560707,3.833846587773804,2.178849924700745,8.219406103841523,8.301318431260356,-0.4666066207553268,-4.6859237688559645,-5.859583826362784,-9.035292858346388,-4.948723941223314,2.6879022640919614,-0.5952928074625428,-6.040927970766995,-1.3349483911981963,4.166527921406568,6.6310381265588605,11.896014509562704,11.505231644986363,2.009757083707079,-0.6984786308094679,5.373506277628251,7.795642748536141,10.257892167455266,16.201250912312272,13.603774670798144,4.612749518434724,3.0918406456054375,4.139947468532884,1.1381120021455264,3.138422168472366,7.359097152323408,1.9985708583018658,-3.493530782461669,0.7818295236840664,3.4075264695622907,1.5348196780383334,4.761452842497018,7.50474218703882,5.111112185099882,9.279633747077105,18.115190837745345,16.990277826750532,10.799506931940813,9.506183797508601,7.02327761899355,3.9311308475961644,7.991812038986529,9.727497583467102,1.6600653879258789,-3.6615969776212935,-2.3087094565197943,-3.029972929816167,-1.9455239279931433,3.624824415081443,1.9365569970552077,-5.536097709535057,-5.993730776786047,-4.045109802479226,-5.707209772540285,-2.08142077519296,5.42977238773266,7.074393854267637,9.274169168624576,15.884270672744634,15.213605586748765,8.967914372609476,8.547179603495556,7.739884495322518,1.4126125289947846,-0.5476605261817147,0.3271805123271676,-4.219980363488635,-5.357058481810721,1.2705526132666436,2.9248350611297362,-0.2051759258500061,1.8999875829816362,2.4922957686275,-3.172365310146616,-3.7297440830007536,0.5736949928988608,0.7353645029049902,3.6914922057881436,12.234489469567531,12.690249350714886,5.294661190405424,1.8264705424853014,-1.7522302497920634,-9.235379790001694,-10.18902359832268,-6.061511680524623,-7.487385939332368,-7.456415197454812,-0.5566731584079179,0.7703696322327321,-3.6694916639937647,-2.588742363961552,-1.6428696385557453,-6.072831917419811,-5.5926330807641556,-1.580829853646891,-3.5491061886739073,-3.1580572108912013,4.421995208689372,5.915003401655237,1.7977570572438317,3.9644089935418654,6.075107448668926,2.371333063873805,2.134761677971556,1.073956064767152,-10.888318726165817,-20.29495922222324,-16.1729457868582,-10.331779203256849,-5.648523868356213,4.492129167100204,8.769905960798894,0.11985465500420789,-6.327480401946921,-7.018289231386804,-11.31094475843718,-11.48890059499887,-1.9498395660914443,3.704785147435151,3.930607446756553,8.68239543136634,10.314646720075704,3.3598915259173423,1.3223531774846229,5.093042540110921,4.458051757738673,5.976360600957612,12.32843959413606,10.483083899408909,3.4025691679981653,3.5270802254721203,4.015105182686337,-1.2920575539716328,-3.5977534817927905,-4.75731612985419,-11.969466798556194,-14.040128571333074,-4.610482760968719,2.5282931499199592,4.229386755934167,8.000557063824655,7.676460671287359,1.2812329818652275,1.0076981565985617,4.915489907797776,2.6659420477654185,1.3082920538551448,5.26069774230715,2.6399807958187678,-5.916057381977712,-9.379601027778445,-12.891753760029898,-19.28397840021953,-16.41527587246749,-8.332552598561627,-9.600212370197807,-13.747978767605881,-13.715157006124358,-17.30280371068768,-19.093612366547223,-8.927081194237715,0.8185264453804688,0.7541035800674886,0.8599885967470953,1.9096628849572148,-0.6288998815955118,4.604171030029593,21.072945045266362,35.96331107415764,51.02733881185307,76.30351858580157,106.04489450784673,135.3901706718973,167.94700989856273,192.8726293400083,196.3175147515306,187.30066703060407,176.83446823312684,161.89664728941585,146.30042664776255,134.96307212617708,115.9006412598142,85.3762677814828,58.70771365559694,37.74961763192416,13.513463438630078,-8.183377497878642,-24.579284005582046,-45.2424393198328,-65.3259561382921,-75.11519460582397,-85.53467830798593,-104.06947052743763,-120.15722005140468,-133.82349482061366,-151.85758246192216,-164.71856259549827,-168.05387243448538,-172.93612284972338,-176.9301831523035,-171.40010869860598,-166.38054782113988,-167.93453792903193,-165.94445529774416,-162.43259986638054,-164.54304153632947,-160.39215949415546,-144.24370215538426,-129.72780705785698,-119.27950350019125,-108.01001380141861,-105.5133511569049,-112.38436132371001,-111.71477108737423,-102.97222601168957,-97.42699452203411,-90.75863220658402,-81.15369398663225,-79.07606833684468,-79.5917742679357,-71.11477312021825,-61.44661656719981,-56.104233494934725,-46.834624741134576,-38.02783737675661,-37.37431918113301,-33.37177691301673,-20.892812913722686,-11.606922963767623,-4.570491808316945,6.346722961339218,11.30381608384675,8.783687448397988,11.653985127892781,16.33264765428671,14.492564649575016,16.9418878522722,27.207838874838185,32.77017214147681,35.23743978677824,41.78577478637409,43.54656051524841,39.314600082781126,41.95925562171639,47.859609808353994,47.19648161966925,48.56437563794744,55.22477548176873,57.06499606344157,58.55725115757282,67.06903406461777,71.09709073061983,65.87338470646503,62.17061231531833,58.9548040922347,52.42225138716552,54.27754772468679,64.65882723430771,67.1935407289759,63.64434693555948,65.2243961345524,66.23734992213538,64.82461551115443,69.99522103040924,74.14258526855757,67.41306035951625,62.08351591239231,63.70936619794895,60.951281617867764,57.064987506154054,60.9680138814494,63.727562694637555,61.70518881125507,64.70775118844844,67.82522947751161,61.66597088822925,56.29996946335832,57.21271815396911,55.061312181627045,53.60675763622671,60.52291628113794,64.38906007442864,59.14963430805874,55.00398351375182,50.61618274647188,41.19025181749511,39.28680484190247,48.42670796388648,54.83590428762743,58.671747325622526,64.21470841681635,58.84132888005383,41.87235065004401,30.953888408727767,27.10761406647885,22.904894838553545,25.665424147235385,34.059761877561044,33.666366409427866,28.902103624185536,30.236269911422838,28.114447426116,19.738524533221927,18.728130601418822,23.294376616518047,24.535354208410254,28.455104636739243,33.138788713472344,26.154128275518975,15.362115701901693,14.315357162739241,15.326238222653293,13.347741068768986,15.673034047803311,15.430003166465532,4.3228467478929895,-4.889398962501875,-6.278976547876132,-9.447619497842568,-9.775028877780668,-0.4570114493985131,5.434311767868939,2.537879999045737,1.761447030544376,0.7872752716450694,-6.192251944585195,-8.355239993609574,-4.363863704604933,-6.698619083649508,-10.487599237535528,-6.900612369517459,-6.119699771292221,-11.044946117414407,-11.064463814268672,-11.1272132240762,-18.513008527395343,-21.468033541999063,-17.852663343314077,-21.20756508866988,-27.623668979873926,-27.05701288771759,-27.433427687100654,-30.38075074198332,-25.71464085828832,-20.27387583645367,-24.083294211664274,-27.04404838495944,-24.710050960069854,-26.972343794448186,-30.26476982782242,-26.291348997343924,-22.95486814173851,-23.16782725408688,-18.585318924963115,-15.203091288692354,-21.36561656281461,-26.191059600510336,-24.829665748841997,-27.236325198672773,-30.34191544555804,-27.021366402294312,-26.126213628682528,-29.010395123426083,-25.517159917565074,-22.318330761839132,-28.096432289050078,-31.81977310608739,-29.603999631808584,-30.672442493012376,-29.79013016817414,-20.357843393414903,-14.44162854026618,-16.045488117428135,-14.859784734686045,-14.956343546431945,-23.215939082900654,-29.218842158751304,-29.85315050950814,-33.35305412558205,-32.39530864901647,-19.69499948267049,-9.827457492453831,-10.860427093565244,-13.876534264758838,-19.184036867825114,-27.92393875681749,-28.058105184244685,-20.89837486255003,-21.013179458525833,-24.20329608122779,-21.376476680832848,-21.174387357147772,-25.387487513708393,-23.859483699566702-20.850800706026934,-22.480426155138545,-19.840535905473203,-14.388942333505945,-18.29463092931256,-24.290968918521376,-21.21393593528945,-17.637889808347996,-17.93367098185656,-16.074527453825876,-18.378086954532485,-28.0229381530356,-29.872720135953067,-21.212033118905016,-16.136130445920458,-14.214578927736056,-10.529489751287148,-13.979035719411876,-22.24332460126964,-21.496189573049275,-17.165132382567293,-17.580822586149008,-12.263053046357605,-1.1429011556446826,1.563802922242084,-0.47154303081952686,-0.021897201868221527,-6.440181289977136,-17.366258202402335,-18.55543213258554,-15.335724630513528,-15.725146526075093,-11.034145646899827,-3.075962532574665,-3.7463037149915914,-6.365213513834149,-2.8918929728799623,-2.7018027712541985,-5.918498456451584,-2.813620942573852,-0.3996928944778807,-4.4144326445110655,-2.7488280680178474,5.204579913038751,6.971994796354722,5.5885491849117415,6.573377882426678,1.6818787148319725,-6.309253198972166,-4.581047159055874,0.5761981338950148,-0.4330704401281811,0.8415782729654829,6.100145256826844,6.273260369645914,6.621476183641462,11.49100002028734,8.856449802115426,-0.5879128858612388,-3.012478890611349,-2.135873904966516,-4.458716193074825,-0.3325885230085066,9.450506905804836,12.190538067937217,11.913014036853522,14.785009313787505,11.860956305294744,5.938219687348102,10.286554593311495,16.73754121735984,13.11728432387627,8.010904646919204,5.073175469911886,-1.7682458353763892,-3.154664799591486,6.442470642322361,11.46207343554175,8.27567695248256,7.482595773935759,4.144599430047186,-5.1931651912273775,-6.563664435948738,1.0279950656378363,5.38750658669158,9.251833921734196,14.87926530154172,11.007340478203492,1.9834771410290042,3.822615371061572,11.10382910217383,13.458437219420771,16.437547701423004,16.833306506729485,5.559187478669434,-4.343037106553185,-1.3794411382468241,3.112809122384642,5.90656309409531,13.63182739442124,16.131682894088122,7.833624063836875,4.165857877968083,7.667841037026592,6.51719920769534,5.433769321934555,9.56547919349053,8.267286295923732,4.064398334338596,9.05779977865844,14.632553443431012,11.643905270238859,9.687611116119179,9.245427694640584,2.064344640494629,-2.2430374064441234,3.7542924084206195,8.125579181479015,9.306333471221425,15.82283105570083,19.306483576168944,14.075119081111334,12.389591919417937,14.295940158625818,9.705237729450058,6.430229012269115,10.701210245076345,10.682529504414259,5.463704448950208,4.870325509614049,3.418343011353897,-2.4864751147482176,-1.3486180073858316,4.962426686829798,4.073644345773329,1.4761900378621913,3.5557758557429358,1.3333908289689933,-3.79957578200176,-1.4649911464209149,2.5999346074315777,3.373762528891363,10.074624654220283,19.491074445423337,19.36262012641795,15.90905039494822,16.13708806962896,11.735504207986653,5.17171573824225,7.077132897527511,9.737634945090528,5.348256003658626,2.3943323241564562,0.5266204510758584,-7.1408505194720995,-9.624654021023492,1.264385278015415,12.740402355896808,18.730393411926244,23.448565111904145,19.4056472230895,5.289509131166778,-2.314586749172554,-0.4657977771394406,0.7450156601236834,4.966685959805084,12.976050783839069,12.399408520410368,6.881422925556499,8.849634290538493,10.301504600416145,4.026129878518375,0.30920216717664756,-1.313466262345715,-8.755965341504005,-11.723958741893746,-4.815035224929254,-1.9988958094488654,-3.705957568169105,0.2705390414215736,1.5859169349659072,-5.475722443904627,-7.625991835905589,-3.18312352439948,-1.2100820877402243,4.079862860328526,14.084543046847758,15.004996344764225,9.767584249087058,12.102380435598107,15.60080804837553,12.975505308443882,12.189942032613608,11.3708712695839,3.2598453825361844,-2.4198792314776734,-0.3649391673329707,-1.8455586779902662,-6.21206260935144,-4.587535362037201,-3.9546796568827784,-8.072064278517646,-6.395183500924225,-0.8354108716231758,-0.7985559241685547,0.3715219742400334,6.04212782187821,5.23847656476897,1.0711153276634175,5.148417146249166,9.796290583759689,8.347973281577788,10.089636578299487,11.495032756092932,2.099477663128026,-6.967131741589622,-6.768031796776716,-7.731271985177916,-9.26826635264411,-2.925394372315907,1.3416713937039442,-3.0393407089834694,-4.484718562916809,-2.618494947855057,-5.98603504990177,-6.649715343321493,-0.2059432508229393,1.0322308701175413,-1.990028395410663,1.591744636921541,5.54334714480347,4.016486684860766,4.5619240880376,4.03564232541866,-5.075462470549592,-11.7301638896524,-9.18046784143796,-8.530002493952013,-10.059646805801616,-6.54238492589152,-5.772136873102537,-10.341705104609787,-9.058434569021125,-5.594938542734942,-10.265481294950899,-14.262980639706775,-12.001498165699683,-13.390542803290415,-15.458377550614724,-10.096227581089355,-8.481459057426648,-15.820934129280488,-19.00793871182122,-17.93816998968412,-19.963242905150498,-15.284106669851433,-1.8917781795629844,2.595713541339138,-3.1362888994822447,-6.451318045902014,-10.946798007391882,-17.789185152991237,-14.286172757720236,-5.882462374775009,-7.171970980743208,-9.526486090062829,-4.8877069987841395,-4.006285927452197,-6.567179642553671,-4.2046932041508915,-5.124634177399913,-11.875253716760742,-11.21339958160009,-5.629996327331677,-6.7822300402430855,-8.13733617236467,-4.647196769972834,-4.900475110646385,-5.1948871583516985,2.434132081191408,6.511324362998912,0.9075209237154769,-1.654221964690114,0.26014505374600705,-0.6905356767187643,2.214420508750705,9.665667161656405,7.740657440343799,-0.6382554957208213,-1.75584711116919,0.09678380082566773,0.4464960490157094,6.664863123662941,12.023548326691348,5.140592022390781,-2.807089898476942,-2.1276165575335493,-1.191671509031973,0.2506609816602102,6.3768450494425535,4.675108634604172,-7.836774275990185,-13.938715437622893,-11.422758945097232,-10.57229250359702,-7.292993760082274,-1.4113362171384662,-4.691760250371627,-11.00155306258846,-7.521672068525394,-3.1272795878584914,-3.807377593555098,-0.04199532420624208,4.341056130406548,0.8443527109802171,-0.6401095267645639,4.087553580329602,4.027491181941869,1.678908117667456,5.910450938600952,8.142508540098282,3.624940959386909,2.7911764157264214,3.608139170810595,-2.3658627989879664,-5.565111076841238,0.006721572756052119,3.3641040410640635,4.208944712534524,10.063623068602508,13.068110094511681,9.274607847908394,9.616773059012171,11.457233647177505,4.836667145567492,-0.24567521378439583,4.296187014483438,8.455084702039949,11.502880212128185,18.519847874923123,18.732184513315566,8.94283469929951,3.4708539847301543,2.8689465153955904,-1.0577458508503468,-1.564096745309131,2.8618051030255085,0.6957719330653203,-4.5171094538649825,-2.555317160149573,-0.2834940189725673,-1.139277631546182,3.5175825711697044,8.175834691810424,3.90712462919605,1.5258492026030068,6.465190034302986,8.038547260734605,7.5836139970280705,11.320729259491477,9.505232014837938,0.4555571444175621,-1.346385041421478,2.453409362259311,0.8767886492233903,0.026954000855712725,2.3774656551761235,-2.3087774866183373,-8.599304156576776,-5.928544462830453,-3.9144864119572804,-7.925357514789794,-7.446420534149614,-4.8447429893885925,-7.84663028939607,-6.752014256517475,1.2695463255239807,3.031448755643752,0.11207600705859555,1.9821883757035583,2.6648212552794805,1.2063699476922944,7.139030157705588,11.963859957953087,2.9707711371661594,-9.445996809689197,-16.104013238438352,-21.241236598867467,-18.644748950310927,-4.2315190753297225,5.610411023702068,4.271418180989448,3.3060984437993377,1.7981403348776435,-5.182648263056981,-6.54988719651967,-0.058037253246708165,1.7731547797905673,1.4792321248887026,7.23960583270548910.905860495655086,9.75732990952726,12.805700988761595,13.967590079228481,3.986124010012894,-5.535958294612398,-6.69017690109738,-6.869358482340621,-3.121045525701846,7.895279295451234,11.666175133221046,4.831973107775898,1.6977640773367217,1.5471203385428742,-2.494954062216245,-1.7561958689316925,4.358307817020452,3.855149958725221,1.893255706225058,7.392860561012091,9.687901439364971,5.523639225694453,6.3808460633129425,8.485390831566443,4.174603161526641,2.61846328571018,4.4351060038303025,-1.8938020854945412,-9.422178932927178,-6.894935978878266,-3.598852467681845,-3.9531830750417254,0.5560089875576726,3.813685297596086,-2.1893124972347615,-6.214472164974223,-4.685807863959768,-8.072319259907351,-11.200877478887096,-5.59749271210541,-1.7548772359454494,-3.271324056754745,0.3087060812245215,5.090500023876369,3.7579920978607477,5.5548697998214775,10.825453719211856,7.299420522140701,1.6904407948665787,5.712970318929336,9.630386073602033,7.821060086500752,8.225323595323099,4.491994354771935,-9.634546702831315,-17.57233523412751,-12.297614003568548,-7.581703727187911,-4.992861833291966,-0.7876498241446206,-4.783403837531594,-14.424040116477501,-12.925540911685292,-4.188739616725138,-1.3789838839176882,-0.42338462451203274,-0.5440834855738154,-8.39124809685627,-12.816100683444562,-4.0547474419835305,3.5539267731488193,2.682794724112567,2.821015836434822,1.6605614044878514,-4.359822224686807,-3.6439856768260395,2.465628745705975,-0.8166152761898551,-8.018528479254938,-8.153233804063175,-9.208479495879313,-12.534253500530188,-8.191906858918225,-2.838720586527261,-4.282130960344348,-2.531978342114318,2.8998509091831464,0.9351166347621838,-2.1818466748486296,1.4933002969544849,1.2260231975235507,-4.047658916019032,-1.7260507132708098,3.1512894554909474,1.6041763273220049,1.8286120391319471,3.8021739419646714,-1.7089065211912868,-5.461816355805519,1.3088208742127918,6.013020832800759,4.046514263972098,5.59769086715629,7.515626056978483,3.767052515764792,3.691915727544762,7.33549781139923,2.8780633832458378,-3.139765336272246,-0.22644703286755208,2.532506736050432,2.6882625330710033,9.60855907420965,15.218401554040563,10.151953519356198,5.919009425638203,5.927414339705778,0.26658883099303843,-4.7823867454230315,-1.1299164181339574,1.2985845903185034,1.0459821707781565,7.759639227125799,14.013725788434195,10.618826881080654,7.408703636699034,7.751185563198904,3.799579637792224,1.8228316208988506,7.993885045227016,11.34178202357896,9.784898266302188,12.459651091234814,12.634285938793223,2.944249438014376,-5.0955898226809415,-7.568546970239485,-11.871267500723137,-11.307785399927779,-1.6096788439454044,2.991094505500823,-0.7278683507973014,-1.8155833304858897,-2.6346042827379925,-6.376457034314181,-2.7645032943980414,5.569925136735799,4.8482266707087085,0.11482963750977837,0.14364602429939877,-1.4706234325836767,-3.0854428826738385,3.3379490494967823,7.388424581509867,0.5771544991551671,-5.233503371563443,-6.406880968958603,-10.66897879455979,-11.480882370013575,-3.9168239586478313,-0.21505004452377813,-2.0181832715493027,0.634004829243807,2.28561876385557,-2.941257071097749,-4.646838698406522,-2.101800685483882,-4.997703757869781,-6.658387169150739,-0.21771575752641903,3.248339355111797,0.9880093785126426,1.6194408075128481,0.06943203046134994,-7.3707512787605385,-7.748027109503274,-0.7848448706087501,-0.23318664839900927,-2.1745519559743016,1.1607341268796463,1.058768166203274,-1.8710365653860874,3.1112073009353836,7.803522266281416,3.501168812473054,1.987309459570568,5.317982188603834,1.9819557372207774,-2.3810873870568443,-0.3732284898222413,-2.0906990095230373,-6.4933418588919185,-1.5868947007245822,5.229182129976828,6.124796908114192,12.684335766564995,27.01744055823861,40.37492467459946,60.59027243419531,93.87681616351414,126.87287607986258,155.1086559336615,183.75559822673972,201.11141859373708,197.60297955373053,184.0496622795446,164.37647946294035,133.3804933306646,101.50652289629204,77.76147301674241,52.43237581365669,24.148181769743495,1.980739292227348,-20.189856365499946,-47.92906116551956,-70.2166139212878,-85.56866315434773,-102.50693040933994,-114.86852024090146,-118.42266567252663,-124.55718457710178,-133.0008635276313,-133.95771151728718,-134.62586414041846,-141.96219819136144,-147.0146612467715,-149.92687523562466,-157.1243991205532,-157.57344453430895,-144.68921584398043,-131.69395634254408,-121.64957496621929,-108.39637335063233,-101.77309898961688,-106.88123455314576,-108.99441495739646,-104.75331414176884,-102.66013106655856,-96.32670644212408,-82.59217626026738,-75.13975333644802,-73.95090492441756,-67.1193417404064,-59.81674420374104,-57.800475450872895,-51.37730224420423,-41.7839848478706,-39.561466662870046,-38.19686409366285,-31.279878847685687,-27.53717408681136,-25.889739248851743,-17.79996313685467,-10.759122570305227,-10.932658403573342,-9.212194872637848,-5.901080924970793,-8.794218554249811,-8.999008698513856,0.3688639651624772,8.261704704675473,13.466171376798192,23.732386291160335,30.51771968659358,29.30181978936695,32.690956990384635,39.2777163432308,38.29091721742523,37.45047023932828,42.17433700560212,42.028896328993994,39.34919913892642,44.131953709699104,47.617320039414906,43.70254734739608,43.88530268607567,47.615198589009395,45.347150793244694,45.43085828193456,52.911000025981345,54.83631915005617,51.60085583855228,53.955660589631506,54.40836103574337,47.852571205381196,46.781897040514686,51.00439253035914,50.26420772201153,51.06327827393289,57.32571052000199,57.33236001373895,53.57082335968757,58.30949880568724,63.66602175365273,61.172647631184574,59.40043058626222,56.640998690610985,45.21963659215692,37.74706724101788,42.13863198932306,44.89078884416506,43.42799800536674,45.158598513554324,41.821199826371114,30.46344219742459,26.08866158674139,29.326804229350174,28.969969910120042,30.785719756285182,39.00041503953933,41.887456991836856,40.296068250648474,44.150099878251076,45.65285645230314,39.143130399245315,37.021833101393156,40.27079778005338,38.312938726118304,35.96925075937926,36.10805247115271,27.45244891831667,14.475268679230616,11.191305313399242,11.94892803693575,10.401895796336058,13.490347705949784,16.900856368816754,11.899786304231977,8.292431239416207,11.790954218143789,11.891666894768765,10.55745859131962,16.37942071277738,19.5664251339867,14.682936468501222,13.199124398821468,13.482619260763412,7.039098766888709,3.4780476929046253,6.789072849047577,4.476122805968041,-0.9863128419267706,