383.9402223446086,354.2343658584491,339.4244502946265,311.7785384255517,280.25274915835325,267.9206932108999,246.9366750603026,206.9569140523118,185.6584220542732,180.7785448673721,165.47634618934916,160.06686090007105,172.48414961984804,168.17629287408425,154.02173764791902,159.90944684702,164.42529630899327,154.57006724729663,160.22856307341215,172.44083475239063,161.5171167842341,152.4246709813709,161.93292116014862,157.24745890096915,137.680373421795,124.83702554102004,95.48215638079793,43.338763274036985,11.096011487603153,1.1528626612698039,-15.59326950800107,-24.67736171540657,-17.782382146737767,-25.209740733142215,-41.100377154212595,-38.52023376404756,-38.636990536128934,-56.44734271512121,-60.659064255657086,-46.740135578737835,-35.29538231435866,-9.224652113965904,37.610681831262106,67.74189082030514,77.29096485203642,88.33119513182677,78.2670763896325,30.206806852520767,-22.23020564758494,-64.06320787693583,-103.93946593945721,-119.08600364662666,-105.67649916007406,-110.05109385518028,-140.13851480897833,-158.75205975311684,-163.1891893629375,-160.56138204912025,-136.88663449123686,-119.04095801825682,-153.37843623037793,-220.97201092297266,-283.25950145631657,-344.17671398649156,-396.2360908854606,-419.47760774480184,-444.3943237937917,-492.2103729419807,-515.0282982523847,-484.6828931816767,-422.93152687297567,-329.04723403028333,-211.9953111694489,-129.706362826603,-97.23212561385596,-70.42327355072862,-40.70261227869327,-16.883659029775103,26.456143249554263,83.39071110762514,109.56961568632494,108.93984646284412,106.05948682888311,82.7900094117168,39.70016910241937,13.602716875995625,-2.4706419664212884,-32.42114031165718,-55.76023474365827,-68.19897697088504,-94.65361526593324,-116.16240312661449,-108.38537702649076,-101.40204066084627,-110.89910367455695,-114.17360514295427,-118.61479410317816,-137.04741499743844,-142.34455796898658,-131.69855392025642,-135.49825128767156,-140.6773079134677,-123.74659203851213,-110.29302177847083,-110.42296234841419,-99.48155645726854,-89.21971934826882,-97.96154971394468,-98.04361171244454,-83.25829805298753,-84.89458658965886,-92.95315077269738,-83.68027208918814,-80.66176050527704,-92.8305445357149,-92.99972471913034,-90.75920585938808,-105.01603852222709,-108.37129958240402,-94.63347140633026,-95.9090084856454,-103.64100484102639,-97.10321099520104,-99.02141407022889,-111.62671834479188,-106.36972416721815,-97.48007466416708,-104.90615519575374,-102.5061155080942,-87.64188916211614,-89.67320143053412,-94.14566236295894,-79.11135467293845,-68.17484835174469,-66.36242278194902,-50.319685589406774,-36.82454138728508,-45.557583996697275,-47.885633899785915,-35.74340710002787,-36.271293490451086,-39.04845387651366,-27.6610192189204,-29.470085096060714,-47.36695491314173,-49.32509773687442,-45.86472427249442,-56.21042389981855,-53.423099133585296,-33.45992298472054,-27.38054171976527,-24.753654320469757,-8.33337787147201,-5.876760616993698,-19.109981799724267,-13.46855492554998,-0.010412257103015854,-3.956707342330336,-3.860832695054721,6.337369613331381,1.752441127873146,-2.1362811805746547,14.781611969557108,21.517347020081374,7.639837192949399,3.6919676233046714,4.140673962625075,-6.301206648663308,-0.09227659446895409,24.592739964384112,30.671961134784766,24.041978738409618,25.837329142552278,16.03936851139234,-4.124342898562987,-2.3653620125403996,7.0805774429390755,-1.858469730452648,-5.238657695535668,5.756931827719149,3.750345800408967,-1.8834214339466395,7.342975653398041,5.2333424122114796,-12.118420827491494,-10.585128519639472,0.7888601278649396,-4.211600349474475,-7.017965876476526,-2.415906237982901,-14.832472128874368,-27.111066130449565,-14.735126883738143,-5.081542193422212,-10.957714011561006,-7.046564240524534,-1.0229785391115853,-10.37671448353781,-10.937399378833362,1.3827946351770164,-4.135013744753557,-16.274435655249963,-8.430033730277318,-0.05026948023523237,0.4977823540574444,14.924940612289861,26.472780795509266,13.186500513097641,5.386010386131409,16.619769984353333,20.18573610719314,21.592265730757525,34.66569392370984,33.35462646952581,16.267671240006692,17.853256745678163,29.23424421846131,24.737492835926485,23.16397112522289,31.740452751814267,26.95161630058857,22.662027197846033,39.769881817693054,49.20196467608237,39.180984232851806,39.05702657810197,42.66746229569454,30.55463491368763,27.615994152622363,41.06419555513466,40.95642186937424,36.08575609861951,48.224321089950564,53.32748104453272,43.11820738340865,44.92110978759118,49.038993304497836,35.22780401701739,28.45416585923527,36.942516844654506,33.44885940831713,27.224242474078846,37.671697479091605,39.27115069908187,24.567925522411066,24.057077134477748,31.839211160672786,28.727387002438675,36.91285699528501,56.98279104596871,52.3553124886298,33.02742927870068,31.05583170410611,30.83447496745748,23.683016772903798,31.534213857426003,37.62798393336021,18.224099831389402,5.542944247858782,17.240755544586285,24.515592165530613,29.274199159216618,46.05301565648728,47.40296363093404,28.50637190459592,24.18537139986421,27.767570019558953,15.995792903571166,10.692812825899868,19.468160037172066,16.512024834823578,13.612126677935915,30.403864832547917,37.76698773557878,24.784106617041456,21.874421150760064,23.447267502587014,9.073963427925896,2.682339660856719,12.39118961160498,9.717149173634507,3.8241453388343722,15.835308417894122,20.155142337054215,7.770016787831338,8.928920873845184,17.128127343497205,10.204862916880458,8.905386373058121,18.924138101484154,11.833438618529966,-1.7200994950930455,2.331855584438902,2.9124258760765125,-7.04329611575354,-2.0776958219957473,4.535046152162501,-9.975645288079104,-19.180127604140274,-9.83827366524945,-6.2042086438985455,-2.0194560918961986,16.609263445692132,20.769840705144915,2.479707704778126,-5.268234682610483,-4.732064881083586,-14.14288632266912,-12.264676277378648,3.581791005283801,1.7471353670981609,-8.646270511929709,-3.163292647542905,-1.186141955109116,-9.789672196113372,-4.643252298992941,1.8316543734865987,-21.6204925234534,-68.46272308392956,-114.59809335972349,-145.19599224777915,-152.82713016119413,-133.8307114890175,-101.06292024850755,-90.83682060570521,-108.95333489075034,-111.35196728437768,-88.2855628698866,-75.96199850071906,-72.65244182799879,-57.541010380464535,-47.702468550792965,-44.45637725879736,-22.124048509251672,-2.0923092588483936,-13.993561719186221,-25.736040055949267,-14.91385720880266,-8.068304864720908,-6.2827716985125255,5.259208215042529,3.97599514045501,-14.449933509809211,-17.150073176376758,-9.12197992769359,-11.755203851019642,-4.387204413786593,17.71058625720805,24.164156382748487,22.316128314565173,33.41171810118159,36.78867401191413,29.03824423795225,41.02851047294759,61.50339898101995,61.98281815289268,62.091263762576695,73.13745516707924,70.68772425971181,64.20438599567001,75.40100987861581,78.32579629871748,61.32523256404896,55.664551733364036,57.60319542773327,43.2810071057544,33.42256030712852,39.889230625030535,37.13761796538128,32.43603502747823,47.41887641046841,56.79579860020285,46.52612920293336,45.0908339849967,50.25003101399815,42.07519652237,41.71910931760142,55.87424544285493,54.25194305900045,44.93201575767709,52.57819016116625,54.7145694740135,39.72140263546261,34.27291265905655,32.43837488824904,16.03765949418488,10.690841443814868,24.670029947589825,27.152059578760422,23.146525650195613,32.213605615109344,30.918234677268266,12.71026829725605,9.748632035866768,17.36669121790764,13.087067837356013,14.762247323251616,26.192246697116015,20.21866601138335,10.348262349339354,21.637453056424466,28.605761256261033,17.732955127649166,15.597535182594843,21.19202599536821,26.409020158383534,57.9688446001939,110.52871999204845,138.16508602558505,137.4358247296242,130.73685556595143,110.04293528228257,81.49770016751818,75.48466491987249,78.05338211400317,62.579320056925496,53.406710703538856,61.543554837905454,54.97067439936708,36.68971113776257,29.9638728704535,17.223455156927983,-5.260493209032819,-7.004703232159546,0.3620003531792473,-11.461958855135721,-19.4578015414457,-9.513071132675147,-8.936248791478546,-15.52750349247612,-12.111320017014972,-20.042506590495986,-42.6526903168409,-46.28687772281976,-36.991719613334865,-40.94479175404317,-40.40327401605331,-27.520994512531715,-30.126102273951975,-40.49134817521742,-35.6151462103923,-37.255983358432964,-53.65384541369471,-55.52077124770218,-50.74114236316717,-63.25748088823179,-70.46311658407838,-61.855163164549545,-65.82704049805385,-74.64420756722372,-64.07731522862376,-57.236097236384325,-66.57945269610619,-65.38555086844653,-60.036786938513984,-71.3625888573907,-74.45952943093101,-57.98764384936969,-52.99569464730334,-56.710167915607116,-46.12348993635955,-42.34846630563341,-57.34808183676258,-63.37215362073151,-63.866755750618694,-78.52372462711148,-83.48318773743969,-67.18110137687664,-59.41645043606975,-58.683935183632805,-44.84275043257725,-40.03470674174609,-55.06640196477856,-59.5442106542028,-54.74773747209956,-62.13037613067017,-62.68837842751084,-47.49510882276843,-43.88753224352974,-45.50320963090245,-29.740038597771544,-20.700426393084122,-33.61218628944407,-41.148678245734395,-43.89235603239886,-59.000574661944846,-62.38368399712563,-43.73079288986933,-34.202849990652766,-33.31153718804365,-21.381594540284844,-19.417660530827384,-36.23799446876337,-40.549265370281915,-34.69407410511075,-41.812843086672174,-42.09071333612776,-25.351508576566154,-21.02695029453131,-25.188857593072584,-15.687298081354392,-15.378821940314367,-34.87708158878738,-41.95602511357806,-38.63806878872572,-47.47614453433729,-46.496050654757845,-25.80267608651567,-18.061501658224238,-21.300398104882014,-11.432226557041876,-7.224626743110338,-18.420800304704482,-15.66141154844587,-4.06442746896675,-9.89356715456249,-13.18650852567179,-0.7351098887538043,-0.5462040143662765,-8.70251635055595,-1.4620233252340182,1.6630179381344827,-8.407491554278437,-3.1808295059795793,8.964982803282336,1.076034061725288,-5.5340470256387695,4.488244294578282,7.463338962513045,9.838429619901117,32.78024684465179,51.434178363297335,54.249567431968956,73.8857109219364,107.32616675805599,126.16213511536306,144.8829206928703,173.36606961434921,184.88451887360594,183.63885453231052,191.90761559772426,187.3789323758237,156.6409306130938,132.632611439535,120.87093084820984,100.83287009193154,88.07881226129092,88.31397565470543,69.36563029925532,35.37655527027541,14.279831216785226,-9.043578145100742,-41.97649304011208,-54.64559277986064,-55.12957870428777,-73.51441161046573,-92.50237520936679,-99.70797095644612,-118.97154261322542,-139.650180733694,-136.66134265400035,-136.21858347765837,-155.35054106725522,-165.0484822403925,-165.47341939107255,-178.078109742246,-182.55154198283316,-167.52687846225973,-161.41162315065478,-160.0400865077972,-139.44329939335387,-122.41893571766083,-126.14815430163155,-123.51264160757066,-112.79030122093445,-113.24947965601856,-105.68129731088851,-81.62917243320915,-72.7567260792294,-75.47884007062136,-60.73300562128935,-44.52506476583665,-42.05968279737393,-31.020194021546843,-18.841389982936867,-29.835593805303017,-39.29546189640507,-29.017273717189546,-26.28585175358893,-30.598177371694664,-18.932458048408883,-9.509889945723888,-13.303323993279369,-1.4739477687794054,21.537659251449234,27.53107207007033,33.21402648133141,52.931984037971716,61.648851492971225,62.499754975734405,78.26474080708536,87.63933166973787,76.23630578614194,73.6291954297403,80.31985810376105,73.18453646943698,71.32192719580507,86.7870883152558,89.10829778387337,79.42761263867745,83.55700128561818,84.22060292109272,70.35711082306898,72.10458720909499,85.99361728055149,84.1572000010827,83.45262603312908,95.7378053701294,94.32973865805448,86.49091941341743,98.95795478304778,110.07949445023499,103.20696122203164,103.03807063848906,106.2624635014101,92.78702754566355,86.12625834358194,98.23716683877794,98.62928446602194,90.58598388643941,99.43539021231341,104.31976626838643,90.23787438743916,84.60746510397854,85.93994354330044,73.46042460947584,69.24940158857517,82.9963335344454,80.73497415561779,64.89952342077568,65.45733021131878,67.79219675764946,58.53547096462533,61.78734487479916,71.2787998955806,61.752468694358384,54.287440576488706,64.10119634309285,63.619663672027826,54.89728382574039,62.02397603661042,63.86162338702469,44.12651430115265,31.013860836358276,26.54051868176728,11.340880464025853,7.055285807045077,24.191720564084505,28.383240974554994,18.930419359768386,22.67740491097204,23.5785786323746,9.51216965877114,8.217232245800332,16.659000943414245,9.755054799600051,5.825729837137407,17.682311004488543,17.639248208281828,8.594420648511498,16.401784500440343,22.40968496120324,10.420010040578479,6.283216757526636,9.4859168920612,-2.844435983736034,-12.240035971800003,-6.770986183399756,-15.266841654054442,-32.86662731756951,-29.202466871348932,-20.75284919707881,-24.828035473449916,-18.734475424476052,-6.65833766102736,-13.054562576347397,-17.855201236739074,-5.889668018252068,-5.187621596026677,-14.840844212815151,-9.375829197728315,-5.956605787650142,-18.388396960968894,-20.577805238810775,-14.94691795784675,-24.57401073578344,-30.253357738268164,-18.89333892223827,-18.06628204429269,-26.764807014460267,-21.661585341005846,-20.97663626946097,-36.646545849706555,-38.31928110424491,-26.8650134281052,-29.32900697449319,-29.598951508624715,-14.748222352583863,-12.801644015731014,-21.343804482877275,-14.137929291918159,-10.183392057298118,-25.258783601592597,-30.62474112244061,-25.453790864911166,-35.09416537334537,-43.40583542443892,-37.55851932240761,-43.9521470941434,-56.94472280774904,-47.85689417917963,-35.99176404797521,-40.8657283003285,-40.22933807589315,-36.409090117860096,-49.61311519232462,-55.640504340926356,-39.0926052881497,-31.32414856571488,-34.60160226016,-25.09736480359674,-20.46373126042372,-32.737232902877906,-32.65159725621385,-23.124314362386258,-31.246135207047868,-37.441162864951814,-24.781221544871773,-21.27030182740702,-28.222254633322763,-22.267006062509722,-21.93764182698071,-40.80236691317597,-47.96447308804521,-41.43650433342728,-47.8027871992846,-52.200863988867596,-39.87415112372969,-37.18700398052669,-44.10096811735029,-35.47431951712003,-28.21037224676237,-37.88843971097471,-37.061962285574495,-25.424240426711528,-29.59986778236584,-32.724202433982576,-17.747862944090436,-10.908293695634091,-13.562496848444168,-3.594994909662894,-0.7932433810967908,-19.114031164534502,-26.0750561271307,-17.642517040095285,-20.670126343696655,-23.28783381604334,-14.41606032409032,-20.174349763730582,-35.132370667700265,-29.721047991236325,-20.67584683222816,-25.669365381761875,-21.01262342309792,-9.545838931466303,-17.022970433287057,-24.204600965690183,-12.817908349931914,-6.911048169989609,-5.209568287839986,13.879091996758929,26.300350155786084,13.095842093860899,4.384483141942848,6.326652530846124,-2.1273161466113226,-3.7236478450227537,13.361634472574107,18.504006760795253,11.203420045829198,17.6193685007556,20.220484266918326,2.2016414601221452,-9.179719294113282,-10.243598261027042,-21.70493869938302,-24.977215211976834,-7.538297689554242,-1.6131904676285214,-10.273502795026351,-6.111827587482429,-1.4299833128159987,-8.543222285567902,-0.7801951689100006,17.895074299325643,16.96639362636947,12.076195046303951,21.245763275814472,19.26452071172684,6.5429362025037,11.121913281859294,18.604890111625913,12.199467440659438,16.126745202616572,27.283030426800686,16.304374179076003,0.7932371393361097,2.6104201003948933,-0.8278262735413535,-10.097109413720418,-1.125741584415688,7.414264745248283,-2.2484921440090853,-3.3616184596871768,5.1099245893364635,-1.4511397435700992,-4.444433444723291,11.675003748245727,16.129011269721087,4.78018917846835,3.972495481077301,2.428340956137446,-10.789645990980352,-9.570622028603108,0.5407830919806296,-11.088781910989606,-25.175797214226083,-17.743862966845022,-11.305008961972074,-9.062805451754416,9.283955746433591,22.653436412988466,13.570689004459757,11.722188365904982,20.10897403774357,11.19075519892005,0.9017797519752091,8.098689352305577,6.104470151241601,-7.508239322192715,-4.154431772225143,4.01700844232895,0.16658767034455524,7.678325337455309,24.081674215605407,20.34469532965233,12.80507537682086,21.548766744022434,21.678849996071616,10.273563049147189,12.021306538670167,11.898828986937758,-5.058440511717052,-10.7305027648082,-3.425403301954746,-10.374210680735445,-15.789272694920061,-1.0705345134566135,7.52458499154135,6.179430413379286,18.255471076316965,24.90420937302807,7.032964293693729,-5.309405196803107,-2.9137565160835734,-7.624764873486011,-5.307772374025466,15.805953528854868,24.62564028524539,17.984672792618056,21.61033126118906,21.230099838953084,6.015006405866872,7.65115577729646,26.125497944050043,30.74132894091412,32.066411899974355,44.447945147236176,46.39709482877989,41.62941498757385,53.27351026781154,58.83445442826713,39.839350613225974,30.59944991116851,44.31003118803273,58.41098185081244,80.98598248084933,119.39326530661467,142.55621855187292,148.84065592829046,167.84799262907686,186.88518413454725,185.56830414192896,184.18910501356154,183.57437653397346,161.25873963450667,137.95006793717272,135.57045211145004,126.98450914962096,103.96574718923523,89.46895901071947,73.53814699517733,45.76792154550385,30.378981334862353,22.66432066444224,-6.594014333036091,-40.429180417279774,-54.40244334094273,-67.35969479345123,-83.7649059244716,-86.57518735580696,-95.2917828645688,-124.5639445243356,-144.6438843728636,-151.29823074701247,-170.29684342535108,-188.5317630370245,-189.99891257510944,-199.22815871645454,-215.25976063230422,-209.4005310674906,-198.33256731663818,-203.36424355966184,-199.59696754811046,-184.5183694629321,-184.1206751954936,-182.5865747150462,-163.91207664308763,-157.74050290879887,-166.6805111077556,-160.9820879926063,-153.09302346075776,-159.28571022948734,-151.61613321455562,-128.18114115721966,-119.20122029522116,-112.99119463387213,-93.06916176526641,-85.85221040426353,-92.17973037371782,-81.84580510363925,-68.05402706387716,-69.59695268851097,-60.486559418544125,-38.98402607131945,-35.37463198649866,-37.00501266151963,-23.377664762170703,-17.75249131342229,-22.734942196394037,-12.43876628073471,-3.477334761154151,-14.511422424703632,-14.204641976014933,5.549222800098297,15.921090519918673,25.200183762948814,46.21529083847028,50.833445547581505,39.25464944224859,43.63455116478816,50.805694991631064,41.204719655687946,42.540485821463065,61.48996584941684,71.62146774890604,82.707800632968,106.16640913545453,110.80589274991293,94.60027832642783,93.68769409921399,101.64237796039234,96.47560458130243,95.79435101404917,99.66438313290683,82.80738221149527,64.43819513836459,69.616744301244,72.9853613319073,64.49155487982469,67.65082167688442,71.2030418273132,59.26838245562175,59.91800863152231,78.6547281232162,87.04458816135923,94.31398591108879,113.30998585141752,113.56568749051267,91.36775237535834,79.43036217248383,72.48011473811731,57.58461945252303,58.98954004002862,73.56093998833319,68.75527774564713,58.20896968476078,65.10269607722378,67.23887570627707,59.83174764222473,67.22063466622862,73.68620460408599,59.46422520212918,52.57425082510865,60.25215076952438,55.89250997976966,53.014793009214515,70.4685529497172,78.68689269242148,68.35442364805692,66.3503620055501,63.15765599798201,42.20981340029172,30.993237543024968,35.41577514483359,25.69556597273943,13.250947397502895,20.509919854766643,22.642570722211893,12.479409560240272,16.97417221600921,24.45963223025222,15.729253828460202,15.073234832419347,25.720022140327814,19.789950680488573,10.668509723093107,18.75517081610685,19.575380313009532,8.95410622193161,14.177512167216513,22.999333226587527,16.165168763030465,16.182160055245788,23.991410365532275,12.054670113164505,-3.6199727783560824,0.900336216678638,3.7729184709744272,-0.7421198081471472,9.8343803905194,18.475365257033868,3.3795073268706783,-7.93696397399338,-3.0940713465477607,-4.827066434096116,-4.377073005855168,11.043402540607397,12.04368656649401,-6.1111002393268565,-10.511327610513828,-7.7334211528195596,-18.408582270556128,-21.941642291755496,-14.063174183159546,-20.561360601525937,-28.35943286209777,-16.613436607287262,-10.090496485378182,-16.146614104177797,-9.033163889341028,-1.0453940625905438,-12.228817172217376,-16.80245552582337,-7.662595301229722,-11.805791143910252,-18.43792130749403,-8.487965264202247,-5.704660138066107,-14.373606222610068,-8.443661268781327,-3.0274346808180073,-20.618024060760526,-35.38485028499977,-37.12405982857089,-48.50925750046613,-56.226779366108374,-42.89279330406066,-38.39028860755835,-51.87060906147027,-54.47141782330229,-52.93198666048598,-63.9813879766459,-63.711510095090105,-49.052784562094956,-49.957818056984905,-56.176520502207744,-45.436061045388485,-39.15854042743118,-44.22134590915387,-35.717080396358185,-25.24076499708079,-33.93241302332949,-38.814873697556024,-32.57907188883242,-40.242429165081,-50.166048078851844,-42.309964552335195,-40.65607669143729,-52.43629820151031,-51.32948625621759,-46.94281074085599,-59.39233791325999,-65.72734157717332,-57.15005296409548,-56.9403602239799,-54.987680729022635,-34.54833472852809,-23.610379403315598,-32.912489690622245,-34.360683052169115,-31.649013915877568,-41.136856174516794,-40.657165996322675,-25.84999907478047,-24.495052730128855,-25.88000401676433,-8.939609390069624,0.5090173342043196,-8.847302934105898,-10.657192358876596,-10.984033202615516,-25.650305155239636,-28.0383813226099,-12.160583916106802,-10.044410296812575,-15.230694402437717,-6.923886610701081,-6.890599064663958,-20.62844314648464,-20.551346278239834,-16.078470003520202,-26.723437051305833,-29.84036811154366,-20.267935929583647,-25.010975108225292,-33.575313045311994,-25.63070616261618,-23.43605963609418,-31.691660373699378,-23.33781194714244,-9.387102033052816,-9.47223326731148,-0.8588249788902598,19.53891888207637,22.267325194719895,16.981013418374516,25.11783745302051,25.862370851727665,13.877276795163677,15.515404932043038,20.039988221731456,7.538004206807853,3.0787504605703626,14.49849483588819,13.65820344640374,7.863657030157208,15.440742674983046,13.792883356818825,-1.4215002292284389,-1.758559339246169,3.2737969781508878,-6.6347727147447015,-8.700040642832203,2.4112937973108783,-1.3741976771500295,-9.640863937977194,-1.600146379072151,-0.37923460852078705,-11.378214545619525,-7.71284779504803,-2.312876257324825,-16.174071421377384,-21.569801985123288,-8.173897066228212,-4.326576069300763,-3.0497585508158016,13.160213610526606,17.39006239219929,2.8213626140560777,2.509412755257345,11.146044397467447,6.875223423301611,11.379743886011482,31.0395559048963,35.08382147559997,29.473155066227303,35.53597991988735,32.46464677795606,15.569328972352707,15.848191657307485,24.751854092958506,16.991092485103888,11.848041681343258,17.52499706719217,10.32626404340702,2.613704751362229,15.238376655916712,22.383256037993256,14.18750026960861,18.642010337570916,29.65140191670008,26.127236806206824,26.321340279561955,35.5559473181064,29.539840149989992,21.01787994392773,32.16634226301879,37.429933675007554,25.086034170198655,21.634973069850645,21.085735417042574,6.898417669009513,4.328214081644654,18.66766888157774,18.889831958175538,12.939497689210082,22.2053388658574,22.983909025414448,7.729255600759487,7.200787181418299,14.557339275176716,5.947382184839863,1.5038237866528252,9.161825234216433,2.893143967019523,-6.069777332254287,5.543679537423221,13.480317168148357,5.689989793066166,6.978693921974436,9.94843940004735,-3.1718071806302595,-7.336149257560265,5.456474788998477,6.930060635118112,3.7477886894535795,14.554926841202034,15.9518040088947,1.2882154028075075,-0.14303942642816292,3.9453801618653266,-9.11725606473259,-16.325694323045084,-6.188627412498899,-5.987250291458203,-10.491004040389031,0.21090268163032544,2.458999137585132,-12.09588374368931,-11.526361671987921,-0.7105663152947495,-4.600525925546997,-4.541362458374066,8.351850598241384,7.5389423690063335,1.3021384533911529,11.507985387820847,14.628712042309683,2.1280828108700467,4.796601548350132,15.797932950574436,9.76967555872965,5.675998638770533,12.019918523589515,4.300841405918373,-4.557538848181682,8.058805696469559,13.1459022637763,-4.705713525383463,-17.427693032617846,-25.658368035004692,-41.94077318567271,-39.58247921881487,-14.477393815711865,-3.3762387969570855,-5.007981328788665,1.62706409407817,-0.914860318105009,-14.76661891242718,-9.470910182487543,5.337603671320689,2.9412132064065832,1.2440507098953115,9.900025014393536,5.695007912531359,-0.930095656155328,12.212210580819187,20.619168850780063,11.955949483897303,13.335730540939533,17.98007146356298,2.635479907242563,-9.94522579381406,-5.912239580726779,-9.436785996080397,-13.90815798643944,0.5731852637289574,9.806051389693696,3.4533962495546735,10.714765589443843,24.604209760419916,18.304431460543217,11.978102143813464,21.873054063108288,28.482251487882177,41.30064701774366,79.18653078080679,113.59121684270228,130.11090746245748,155.9706891138034,183.25501045260376,184.15324707334548,177.92314453061607,179.88038472534896,168.71488727902093,152.3532284653034,148.9113312948262,129.35471895632222,83.30800341078715,49.314170029070944,32.48228590776478,11.241731749731988,-2.565724868229589,-9.051731061124313,-37.39965357387887,-75.00425801399214,-90.63628320799262,-101.41502121529335,-121.49592245197826,-129.34219885001102,-132.6825463274548,-153.05297285852157,-166.25706532251687,-158.9043890249045,-159.94854360698866,-166.21362487592404,-155.24313829999662,-148.4886389196014,-156.28577376626822,-149.67371179489288,-135.695581442387,-140.0764814561771,-140.7587706958553,-123.63227746300413,-115.42194550984591,-112.4542412246498,-95.068616608695,-87.26784137915445,-99.19522343451426,-99.12171197768473,-90.15440301312444,-96.145065424566,-96.86955194503543,-80.80275636857861,-74.76855526877092,-72.61905352719566,-51.522387976529494,-35.302841555381114,-38.16270347782836,-32.336942080398615,-21.440661675104447,-27.13525437226475,-26.42695037122759,-8.191813748549741,-3.9313388154825586,-10.419605014044489,-1.934952624399307,3.880411757330592,-1.5600557028583855,9.07637129156521,25.07340241540208,19.287983267182693,14.730886916487645,25.734810047908145,25.55241945744323,19.436982604887824,30.34253059913309,37.08898621147606,29.49461194562071,36.71916986086068,51.44604760276285,46.296764743222454,42.70432256722122,55.77748522411608,58.48242390304508,53.910878411361175,63.70092341890805,65.29630034525134,47.35747371362673,42.52915434087057,51.022675255156436,48.98466233551259,52.81607566098487,68.90571494237679,65.4208472991706,48.164997876430036,47.115769667803356,47.93888106880872,40.36687496745522,48.554814717076006,63.025473772318364,57.750635887122016,52.90494778332279,61.008530078501366,55.76304591716095,42.543026941228504,45.85937050637954,47.17564857625413,34.82098918618078,34.385114135179876,40.191668684798074,28.414917240531857,19.734271677511032,29.092865947234817,32.28037585880475,32.35719490469782,48.4061025994886,55.94140389961935,40.894478886098995,34.23156063820382,38.082932499723086,30.53637713092182,28.520484542240542,40.16661254691546,36.395232562103786,24.281529152160633,31.76116079847061,39.07545343948589,31.022308758475944,32.54725575257278,38.16967488971057,24.137319299016955,13.790981555495394,22.877714284656484,22.970250645831424,15.799208411945312,24.694473820600855,28.211694290228735,12.521866289212886,7.073561019015188,9.600944545810739,-3.7187197952388225,-9.521885366104517,7.952475052153047,16.979316888305764,13.702756515360814,18.963242955414763,15.061090119991905,-4.879456248221769,-7.132598275530967,4.961342155238986,1.6026573862800664,-1.3938360247875117,10.366772394972285,12.291588025055312,7.279008946213615,16.02509532616683,16.544054655072344,-2.9604382065014194,-9.892684446527324,-2.1858478599549027,-4.995644797063868,-4.228893870040284,9.572695122281258,7.680726386955389,-5.652710614966853,-2.414704496735571,0.35684445098557344,-11.095813002538312,-9.617864340880637,1.5191764346103147,-4.532272067756516,-10.604653484348791,-2.6390600276378113,-6.475928763581788,-18.195251496165508,-12.227767694316363,-8.169271715785138,-21.780984445881327,-25.75064644710912,-20.22421889583686,-28.64852719885139,-32.960345442269656,-21.16086574861639,-22.050646970789593,-32.43156058625142,-24.748060814450007,-16.754691542437122,-25.00117064465519,-24.82711253091488,-18.251628122263213,-28.136846698334605,-33.99564284842435,-21.60319221844926,-19.207045446046163,-25.121546155555315,-14.53047152586247,-6.996008181347143,-18.905941326037542,-24.256051263630553,-22.494040472128994,-33.35083323330694,-35.04832665972179,-14.934846243098875,-5.3474128774837,-9.017206041750258,-1.9998418217814469,-0.43520915156525647,-15.659290726195902,-18.48498904052703,-11.006718551566099,-20.029021012754693,-26.976621323945245,-15.121206159213223,-10.786088621734809,-13.921276931202689,-2.3831602037591706,2.9256533468281685,-12.964125623049666,-20.162254762865775,-15.789580583744291,-22.350827581206193,-23.230468884072856,-7.191128580386774,-4.3671199563154435,-15.678544866310506,-14.612783281677967,-13.409594702513633,-22.93797271310109,-17.87186567647125,-3.6323149537372945,-8.410250802577865,-14.756772853518768,-5.637966454392825,-5.24892793221605,-12.557812066105923,-5.421198672256393,-3.15586679274328,-19.40854444811386,-25.18640570172825,-18.759345827696766,-22.31226990005245,-18.411494793277026,3.0106277447391756,9.335194914851193,-1.0602996878367303,-0.8558947183689596,-1.6806741740321218,-14.103607564471435,-12.863646874584102,-3.3211087662444294,-12.714649749473669,-22.017085018917406,-12.812616346794513,-10.086017962727054,-14.864219146318309,-4.602563380893214,2.4087497597432272,-8.579047608767198,-9.595927489051006,0.17714959421957666,-3.865177850618116,-5.123931878745626,9.815016834424082,12.148204363976708,1.1989310339752377,3.322127274357843,4.363620737704769,-9.074268361775333,-11.233555049850818,-3.9345928127096124,-11.710933235997041,-15.409658998499804,1.1419856676381182,8.910658175879075,3.5876123128584,8.064390050420378,7.25723312410172,-9.581899976174022,-12.256893627317481,-2.5211962146375426,-9.092996011511085,-14.871577134771519,-2.3909518710946918,1.922401198516444,-3.906656125216615,3.4290012772332155,7.464219398755505,-5.475991011490721,-7.169378296404105,2.4942802311073895,-3.6807672244658667,-9.228073755509156,3.603916078766419,7.865271852274406,-0.05477649102407289,3.2736855425301705,2.8045912459697235,-13.29754153045355,-15.638944821908751,-5.539744174780225,-12.615621851511243,-21.266716712521166,-12.465849741088814,-9.607952769122699,-12.824895376624884,0.7086601469898088,10.474813410628395,-0.5852036331302495,-2.611527436926945,7.2791000616317305,2.508720009913841,-1.3762831562201743,11.581816029803807,14.66272929008282,8.093811080340778,17.62131331802598,24.20350746918939,10.532409125925724,5.835145759492879,12.538251704618903,4.622529566946339,-1.1095970496792356,11.612849195466547,14.395366279787439,4.224802638524759,6.262486338699779,6.3866458877435575,-8.047789548942587,-7.653758229367774,7.687844551216823,6.964242498864737,1.9945279342324573,11.20904039434392,12.67765881455717,5.275898515266375,11.563487287570732,14.790991326422562,0.6315725881288969,-1.2953357200432518,11.84947375452272,11.127946235773628,7.467016612018433,15.938780202734668,12.173031148910523,-2.07047272626553,0.4266111801242114,3.586019756896933,-8.250282168551646,-7.583616557194869,5.613816954710266,3.343867447239584,0.5752828701790285,14.238068684475008,18.32083291148545,10.428572712245241,14.263164429189338,13.848237099972739,-3.293303551946379,-4.7574888962025685,12.327442816906078,16.66332348663834,16.51092677697425,24.88903401025635,18.49566699228452,3.3274524718367458,9.977250926123842,20.29985617972444,10.960647591959948,4.9970351526649015,6.822408537568171,-4.369456059507663,-7.792616906478154,14.920605960228212,29.52579857119713,24.486536258569515,26.328483961067203,26.411153798014386,12.901710445440301,16.095095254795275,38.23871812168476,48.144643002670605,58.58785613832538,90.06596730761753,117.38132619782036,133.71320022485534,160.06670590101368,179.3701211318267,175.23346967884243,175.00259412295406,180.64325114271688,165.6133979875688,145.65136563912307,139.85452501522283,123.61117472697629,94.85259599696363,81.13878959026039,69.98888211629263,44.83722301327023,32.2177552756909,32.4747019067309,12.375724500878665,-15.97698347697674,-29.63631232036613,-51.05578294862051,-83.04562601916652,-97.35066284731398,-107.20455990925632,-132.3497385664712,-148.42956447221877,-152.86670482678346,-171.46950612986274,-187.42129578755743,-180.2088478331944,-175.719176889302,-181.27066586046757,-175.86315457049312,-174.99360059968433,-193.09403362133543,-199.53822718395872,-188.61334493801823,-187.5856821699341,-184.93774919098925,-164.6283922727442,-153.04495293332525,-153.25594930919397,-138.14930711050482,-122.85028627985588,-128.51018583948232,-129.99630140956103,-120.59400568099917,-123.51543279994802,-124.56629822283807,-107.1834468147891,-98.56457079448477,-102.6377872476387,-91.62119768081487,-78.14296420084051,-81.7252895563311,-79.02874613146524,-66.0265995319242,-65.6561878978421,-61.51376375520634,-35.7192411778165,-15.697395665754081,-7.162594237256434,14.767680860094785,34.34719908838011,30.32926647533334,28.229148310811162,35.52753890170614,29.381886843931685,25.31970108650747,40.638092190128255,46.07736528041587,36.874034966727834,42.63917707493833,51.70608885877304,44.766561363039614,45.88763512279185,58.02224510226837,54.58697152322738,50.12765524610548,64.28161016605546,71.07806901791852,64.77830994737083,71.71922118171199,79.98104422795845,72.3212695751149,76.0565924690419,96.3432689641323,103.29744339132984,104.93189297589664,117.03488670683788,114.64068892716688,96.60793942191391,93.09222280869606,92.12143674182741,74.56324612993711,66.23596713925808,72.73332362392877,68.57774606735886,66.42211671967048,80.92772772889066,82.76180405342268,69.53790302930952,73.31331365131315,83.37732835434328,79.24595131674744,82.58334330768457,94.46457662842647,88.34261281803094,79.94136978970802,88.44168960450014,85.88714811998162,66.44549426714468,60.19177652943142,59.91694636563558,48.66816472375117,49.287737740107154,63.14837522445326,60.37960804525075,52.09938995480266,58.43291570021674,55.16837700179324,37.13286420072569,33.194180969944206,35.09901118952384,25.553879595012145,28.481218105697177,45.66850726814212,45.86347092549473,39.673298443099114,58.72115532094983,106.86418813929131,186.86287956467382,292.5095488975203,371.4201411859573,375.83756491988464,328.86406712123767,277.8786074108798,240.3780896826331,228.2721494779113,234.51425978936686,218.86892194547906,180.3185793094942,159.51847588496784,153.07539355023755,136.70542445269626,124.88688015922871,118.71227206191988,94.0708479535881,67.8009550856271,60.503195967723215,44.1782868670256,12.972902012321258,-2.045657852338279,-11.59098675662364,-37.81251654228974,-54.53328494287231,-51.625908594696924,-56.61935331318628,-63.29371142397884,-57.07711306425768,-64.71383255041636,-88.76009418038889,-95.3294915146474,-93.29139420323345,-106.84738232196307,-115.97512628404137,-114.30284150728849,-125.56514262483925,-135.31339867887996,-123.41127969265122,-118.82049245568527,-132.22888276093335,-135.4788264800547,-135.53492192751216,-150.4084649062237,-156.5484221692142,-149.59891357400875,-158.30804526593846,-171.87239751315659,-168.27117125085746,-169.08503807671835,-179.92106005261638,-175.14747431640535,-167.07397982320737,-176.37007060142292,-178.42052194639285,-165.6192322574821,-164.98579518401243,-167.4432699856714,-154.10957764875013,-149.34130512243027,-159.2981582028503,-154.68876401967708,-144.30773469107402,-150.64118130163746,-152.77931029616616,-143.6563589659671,-147.9101721902045,-152.94655192593424,-137.2924610675609,-126.20160743161253,-130.53826545739093,-126.30899673045676,-122.80332483340976,-137.7669448221858,-146.16865875402485,-139.7161168131572,-143.48869200678888,-147.44698644393,-132.74143192804547,-123.84129517132857,-128.5279845363337,-120.35466009350021,-108.42490127457658,-112.57104971836355,-109.63503042749844,-92.99240720764601,-90.69960055994927,-92.65885882205515,-76.28182877659206,-65.14028039304013,-68.28092865521393,-59.653352395943315,-50.22321124306632,-60.55323892487869,-63.1102096487247,-47.28067101409272,-42.7560581270136,-43.779371546953236,-30.618727598927734,-27.171627424329632,-41.237761389954564,-43.63444978026886,-41.3585498345602,-55.15681477974332,-61.51652085204716,-50.50633745484785,-48.28078172233754,-46.659535915373716,-25.064400113251253,-7.61170544555568,-5.305355412791293,7.005376952008486,20.293131479893724,13.418822832795176,11.112596313650283,24.485282982589965,26.82174359959187,25.425143732966223,38.63161431774992,39.383057599720715,19.388079418798664,11.56826477984513,12.32336662442279,1.9325870379247094,3.1514802836973943,21.479614841803752,25.410654720011244,22.27622422327283,34.30575617798809,38.6574239386609,27.516756043221996,30.189823296477954,38.537429778758096,30.377425276582613,29.636097343828517,45.96928957522443,50.767591132110724,50.15227182682291,64.4281511940182,69.88792434082312,57.54383691827279,56.750481461187356,61.008118120079125,48.97054842977492,44.86225137118586,58.761685316238456,61.42314073383672,58.000533079188855,68.53313208015506,70.00017600381223,54.698420229838625,53.12216296639815,60.38997933408758,55.130281880149866,58.3498292638738,77.61161944643287,83.02788498615017,79.80440954900585,89.90346735512762,92.43840069089389,79.76654235596742,81.27825204819887,90.04968353324865,82.81477649376595,79.91806439659237,88.35647000835196,80.01606613174013,65.47633102919897,70.49668822891817,74.09936116954212,66.16599794383423,71.50554312917885,79.37935608736393,67.14787923241494,59.65277883306069,68.49366388980249,56.045436917068386,1.5706775988942425,-84.13493581851556,-191.40280728406384,-284.1956189918921,-301.30405812097354,-246.51858328732368,-187.43611156180847,-154.37115008352188,-141.17375225927503,-143.65302618018598,-133.5220997407482,-93.6606926989677,-63.989562861629054,-65.4850866298645,-64.87049057756967,-53.60656916571245,-47.079936714947124,-30.82187797418206,-4.032654513394018,5.189752097410707,7.747869431616923,27.709671373153945,41.62083649445347,37.811403805641774,44.24710031260082,56.17153493878685,52.609880073761374,56.154631900838126,77.7605477497224,88.73998606681101,90.86820254145647,102.94962315600813,105.49454264261749,93.15481368258745,96.04616256496443,108.23887608135196,106.82076046879847,112.02190678675765,132.145962143582,137.90615965500942,133.92879767189584,141.97301094603887,142.65281396752988,128.76548511065442,128.03601075437436,134.0893277154668,126.39086741541308,126.70517518628576,142.75922371176253,144.59076852929212,137.3521582128953,145.34327719648542,150.64829913779266,143.21414860720762,146.82881302492274,152.28371855227454,137.79177066683206,129.0143707778925,139.354261339482,138.2442649500834,126.87627558712134,128.66914875149345,126.74464937012311,113.2301690921536,115.26778302473834,123.78928191273747,112.39305420254368,102.60494706666736,108.84842769526634,105.59466664867487,97.50066607176886,105.41070571041752,107.1986166822099,93.35769836951818,92.44542915733555,97.28706312274167,83.92624787920602,75.2521995518117,84.73624901456724,85.22876052248455,79.93442477340857,88.9364505587121,89.80721851609802,72.95930745435905,70.9416710446884,82.82804554117016,84.9054595221211,95.82114735746211,126.17749926034617,146.9785095948785,160.62588084464704,187.82518457853402,205.34398386895782,199.85109003354944,199.39167757310747,200.9071659282384,181.53310816512095,161.5114061729061,152.82017112701163,129.15525012659458,97.2278806340469,82.32863654509097,64.4020575410454,30.197296922785668,5.800922251864493,-12.862857327277752,-47.925571302371935,-76.8104476246044,-84.30114449841801,-97.34859457828469,-115.80908042179244,-120.22375309663428,-130.7354063046554,-155.83090789948773,-164.04844064541987,-160.17518563613726,-173.1651343155099,-186.79299583732822,-187.72202990253408,-198.4437104463567,-211.1758406726707,-204.12867374885298,-202.1004447687042,-218.47063294076818,-221.78996505902268,-213.01412792710417,-217.0722688877405,-215.84066060246965,-198.97428589997907,-196.06861141789386,-201.30618068377584,-186.11479179456578,-170.23141627731434,-170.71287045315125,-162.151161674209,-147.39932291426646,-150.05197402895143,-148.77414593052933,-129.8536559275121,-124.1720423414983,-130.9918102955496,-123.09454583365161,-115.71561178221819,-121.44748166833746,-115.48901410790003,-103.35058863207692,-108.45333600806362,-108.24077065897578,-88.66433938348283,-79.67571272750102,-80.95077741229309,-68.88005419048737,-60.845990306307506,-67.54216835536364,-62.42346965678141,-51.22934142462803,-57.60859758526671,-58.80458533692728,-40.32310134435777,-31.707396294945575,-32.94108536334805,-20.83988585168536,-12.98266074192956,-20.41101108128067,-16.90557714316567,-8.78344971955226,-20.026272223819632,-25.883812469604372,-8.409997238461811,2.7940059913674427,3.228169699467803,12.30169630751621,11.846020812378908,-6.547492682395118,-10.468712383974086,-2.4569748488111562,-10.098036026571377,-14.143669230431744,0.5606737396818113,4.839907194112225,-1.1980317227555477,6.6221645548747325,10.227036449641542,-1.822494623012262,0.18155794924897029,12.63300670132945,7.398031768703079,2.380192288994068,12.600846139037603,11.873728306939356,3.6588025998684923,13.482052063084758,22.679554551372487,16.182156076439593,18.67850378599203,25.359736342433315,11.19267540556722,-2.2569497779144325,3.4662342477304757,4.677302060456631,2.830338794286824,17.597037152324365,26.354066158973318,14.452175018492035,10.760576976841715,16.886012990584323,10.088539636649786,7.098869086083088,20.432681854584736,22.70993696867816,14.808063655009573,20.557006396303947,21.79358486184306,5.180654868052596,0.007110886219606538,7.276128685289004,2.7312556151819063,2.7796661245533367,19.008631037033616,21.472921569020585,9.738755124662502,9.123195906692645,5.822008993279457,-9.102492338632377,-7.194708782721106,6.7962921296317695,3.3150329305289716,-2.252799453572016,6.071659045911314,5.689833896268658,0.6661966072095806,13.234375040023508,20.356263271651333,6.7187243018894645,2.9092765606272284,10.371779720599623,5.069656918191464,4.54479291730489,19.980735706171,19.736854930972665,4.929497239935067,4.54495587648861,2.328630117204171,-16.495195970483934,-22.285588590172388,-14.228036619084879,-17.902303555815276,-16.441095754661568,0.4990935691888101,-1.0540335748751768,-20.976073503259776,-26.00829249320097,-23.77762439977292,-26.344308599915006,-12.413394594407091,9.30410965935668,9.373924827604618,6.179158516388226,17.993424373070322,18.791598643796,6.560416984061874,4.772247913408154,-0.9420869468217716,-20.376773495256998,-23.81906050555325,-12.437081604924717,-13.577340345883025,-12.969249910428058,1.3347085658605318,1.4365516630841038,-10.825340578682697,-8.10235946166864,-5.66848238728044,-17.88747830910232,-17.855947332486945,-4.727178139233373,-3.0137233169553364,1.953620734291684,21.005123381012293,23.406936956991256,9.19311789725837,8.995545461107678,11.514720256385004,0.9489216863081014,-0.9016625269076968,3.342826390159599,-8.808065646157083,-15.851428358720419,-0.7119954766310554,5.870704598834299,-3.051729080380334,-3.416825936683078,-5.245255763419664,-17.505844925537527,-13.43137105208996,2.068748212066626,-2.245400772393388,-10.52268328948622,-1.4285768335493838,2.5834322142246013,-1.465041442864588,7.370005285704941,11.64812977056141,-1.120028955321268,0.15670436296924173,16.653553066685916,17.809256184049033,13.187997384460726,16.53974795013289,5.81978600804398,-12.502532242453789,-8.394880058154056,1.105157635691127,-4.620655011239373,-3.382738436252089,4.981992479764434,-2.268477793726193,-6.626455929105122,7.028667292255556,9.28682234129756,-1.5885627364242456,2.9088332858803048,8.915013928142592,-2.1933020601413986,-7.842296256090126,-6.494484584332678,-18.945049203859814,-25.30283020741613,-8.462263977649028,2.2690035704379454,-0.44624971375510736,6.334507309393246,9.812078468839765,-3.604174902634675,-6.426410887554264,3.8711612354401423,1.4891537361670908,0.12964809314639192,14.447810170564907,18.44216605447569,12.312317742214118,22.20536379250977,30.878771492539016,20.027806721920808,15.654376587358943,20.3781160344327,10.423860136270864,2.7625946653797535,13.29755737652574,14.200030094949737,3.314789561340895,6.545014456022193,9.260609380885295,-3.8569018679148535,-6.060782509472228,3.9335718318427753,-1.1110867333966699,-7.316791593253085,3.187127260638718,6.964402579499222,2.7067801374107376,14.111606597847581,22.966726185535514,10.683096944673313,5.505645193860882,14.168898238210458,13.073082764501322,15.03497030039208,32.17382405258447,34.3775571690774,19.499146379195828,17.221803788469266,16.339132511805072,0.7920108704928639,-4.509616907135586,2.027896690486452,-4.723640026889679,-8.54125072746364,7.969635240605116,16.586030452153906,11.488944415142006,16.62016521723801,17.61353685531063,0.24003431616606452,-5.744805618533753,3.7297124838698603,1.699973541355082,0.5994236919668705,15.069881252788884,17.70159819724891,6.920435488375931,11.44697462741448,19.26300093798811,14.31013857777543,21.272431948547098,38.87724236016496,37.17849016603852,29.885431240648828,36.77566329804438,34.94047835640642,22.372596966072138,24.718411405815008,27.556813409551992,12.75539027716238,6.79852307937932,14.829278638527073,9.241951591386638,0.8530795194845435,7.642909596273073,5.158752607617496,-9.72304067842411,-8.939801751334176,-4.519799676812989,-15.667592035896758,-18.77466051170391,-9.446091080245589,-11.847954541565706,-12.507229422818023,4.464225064325243,11.448648506818959,3.595289540137857,8.42389006097797,15.439383342593981,7.3249462682325515,6.848373998461493,14.85261899062433,4.163819200042087,-9.52112807122588,-3.409013537267331,-0.1864836804778708,-4.807490528446775,6.601247694245789,17.5460355416337,6.889599141959042,0.8959415580980327,7.696876764705823,2.9715981015741915,-1.7905963203738542,9.632001806603377,10.7534893462617,-3.1547958819968063,-3.5555352769053923,-0.2374616026858598,-11.526132113735699,-13.261441109805848,-1.9988710284151772,-7.134493250746994,-17.60992463876739,-12.990706050014472,-15.74737390109252,-27.662982841885523,-20.71389891915822,-9.577133771970889,-16.10169782054573,-16.291443683682044,-4.18049276191738,-4.14660180824683,-3.243718216535021,15.462739652605693,24.769329729280123,17.876307387608605,20.79270285169026,23.216728923910267,8.391700395134604,2.463104017178517,11.77956283530072,9.654289442443977,6.322050536192079,17.922447262634353,16.689142674932143,-1.9333913111698555,-6.723496065827168,-5.8653574063582905,-16.602921000476286,-14.349165850884374,2.3854860442307038,2.9429959770931564,-1.5909981101514654,8.452137388212895,9.277641620871549,-3.1377107407873837,-1.813547075693795,1.5082463518714613,-10.556116525518256,-11.336199140276374,4.203297016186761,6.7249043232782455,4.48508137960096,13.982193367721031,10.277219259899663,-9.300344769519235,-13.213729033938467,-8.660330678699324,-13.657839722915826,-7.082823509880058,9.798987950799656,4.112725228073905,-12.788587995141706,-12.996123725639752,-10.16460942025962,-8.570774594586961,10.066818132307816,24.734307178676943,10.545808322391991,-4.88811586910024,-4.73575161423066,-7.807099121750667,-4.3408794916248805,19.521398651007388,35.415580799934176,37.088758408456464,55.043710316521846,81.43878802554306,95.64399763082332,118.75443504590882,152.88208389742192,167.23990471279438,171.32193440783266,184.61038814371136,182.6489058337235,161.45805130822632,151.39150749858078,143.67425357937339,118.55286986019784,97.16063240235728,83.69470785053439,54.85198830422308,25.969169247328864,17.95631449788893,5.52449761359493,-22.10510984017069,-42.814145627051616,-64.59617734699438,-99.88928099069295,-121.10948735947167,-122.51316335519374,-132.5307848097246,-142.98328169766947,-136.95063779957133,-140.10988386606317,-158.79910499347756,-165.3437362172027,-169.37582965197817,-188.44437351521177,-196.14482738992618,-186.7485921116704,-188.76328177529098,-192.0395886304956,-177.7527418004334,-171.27279977562142,-179.653527008727,-176.1199590951364,-169.55482554919024,-176.52238666021614,-171.4391340926283,-149.41243993546072,-141.40443176021464,-140.76029258525102,-126.1583391228396,-117.00212336366783,-118.76963620220056,-106.95535545087807,-95.50810504400928,-105.82085801933727,-108.63631787797418,-90.27697671545027,-78.12807261098946,-67.92125466570312,-44.70185905249969,-34.53461204653448,-42.44752915428115,-36.473528038014756,-24.17112336403722,-28.35245667219902,-27.375251561634375,-12.27374228602907,-7.783329634888821,-3.5382897513872344,19.150856964497553,31.95799908183592,24.201544740228215,25.64077426055638,32.80502413674392,28.762373598163443,35.33581976066329,55.18419592650037,57.48059293059569,51.07926146018313,58.96280724162785,61.434995592740364,53.28183046339207,61.662300691286895,75.7457550549355,72.26093206242305,72.41320076127201,83.61066237803922,79.78971112491284,71.57697733655482,81.1053251492381,86.16549089278918,79.0530773427877,85.43853295037827,93.07579568831619,78.19125562168361,66.63051076943846,73.70881121696989,75.19952837329463,75.72240580565922,89.94830500064157,90.98519629257402,72.72781046388394,69.2529839892542,75.53108703129962,66.74370734964417,61.25676377615948,67.95868076802002,64.42670058734744,62.89584130014306,82.14090951112378,92.11922380840481,78.89474718885438,71.0384767332886,67.47583122662368,53.21204392268443,51.8291376136812,68.39026522108725,70.91920026615901,65.22895030897118,73.65367954736598,75.09710094015476,61.334998914216015,60.10333325925181,64.33266935201709,52.848137315573,47.206148272081926,55.101699776530296,49.92488047555587,40.91034320505422,49.389015223696255,52.70355883139863,42.17738032993669,44.24819792982462,50.63689068946442,40.02079596673361,34.598662298025104,43.45998140098669,40.405016094180354,33.88908734917709,43.98245245066685,45.161543703221675,27.38759008601817,20.125779888408267,19.10463380749362,5.823766816684958,3.6426015809923147,19.720233259578833,23.15853848437623,17.92882897080699,24.547049617444255,22.381831743910293,4.740539269624643,2.090679664013966,8.985355198014316,1.7736324581736533,0.13807645734443724,12.195406493665574,9.072002554235901,-1.4370213376819634,5.005349620180189,6.573267649088018,-6.888077018323673,-7.48082970559603,-2.1879902672479203,-13.021255034755324,-16.23931475418597,-0.8364731148585323,3.1085033725233893,-2.1412034213665962,3.2412069188954207,-2.0551148616413824,-24.008915191844373,-29.668735242829563,-24.126693974608123,-32.14950323148501,-34.213537073963565,-21.181498563428562,-20.07678688455086,-23.87119325554833,-12.536624003774945,-10.601103442029816,-26.79896233441905,-29.916941496900975,-24.573313265033384,-33.21172040932656,-34.89675115968147,-20.830012835797667,-19.80621693871666,-26.040499572513554,-16.874527597650268,-13.123584006479614,-24.444887085994857,-23.263919310044606,-16.52350565393299,-27.079175250652813,-31.94044310075317,-19.87264436714333,-19.895358935636203,-27.411717289103343,-19.746702513212703,-16.642908253190814,-26.629060888390324,-23.15241350125413,-16.09352288518579,-30.133631780818018,-40.883923832843145,-32.92841019039764,-32.914036273794935,-38.0342560762006,-28.2690050425757,-25.751087002384644,-39.98574111355603,-40.45548080917434,-31.208235784607737,-36.53551541237945,-37.861100085484196,-25.718081863955494,-27.563439003952492,-37.230127979385465,-31.025242026774336,-28.51432852315998,-38.96755182770939,-34.60695290567551,-22.116641744727993,-26.28266189688892,-27.896509201475833,-15.942736131173898,-16.02217486673153,-22.182365857032835,-13.5102209918337,-13.178476238947958,-31.734415727501453,-37.521006642331464,-31.74054713338296,-37.4272478622138,-36.52791894954263,-20.47758500034929,-18.41563072200487,-25.323696560772547,-16.254664484694153,-10.30636762472276,-18.276005653300107,-11.604520575546477,3.4977808314537713,-0.8223199463573749,-6.098657868874519,0.5028201801409997,-6.324296325893156,-18.221838986812763,-9.46917897230712,-2.0681200956608614,-10.25696500213948,-8.890762538073657,-4.60522069894981,-19.640309981236484,-29.86133442360391,-20.57537745377357,-18.85084439045913,-22.908714556639342,-12.182568089738197,-6.693685558862204,-16.96745054118243,-15.059552581012225,-5.289028644784374,-12.105804699399238,-15.664028984789153,-2.7913482444668465,-1.549269389499535,-10.121535205356022,-5.857852794617234,-7.556152950903505,-23.447886842114848,-22.58153178624643,-10.995816239115474,-16.163552215627742,-18.387168407291572,-5.274512432786896,-5.079848147458808,-13.451547179398517,-6.597077677358122,-4.767985143313058,-18.015294569986686,-15.793620988244104,-2.626852112188391,-5.698329652344036,-6.508836745554573,7.7431177629523615,8.402357981627107,-1.6429159337528123,3.790137778563499,7.5555432253410455,-2.6303264012253935,-0.5642011105525531,7.9597000188256235,-2.572387935658698,-10.08715899897016,2.732533142435689,9.241038230033695,9.088980857467583,22.052827859913695,26.70773551794279,11.543547023825553,7.2301445996998845,13.200072479056265,5.890184489547575,3.61858501382129,17.903138554538042,19.404998974830693,10.266888120862856,16.71474975158565,21.024309972842357,8.91496698683333,6.902779025666089,11.968555494392154,-0.22963767935262425,-8.72604124219845,2.863663495521074,7.6601247949348545,5.420421563669767,17.48499906727978,23.210908922805583,8.738311416188962,3.637972389379697,9.748941116963142,4.667196679546416,4.446464716810817,18.37968636499612,17.36174192668665,5.092380750002562,9.705328748669436,15.588121876829828,8.162705235694144,10.09418036262765,15.912034506919486,3.189978709789875,-4.432872689695516,9.446966981965787,15.286914106631361,9.48608343168391,13.221388495359058,11.02934372396819,-4.720562786224238,-3.186907744112277,11.816095055005503,9.524277633507637,3.92583975526188,10.237781048312769,5.418723592489589,-4.809052938868153,6.203119255081836,18.144819453908674,12.735168974334254,14.071855913485745,19.32353682022299,6.3110290486268745,-1.6913387646827314,11.416819380524489,16.77670463267401,13.465412390044513,23.352115276381518,26.901998531253383,11.851496232129277,7.837291115373122,13.93247583131866,5.555147369725237,1.5456023940932615,16.092928644639613,20.51890183496186,14.331232325096972,20.556263669155886,19.8939847953144,-0.35560310419154106,-7.448365634704933,2.411919313714323,3.4915284795375223,7.9443716710517345,24.470777408319634,23.142522538935346,7.205395959081073,7.835130481410857,11.814215043537569,4.39291412467471,11.172105794352206,30.71910039204324,37.84962314983769,50.884664790337986,86.7577964490711,118.62040571526506,142.58821659551148,177.38951901923053,200.60831482535636,195.4594743504823,191.60323886315027,192.6722139404048,175.5553022698892,157.9200496368574,154.5385934066354,138.0551392866705,108.82172207491953,91.49376126768186,69.00039794620668,29.88746289073532,5.08588777565156,-6.391472063460891,-33.55251131470306,-62.42259854937858,-77.388557295733,-99.8098225557189,-123.08552575146753,-121.14736964839145,-115.93649143348158,-127.9433161913809,-132.27336984334,-128.77494094086634,-142.6879558469243,-157.7379959900571,-157.96844000990828,-166.26406428975523,-177.69998502115308,-166.22891648721668,-153.09569162499918,-159.77149396176105,-162.7395576681351,-159.33529413678863,-169.16111411984383,-173.2022296343942,-157.25934372341288,-147.96853767995162,-145.68120416685352,-128.21229689905292,-115.36973317282798,-123.79443373076302,-125.5561272321583,-116.05104894131276,-115.47108422943612,-106.31849410085664,-78.20831598491104,-64.88141678924154,-70.0211695864626,-65.63109303350417,-62.41871351819937,-71.67058234254769,-65.71052781612558,-46.92616242797122,-46.24852877551034,-49.58926948652807,-36.20521606085632,-26.793802624552516,-23.10632371409901,-4.433098162566056,9.522178898541226,0.7842022508588009,-1.5698932113805797,9.64201214799535,10.836787931188425,14.351057458987782,32.10267677291959,35.99550222832251,27.56629638985533,37.11739068463272,49.79024562363618,46.36108430955292,50.110439766061546,60.62138986621017,52.99000753224274,46.15398259990012,58.66188269024965,62.734909152440686,55.30744837199374,63.81126296338195,74.8709060455908,71.24290579691824,76.54721431799751,89.7172338074612,83.69643711626358,75.23546458935635,84.13107762253414,85.631576308355,76.45734160899478,80.76708299693183,83.29059413714609,68.79946615980788,65.26923201618132,74.3078156143618,68.47300855814694,62.409601624944926,72.73901171411885,73.733532062404,64.98429574460702,72.4211948037833,79.16790409582595,67.09135815525703,63.05063830606433,71.57139509865213,67.99208427241885,65.12125087019734,75.70056714064694,71.80552562562434,54.5303902047797,55.24325356454422,61.56052500801008,53.931744283460404,53.765951249438814,61.76573687582909,53.87082647311854,46.2825840031837,55.55611641234021,55.45618603287939,44.56983312775638,49.72444852839684,55.262775033560274,41.17028543324395,32.66382637485314,35.94918336100301,28.45068693389677,23.54208628855453,34.521871761498886,33.65862549104233,20.416770139924505,24.508312176018283,32.87233625431658,24.126274539880843,18.665768607713268,20.502296537452978,9.063283342240167,1.507676026201831,15.301928260739448,21.613246044022578,12.657811280344173,13.57837148588478,13.037031386321882,-4.157798653607148,-10.595893857064583,-1.6110637097178957,-3.659473416423656,-5.053202345215906,9.177229622034098,10.916020765316286,-3.1895643690530955,-3.6648356992024396,-1.0107911106417444,-11.670582530779502,-11.329128472497388,-0.1234557312708775,-6.739257331192118,-16.443831670809946,-8.300671153281641,-6.0576255730316415,-14.207674874389964,-8.484818833823223,-4.075775363270961,-19.070221065334845,-25.594933223758233,-18.242561538333966,-25.01999225424964,-33.716019150043714,-24.652781902499576,-21.414195638331584,-26.634656524813433,-14.55904977648158,-2.5998085438708123,-12.768931460551258,-19.419469410997277,-16.105726753641164,-26.222984956130244,-33.70347958956061,-19.987942634264805,-13.031186018848688,-20.048178542961196,-16.657832237551276,-15.586891231353224,-32.09358245753583,-37.88186798332936,-28.96114689060301,-34.11796659628602,-41.00165458836753,-29.47008503731788,-23.138473982252545,-26.56692453881844,-16.99577594091232,-12.548361999645747,-32.617471960355296,-47.39521947598767,-46.52186522329143,-51.98736845087278,-49.593574789002204,-24.75067740049977,-10.214814467881846,-15.564937215230474,-14.757286847691182,-17.79904873736368,-37.55541155305226,-43.564569650230915,-31.369903506020485,-31.2693402633393,-33.5820187524995,-20.74541279048275,-17.615695901879572,-28.021520883255334,-24.49649851322392,-18.83987335138968,-29.2675379061061,-29.933188714097653,-16.074580689189652,-15.869355135159841,-19.035996261438626,-9.051632402120944,-11.407617677682886,-27.823289914602427,-28.58841790152654,-25.546181564030242,-36.99546985380638,-37.818147499834055,-25.157786314954627,-26.592391900961918,-29.38756683825623,-16.471120177660545,-15.132463020543977,-29.519572175662162,-29.305866325342144,-22.84208619440247,-28.377027495399258,-24.413118561582642,-10.794898719960223,-17.06776798697873,-29.083045398324487,-21.243331030993637,-13.664671213774398,-14.001230237067194,-1.5796281146394247,7.450783478183659,-6.976728858944437,-15.971307004890061,-7.647384032260636,-7.7573339139696404,-9.648899042895286,1.617721908980621,1.119599109199929,-13.787587679648233,-11.718908775391075,-2.0829860450125137,-7.950051058960506,-9.494932087173751,-0.9089232699010035,-6.643011950992269,-14.012000946773322,-2.2351641665312414,4.222363076744175,-2.551957918342287,3.5070879418383067,11.249767407729744,-0.19043195839625593,-6.214467198832979,1.4905103351263698,-2.6911830649255277,-7.059698726881792,8.25371279642696,16.738704724980533,9.520820472889154,12.672292360005578,15.300452194816593,-1.236399745378396,-9.661372570259463,-1.508078329871402,-3.359107528781701,-4.56538151400028,12.686478712209897,19.882297463458464,7.3998524969698485,3.464728689362107,3.1369523445606973,-7.525365624655098,-3.3193571699792006,16.993687242765134,19.222871426520207,10.8833177498258,15.020178957392787,13.074642526796111,1.707539751764287,7.728519513376526,18.546452390636322,11.897092544609663,10.116510978807847,18.75060692175398,11.691935269951632,2.1661819776541944,11.833057826941785,15.925139136134899,6.427341262721782,9.581839958435292,15.744142728687407,6.215251212910055,4.075740063699549,13.16956273093977,5.793492328364952,-4.006787076811811,8.289245223124087,17.704889338808442,11.383950980033543,12.724473698200493,13.87111160595152,-0.4206178913628875,-2.259186911037443,14.403363607144362,15.82704755434823,7.831121900152054,13.794876444495632,14.059445264189858,2.372543452640497,5.506023410632634,13.360712611208129,4.836608831045922,3.040578791673302,14.894200572291615,11.89084919063355,2.38206422432812,8.53164316748541,9.254712937769181,-2.822867616806483,-0.3131170223713662,8.355184750079962,1.100888566411971,-1.100156966640275,8.508676771762701,3.1376946386428903,-6.545900694897988,2.3881332364249284,7.111749292887529,-2.732759572258802,-1.830246650958511,2.001307966837927,-10.297327233712705,-14.20711859186694,-1.6017714491239499,-1.4278284948941828,-5.906367388887713,6.90995159197485,14.798495045445822,8.644531792632833,13.409806308208886,18.83653120595183,4.1690641486474815,-4.792747698950264,3.8442865527880334,3.182893090730242,-0.6021617468870868,12.303691843745131,18.616103928886925,9.453099169213074,11.167478721973843,14.383571684644734,-1.4564708804092437,-10.254067198885615,0.1262092697118744,2.265428716858562,0.18716552601765524,11.57046095888634,13.646738210761209,0.4830628593245452,1.9382873981174513,9.408252728724209,-0.7747225073730837,-5.462820577651708,6.648173420840237,8.507897992005681,5.986555447507996,17.659775714333925,18.46108481863582,1.1563923289276437,-0.7843111566865253,8.80503628472514,-3.8877899070103474,-42.2843088270081,-88.5639615749696,-125.12055551905476,-136.8261587156431,-114.89128428535861,-73.5079925633603,-56.0838853122641,-75.15580655158543,-84.73260981986448,-66.49356009173457,-53.35521456934092,-49.137411344442626,-38.19149779639821,-37.46050050619789,-46.34217605524351,-34.41594550126495,-16.564101047452073,-23.055205808139736,-28.744718288837603,-15.692457679748713,-10.731763842661914,-11.390415054813209,4.384697661155671,17.920235440777077,19.769325443505203,34.85567505513359,55.44636983300702,62.09853000476697,80.5788987178836,120.89742280303997,150.8323161203227,171.54591178635263,201.46984513207153,216.70038986024565,208.57650517316225,208.25073749545828,210.2947771880261,190.96653188941656,172.04144388271126,165.05288610461784,143.90469492946062,117.17387932326695,108.96223403145372,96.50087950856096,66.71897673995379,46.284957770028356,31.491659230860115,2.099570881817094,-20.857528022176876,-26.824841644214025,-41.76555249007702,-59.821365821025516,-59.376115798148994,-63.12916293532015,-83.95516434214856,-94.98130169842895,-100.9216033819378,-122.64902547706461,-135.79584175536078,-127.85553897394047,-127.76732630771318,-132.5919073383797,-122.41022095990954,-120.09374615391705,-135.06712164216165,-136.05482852954015,-126.50585061505546,-131.693617491868,-133.1926360034257,-117.6609599009341,-109.65704446223275,-105.20888159922139,-84.39281519528711,-71.46845877570512,-80.47804829062878,-82.04747295384993,-75.8262964518608,-81.18618065618415,-76.56784327367762,-52.24972185753009,-39.61687323173821,-37.85796044727533,-24.830882377266832,-18.4320976137425,-27.059431242201313,-21.97585465055587,-8.557532241415714,-11.470401010332177,-9.865583815220363,9.093099117309553,16.623233209887232,14.61323307025113,25.870351674783418,32.07576275142758,23.804826513421986,28.500554442881707,39.47529841701291,32.62752409714217,29.99581874683535,45.01706295523261,50.849921915878824,50.68575668796004,65.28670808829892,73.00182219331458,62.02157067752236,60.4888758585609,65.7663909823186,56.81351515889419,55.89775712940139,74.06646988017289,79.22668604155349,71.72600054593178,75.40690744968373,72.62150333851073,54.42891106124314,52.631696475861176,64.94622914695921,63.78190453574604,63.99212331779646,75.4061853986603,70.90427205104147,57.995744893515834,64.60108861331642,73.88189690993792,78.99273030697194,109.49397359651381,152.57922610418166,171.39764354546824,175.14597025657247,173.23667985643272,150.26538324713374,126.61372291534929,129.04955520309935,128.49590131178658,105.4434721761568,89.88657786585661,85.39708756945905,71.3319905095201,65.35605065702036,76.07851547140729,72.63819140673358,58.96791292205239,61.776194248724195,61.360629358456016,43.1860974110588,35.01902729556251,35.634414595454516,21.91158099605169,12.43106384674546,19.567336602730016,16.28253797264227,6.132063183664474,12.934771935964195,15.87111196135671,0.3901800820790422,-6.805699673397565,-7.84050648015554,-24.424536649158085,-34.94881576925004,-24.630412104021268,-21.408261708156573,-25.823774583194183,-16.347866003235858,-14.000456613136329,-33.88497907148668,-45.28929661205755,-42.93216976927667,-47.9009636750519,-45.48665328340823,-29.269428784571474,-31.58642986989331,-48.679134870677515,-49.337028738402324,-48.016732790397015,-60.77865933031627,-65.24892387223102,-64.85376606569429,-79.26022005776413,-84.05661582641886,-66.73167180912904,-60.84501754671884,-67.72985547867026,-62.28732066914145,-60.96601838360438,-75.27846493651413,-77.55367718135571,-71.19882715613531,-81.39890125749781,-87.99988291467407,-75.30301985120671,-71.83693443478627,-77.9658487923115,-68.82036677019417,-62.37383959523276,-73.67111073559653,-75.43677220835612,-67.95120561348855,-75.09238117332022,-78.28366076117979,-63.65947570694239,-60.54018719405226,-69.23736457704983,-63.53909950393462,-58.20777627560081,-66.1252576212822,-62.187563023528725,-50.78325218116902,-58.21742957676388,-65.88606510081749,-56.7856808799088,-56.443884438863904,-65.069948257844,-57.8558646548648,-50.29780829327369,-56.80202720642593,-51.92011172113878,-38.56440114291571,-44.40068576478357,-51.27531823527099,-40.58797128474272,-39.053224575961096,-48.85641602581069,-44.908920848552235,-41.988419289789235,-52.38916264669643,-47.22484475797725,-28.67673656207537,-27.36417144447294,-29.628585098027358,-19.392856413573174,-20.997390600229348,-32.3168347106182,-26.914136815648334,-21.664886437451756,-33.02282822397519,-35.08734094191772,-27.515453300730066,-34.196819251861214,-36.954844120168985,-20.5932601617415,-13.503854562993478,-18.202190690018384,-10.82762918762899,-6.563026641958427,-18.426397771746338,-18.740620121285104,-7.518375558565488,-11.30231203584639,-14.694518833983599,-2.120001221121128,0.567438116862385,-7.005241995791916,-0.6089652509486188,3.1735991664783776,-10.229162514678853,-12.9076092114876,-2.7639019446529174,-5.858695250220899,-9.176822363147036,1.5557498644049463,1.391144051120293,-8.351069399955424,-1.3505498107082823,5.438255353476878,-5.45871843096575,-7.164855613414497,3.7975637219596448,3.3693528872851743,5.014833481082775,19.882541858645254,19.391043213602465,5.806194368677383,10.357315574993665,19.103365062297662,12.990483315422713,14.897795568896356,24.28449551219848,16.87802625208884,11.62252507568175,24.835559054220706,26.989261120592033,15.470609517736698,18.14483698368499,22.291164892946867,12.909499078696292,16.01507250513814,31.50008474540133,31.752464346398142,30.88163308694228,43.20826663722943,39.92525423513624,21.662875930841828,21.054977626407698,26.807659278780715,21.359566018872563,26.268993700739777,36.690161808104946,24.58734081508573,10.405281295630406,17.54328619660992,21.14161417056831,15.768963781307058,24.439509266065386,31.497167523886347,20.804862789528734,20.650468132547715,34.38009402004703,33.968770487576215,31.278886727418115,42.41214510428434,42.20857357692884,28.469439944609512,26.444406166580336,23.008923994879446,5.1350538238956105,1.4715323207346316,14.245518413432324,15.165447888949437,14.840217845518879,28.523155597934156,33.36963247286096,29.34267296669904,40.1257041775698,47.72736476146801,34.41010672990117,29.06504487948301,37.91889068877708,35.1446895357058,32.00810527163754,43.04893522281304,42.457660584170625,29.284436988668716,31.070564147081868,33.33357953376875,18.45702914138846,14.63334715677833,26.528982161003565,25.509662770878574,22.466538198106157,33.67528949681823,33.530576161387934,20.71033554142074,23.703864651185235,29.143228330766153,18.47656421372902,17.420809781162802,30.12355262222855,28.856670418548156,24.61429211394583,34.89053931522978,35.04455110834867,21.340820306881508,19.842907042379903,17.99092887769256,-0.36206406920152023,-7.62802854190428,1.7604645991422476,1.7229727340527536,2.939839439457437,19.638641868723646,24.78077009548823,14.99564788579557,17.32606177691987,19.087213182264712,2.940193981484313,1.4870248736307061,34.96322948206418,74.84182307597231,103.7909103868416,126.94942365496831,127.04258335613389,96.45930736434862,77.47997050697523,88.2558975853749,88.70344125859427,70.86815930884347,66.59666032014414,67.07500621282085,54.205067412021066,50.483580780160636,55.16973043093362,39.21893111088738,20.1207019939665,22.373645012318857,19.505578664162122,2.3192967056624063,-2.183461943258296,-3.4478046783008667,-20.21393433978771,-28.293268026353214,-21.501644641821777,-25.470579922007534,-30.10907208453896,-19.131820717022954,-17.399583357098788,-29.32292873578909,-27.288411850003605,-21.086050617420277,-28.808993184121874,-26.561168656313164,-11.215823044657906,-13.567188588915233,-25.115367170948282,-25.665030949619748,-35.41571205567662,-56.6305097535604,-62.99068325046089,-65.71206437867278,-80.10278359746161,-78.67128488445925,-58.66227771937346,-53.45775072711283,-56.17009981942658,-46.462951711012636,-43.2208910844105,-47.79694251700316,-35.40237167841906,-22.50732879973488,-28.857384739569387,-23.70490676918199,4.237695808785428,27.908854184570043,54.892202953996645,99.42882828518827,131.6183222164021,142.02491281084502,155.3655081989999,159.81264731876584,139.37043597612575,124.223157862179,122.62342301015047,105.74635762332092,81.95686311169254,70.24043141495943,49.260598608612,18.947947505972685,8.906505114227523,3.4060245416914805,-21.925683929724666,-43.06591291195833,-54.81208963817769,-84.16160242492782,-114.29695586011606,-117.73351544213588,-117.28996328167011,-124.66999985465726,-120.89234751920708,-124.29106713076423,-154.7895962758953,-177.39892017576977,-176.4657763654706,-180.46760320768854,-184.5545250500578,-172.7437566216558,-171.01984751820464,-184.64443797648696,-183.88118521377288,-179.15189064748023,-190.6841477085992,-192.44428336364405,-179.2254713768087,-182.93713231661428,-193.01501382235287,-184.60564001523724,-178.5062008265338,-179.69010617549966,-161.9269294638379,-140.68155630152583,-139.96971379688148,-134.7372781669166,-116.87003390144281,-113.79033143492568,-113.22332478262507,-91.80780245531733,-73.993568452298,-69.6276922143595,-54.798431650545226,-43.35718426980857,-56.40712744291044,-64.7607556638031,-54.951168826746326,-51.78562356414058,-46.183857110849644,-20.82570089355466,-4.3434570651663265,-7.341157293800327,-1.5062084385023171,6.697102433810164,-1.7364392578007033,-2.3228532871846177,14.08136382128523,21.103725149546527,26.989225955823017,50.34645016954923,64.82145049610413,59.86315698134099,63.69178028817821,71.2907177883281,64.79767181862137,68.56729687364701,89.47263554689425,97.41481108609588,98.57829098296453,111.46710747152095,111.50016388318085,92.31471356250476,85.12501918710527,84.75894625352164,71.6264212906468,67.44503559258035,78.16103599452632,75.10374882632735,64.98931635322194,68.16154654905463,65.03678179909988,51.824787493996254,57.9055367632577,74.1297846922439,75.4355503189689,76.5383740876191,75.75749237536854,45.53651699484709,7.329924941528544,-4.15803329831061,-4.148416071600311,-0.9805136138758448,21.15952509922972,40.11848436909542,32.77707046745314,29.45406938214269,42.022266702409866,40.11376198778696,31.155347359456773,39.35066576730488,43.26054306405146,33.23185662671954,35.309446482014,40.59374035444549,28.110250061129985,22.820313491084587,34.13484460413112,31.30271065421418,21.089821224132272,30.29840686942004,40.72509696363319,41.31874406869689,55.848254732039116,74.68373917860778,75.01476630413056,79.9876423375199,98.69902405087224,101.1501164555941,94.94705264889141,105.2453603623475,110.72649048794636,99.72367383627511,97.48829640384042,97.45722906972308,81.54355415200553,74.8979354771878,85.11983564845423,80.28959836614378,64.98661493817825,62.302884997365325,53.921593063344474,32.83081662163035,26.036381968365454,25.809746462385416,11.186187524224916,6.297759466357612,20.97827902742417,25.112680171196548,23.646698825875763,39.12390742190157,50.54022131459165,47.97653320391306,57.61720075022407,70.90566930536697,64.65939870005442,61.90427460856266,73.92234449299671,72.77897954876244,65.46532437167062,75.40340144179002,79.52112268124488,66.08338839118579,62.58639337655862,62.35306099237014,43.26814883383355,28.899803738093993,30.421209284485737,20.32916832910418,7.034884459442413,15.321599546682561,21.49260962971202,10.354222514574646,7.463157161200872,8.207935071398886,-6.913554998417598,-12.202321191788677,4.376424699905204,11.479731543222266,11.35160442102439,26.407175884742767,34.9612450638726,24.954930449715604,22.437438737237777,25.013398710668493,22.77187316038137,36.132791454630684,54.10598015550539,46.833359726338415,28.43940031161256,13.036695540493925,-3.955649557302376,-5.080119630699904,11.207012776409181,14.00578682768721,8.049186142303308,16.901182868998152,21.434375421942114,9.33078166952299,4.971179800488069,4.042440340084005,-11.522853683260948,-17.50958662018332,-5.167765497920075,-7.431547663445633,-20.211199157633473,-16.339257269880946,-13.956069067927983,-25.961899219413112,-28.413030770949323,-29.938878085393917,-54.1054348136059,-75.35258081372771,-76.31293621508274,-82.06557806452044,-89.35414999214078,-78.9459662648445,-74.09916250020218,-85.02231173663478,-81.74222584427663,-69.61638599307514,-74.13524453524379,-74.84219901249824,-58.570189210720024,-51.89723968268092,-50.96401027481109,-34.87333954388661,-26.010067909741394,-36.23217083648862,-37.39362680856501,-32.87109969866735,-45.01986681961434,-53.28512209064526,-45.21306950080907,-48.01788735133557,-59.44467041845837,-57.379894822871194,-59.37256277875428,-74.06573893219144,-73.62000526907528,-64.14798035084624,-72.27331564164423,-80.24721644650408,-74.13567492614654,-76.33879857693336,-81.27348122435598,-68.35888615239709,-59.14275478353073,-65.3362848652499,-59.99766201323143,-48.46437578135228,-56.110477853899226,-63.65739493944581,-57.58697513212999,-62.62945414790238,-71.17134120153545,-59.15443886261345,-51.45532235930837,-63.68789792609414,-67.4211127013975,-64.65366164194695,-75.03122325922958,-74.03348527182547,-51.591384349886425,-42.34173120510398,-45.339853566321615,-34.314138823133554,-26.299670966881408,-33.22818410169286,-29.56941320822499,-21.01245242382928,-30.082732138102884,-33.08531207014481,-16.43248458320534,-12.003920822100767,-20.404441229185238,-16.36021580496033,-14.94711808665651,-25.692259624867148,-21.815579899273278,-9.810233276857304,-15.881924780982395,-20.61502631802936,-10.832431824576476,-15.003843380562682,-30.71350785664375,-31.904058684347106,-34.715602516772805,-49.16290381789366,-45.78655041993231,-28.661094821319864,-25.844280148411165,-21.973463563278973,-8.611521877022831,-19.056660326555754,-49.38033781560938,-63.4213276437344,-68.33665548330282,-73.83395021978318,-57.12696436873468,-31.88285340826053,-32.244802250231174,-37.17677133142209,-23.09933916755662,-14.02745228145655,-13.23701201919574,-1.0093510730256368,3.70850658492275,-10.564239647472355,-12.39161730660975,-1.3993904094059664,-4.5935982014635,-5.803020351977235,8.650081842855963,9.945827981253828,-0.3392453799703157,5.819385930296912,12.958375276163594,7.481541684212855,14.919557359887378,29.368770697323328,22.785159557383153,15.254704995292412,25.527346932673826,28.151255921390778,23.4690400286787,36.09473708278931,48.305086009884334,44.19601199019776,48.94109258402661,60.61207828424825,54.673160844409274,49.63562648627068,60.694586458874774,61.5190156360908,52.35603386894024,56.05609689787333,55.44492758526664,39.15217315518303,36.65417900930813,47.80978667315858,48.27395847804705,55.823800605696114,83.32248959405163,102.22498796775137,114.25122217228707,144.4579174871809,173.04580315876336,182.92200025831647,198.290642453803,215.6752510546674,210.55786939482675,202.37544962540534,206.3049758247281,195.4091728615623,170.37781032618204,156.5516056961778,139.66537591716235,108.08025391138841,86.71096348695686,70.38752322447405,32.161664464298035,-8.565789444963734,-29.93099129549382,-49.91780539477567,-65.6396358468018,-58.742891381834134,-55.21980961859617,-74.80643264595881,-89.84164759786904,-95.3938703421245,-111.86870331304199,-121.94260123688679,-112.57061251023921,-111.86711828717432,-119.29273037403883,-108.92512185213829,-99.18847792182676,-107.71041249282143,-107.02358477231715,-94.56379680580335,-95.17042156574391,-94.12679717770487,-78.62426780196058,-77.43608161712234,-90.11542855363906,-87.0951114841329,-81.64461287948507,-89.73848876515986,-86.62934902376162,-73.33488193010349,-75.20756028238878,-75.26913080344492,-58.25740717639225,-50.855326024190994,-53.39653609238627,-41.32905434568475,-30.401913860499995,-33.5864223286119,-23.729816637321978,-3.0372903915208047,-0.1290132774638657,-0.5384323148493367,13.34295657359841,20.21882095819319,20.93954260923694,35.58091692438687,42.17005669846837,24.505316536043267,14.667346003422963,21.02921967404685,20.10627425642955,22.23145828768304,37.21866980343123,38.09809440807379,28.027648956927166,35.984232740270706,44.732708536246605,35.20431999321074,34.2245393082306,45.56405379523082,44.65678671461836,45.8061071553619,62.711337404132955,66.7621390753265,56.547901037248806,61.196536642517884,68.3464658600366,60.7792569920985,62.74241639203136,74.17834466934626,66.88858882343892,55.677809604916995,59.8850706621168,55.89361158755735,42.507921922480534,44.80206276692053,46.324862529633805,30.7869919308534,27.143251060126058,38.87351768073463,38.64564534906023,38.4081784921957,51.20539527347292,49.71067378076313,35.22381963791456,37.376646314048315,41.594884443947166,29.9801976864105,28.313411123097342,38.644263506481465,35.59979922371194,34.470924441277816,49.69143603543578,51.78343446477253,38.37222488990949,37.2606819087023,34.8264125347981,15.888662024785429,9.134864329562685,17.614383845923506,14.079336971191548,11.083148793342875,22.614276929322706,21.32833598439715,7.302148258951396,10.117476930666014,15.72404836968744,3.969834627739037,-1.9915798887127445,1.6158071617479965,-6.7468268125585364,-9.379255243040028,9.936092846171496,20.987589911222805,16.088770524580724,19.374870698079608,19.51644979867203,3.5341664731611298,-1.4837678193781747,5.610090504565351,-2.966248251358979,-12.754648546846795,-5.113810995763519,-5.129347089619291,-15.548590935047965,-11.128248362436569,-7.246607509051467,-20.40576129112784,-22.470451312494408,-9.7669792343288,-10.353261656974636,-12.982932342950672,-1.628560001898129,-1.6188678332791258,-14.579691863282077,-12.332011458253698,-7.8483493023794395,-19.73795360195489,-22.86550267727161,-13.729733143759535,-18.87632204890466,-23.962395210275954,-11.306267019610193,-9.089119271542524,-21.83115155707682,-21.835926024246078,-21.78005083500115,-37.654862459422795,-41.09613511943908,-28.934727443104574,-30.51304301111672,-34.14487969012613,-22.685243408543727,-22.092233259013838,-34.974701433785185,-34.23680750193591,-34.03438164562357,-50.076912706386864,-51.4372797585534,-32.97848988272701,-25.35530509899769,-21.33037243935671,-8.307455379534519,-11.876244394124829,-29.01415319799423,-28.15470392717499,-24.8510648457326,-40.47589722429337,-48.198699981080026,-40.3308456828635,-40.76399440334544,-37.833176018920675,-19.07153219337136,-14.343916905723566,-26.57562214373414,-25.029941361722127,-19.834385986140937,-29.619793944545936,-30.94113949108386,-19.93475759374149,-21.989243091478755,-23.402415616697482,-6.263730932795061,1.3858249668432447,-8.01371545787265,-7.739367978841779,-7.00708690197013,-20.595307208403604,-21.680762613491652,-7.404605279672308,-8.691595417118064,-16.363130706630187,-10.910949262232247,-13.79285957370681,-26.74503487697956,-21.581473116272527,-11.21554748162364,-17.85147664090517,-19.596176870597365,-11.272842328073198,-17.4594853937501,-24.46706041198615,-13.095671810315757,-9.241418655965619,-18.883602213360447,-13.92207473846916,-4.261603589782631,-9.74835402542815,-8.48672898316348,2.658658666890539,-2.8783587519597957,-10.58297641861411,1.1944063316117504,7.540116998993375,1.3087180843138433,7.293915737702029,12.060332538936331,-4.000226281188635,-14.021996342595077,-8.786514823415446,-13.113346170497952,-16.685403316875984,-4.033062569529444,-3.2086998905715154,-17.620018311664523,-14.107199405183582,-2.063505006107417,-4.334686589887604,-0.6903581079895558,11.026593229809913,4.4138336787733925,-3.7891097441787585,7.639192921880448,10.075137277604124,-3.9021292254004214,-4.871903861721314,-1.1477607106854073,-9.947752071525263,-7.344090251727548,8.702035542429638,8.084899029518382,1.6308227055982973,10.19599726547018,10.544318212043683,-2.359417545397405,-0.363985978354036,5.41342794307261,-6.462989119339946,-11.5710575571167,-0.9576914291619136,0.21467495024540417,2.12911709397625,31.532923475203894,78.99261564101641,121.65759359609831,146.9187704502979,147.97168626504686,119.8738155998482,77.19711989671165,62.633975767368966,85.31282665568898,98.83891910672932,87.50663655798881,79.03229182138564,69.60487943917988,48.760206171273424,43.238850671445135,51.47846465793922,39.638461909968065,23.645040415714,31.548165333910028,37.22098674914221,27.78074374938301,28.457834691824555,28.755842434899836,8.140795388999386,-7.5771473004688215,-8.005263047497461,-17.96647641512437,-28.650348612769463,-23.597438675519825,-28.329268901018523,-47.32595247767706,-49.767856663652644,-44.53964733029867,-54.42266117467908,-59.0134646824805,-51.889881504950054,-56.74746347646737,-59.438043002597816,-40.07359719609194,-27.22365968232466,-31.332721373149372,-25.29463361880906,-17.00047623177342,-23.869705476510628,-21.880210818213744,-7.754215185726146,-11.406034564331296,-21.729251090056234,-16.386843927988554,-17.928090119575277,-32.69587502301813,-34.41368656281256,-33.969236551844304,-50.727630281788024,-58.50540327972032,-48.786659915775445,-50.94831961818229,-58.54142908167893,-51.41848005568098,-51.524528946533025,-63.843165802680566,-58.23558138282473,-44.38748050465095,-47.05294309153797,-44.43925477656447,-27.62735955825484,-24.70047144789313,-27.688610621312172,-14.32348390985882,-7.045921507411433,-14.840058903320246,-10.814515177866442,-4.184108871053809,-17.21815032288001,-26.813232585941666,-23.166180170576908,-31.306682758024273,-40.755727283160965,-30.013726965547725,-22.925130687748126,-33.63265638429422,-48.659704720028415,-82.77880261489472,-142.5682286533197,-182.64210778902924,-178.30618058166658,-155.0706245115247,-124.44938031057882,-89.65395484793949,-77.9395655865262,-86.45916177705955,-78.75834547960511,-62.29106200297308,-63.275527108813,-62.5010078380729,-47.79805126716276,-41.13725896356866,-34.98387701815231,-13.312491035464358,-3.465409094691738,-14.015094974540993,-13.350816556616891,-5.5943223533617505,-11.236976195730083,-9.119010236078589,7.291475558764845,9.471205298959182,5.270624465669606,15.557416557213806,17.350966334310638,4.562120495791505,8.281247663440476,21.165195230843732,20.747901578538254,27.548086312762017,46.10910758611801,48.007396013473354,45.343622628873405,62.10557223002536,73.16383474922092,67.2339736899885,73.6502961921468,89.62096585567261,98.85310637186586,124.6258621451345,170.09558475049414,200.664856673213,218.9109206365968,245.5725658997026,261.9112507328477,259.9059740944224,262.8752393998454,260.58878556978016,232.1605552594452,202.54968911509434,185.54920603430065,157.3416373450029,124.76727025997724,107.8794528045991,85.33997789721647,51.428299612629175,36.08773266425542,30.737225003269266,10.930828507406062,-2.740625051793702,-2.5583050466515873,-17.57294241529013,-40.218929924146025,-46.86136790087511,-58.87085950610107,-85.08350050745256,-96.09950534767682,-97.57812674018784,-111.65680846195266,-117.30324931899622,-107.03155664698048,-110.82433127017269,-122.2317868562787,-116.2501139824688,-112.70668661166569,-124.72678398904122,-128.7961879459503,-130.39817931656683,-147.0510192794603,-152.03708071324667,-132.86830420845433,-117.74815584735526,-103.24223528630448,-71.97829519439634,-50.85032843689281,-53.485899310401564,-52.207240874353225,-48.27758607978205,-56.51148424461735,-50.56260005726612,-22.581519064271593,-6.936870326113871,-2.468992904795497,11.407010312947879,13.957640767382475,-1.6795193052014126,-4.3263490070389885,1.5210785075474451,-6.468833208760617,-7.241882189017059,8.139076311354534,10.62527778084002,6.2928362210486855,18.137707799563444,25.061808833992842,18.111497439205273,25.870262613087252,41.06269270906114,39.93371687372659,44.123704566702386,62.816016318691055,65.5239178161957,58.31805060258279,67.98594791789054,75.80727119937366,70.19203635600724,76.6484582421802,85.86915977396964,72.70692612475261,63.2210127169799,74.9208441161822,78.80493975687206,73.63499773397523,78.0011987750055,70.7300851958093,44.674912227815284,34.18822248325113,39.061833680120316,36.377502138580724,43.551292367912026,66.8059131572745,73.28172918337168,64.42066425508119,63.85330779248582,56.35748425034884,38.56428931605693,42.90569595135527,62.23429148177864,66.16534600866669,68.02143392285251,75.69744757462911,64.49657762104155,45.961722045643356,49.10691264484327,55.552025991047365,50.59669340836591,55.57570337847474,61.38392544782191,43.65529532574109,25.521547843990604,24.108997862785923,16.22997528623385,6.754659827524442,16.994535251080034,24.67265249329573,16.219034113675065,17.50187207905679,23.267581427346826,10.66186201972491,2.9255150926949884,15.143924478770764,19.402394506412797,16.583165988132638,27.527457360061604,31.259512993345577,17.04609977777713,15.37916545791456,22.851060350524218,13.967602699285449,8.034545108527047,16.548133586283157,10.06569472476858,-8.133834813014499,-12.302085919197495,-18.4009334336172,-34.83282017737762,-33.243934971649544,-20.085681167003905,-22.182269390764557,-21.21864695450518,-5.6326123097812,-3.3650157808175374,-10.63336208544418,-3.5645764316983763,-1.4211636086821913,-15.309872503616015,-17.470401851062245,-12.164512343103258,-21.575600217719522,-23.91450465536057,-8.57913526789012,-6.082403507198297,-13.972622473023662,-9.249090226654545,-10.62396960411376,-27.053922051213714,-29.981898008972465,-25.223543053799204,-37.81742325888024,-47.90222901471874,-42.63044900232056,-46.55918150089137,-51.52103790199857,-33.48051523952573,-17.8554071924908,-23.53601995420397,-25.333235148844388,-23.763647747799926,-37.22898085442956,-42.543194441286246,-27.41776740200295,-23.33370398054252,-30.763494986053143,-25.38720378802448,-24.813103337366478,-40.88447548891414,-44.742408391562144,-39.122902114006365,-49.307178432276615,-55.33495415953172,-42.45101764621299,-37.97426224495942,-40.05202528078969,-27.38600508310067,-22.489048358403526,-37.20726120249992,-39.96454668431495,-32.34361639690767,-39.47779425713735,-43.0842279016159,-31.166029143416473,-31.587145417801004,-41.51487946017458,-36.607684486146624,-34.327267601984914,-45.088372258515726,-40.56621799037183,-26.67205898339349,-31.952472068635267,-37.35587514946189,-25.786754512059318,-21.99671385342652,-24.836625482187287,-13.919201795383284,-10.50668547806984,-26.248166090083956,-30.567060565241498,-25.311806707599317,-36.20325844145052,-44.00202361185219,-31.851689693779868,-24.61436103309076,-23.04262250625392,-9.402171559114628,-6.590013962532533,-26.224863087709014,-34.06645274553095,-26.338743565774763,-27.800583671527775,-24.694030447055894,-7.2887474924717255,-3.8888910408929025,-10.79759573900381,-1.1300492852750397,5.374777806434525,-8.234212560291333,-13.855369675411355,-9.380162487355749,-17.00074711036944,-19.132116403502902,-5.0920142454969834,-6.161621999496381,-20.424347982409092,-16.91596215109209,-9.444140766505804,-14.6112045094379,-10.349463470959492,-1.6788254096837156,-12.712609426622222,-20.20040400280467,-5.876090607607345,1.2177368955245778,-2.25405549558002,5.1249452100517505,5.2777507826565895,-11.779292960052874,-13.832588519877959,-1.2572329534114957,-1.5010893031828068,-0.5266129776794808,12.44939328390193,9.911416198744057,-3.7181592240088923,-0.5913897695275687,1.411157872859282,-13.748218958623665,-18.763671873431495,-12.512572242807645,-17.93312598958908,-17.114074316169674,1.9192690614578316,8.306665462664881,1.3231098037356732,7.353462078189228,11.188396139084109,-1.013513574901662,-1.927586610665525,8.539242731606896,5.23567297864604,2.4958394155458565,18.238220501555144,46.143876677881366,86.6245757001547,125.81466650300125,138.06589442995983,123.3038945075698,92.39891457497924,65.36356423437451,66.86204721968164,78.49222180332723,68.10369500754182,53.983927867338096,55.26707736945201,51.647561893376825,44.66668579472172,52.06563069247392,51.237190277097476,30.792355942382322,23.484261208709608,28.555306887494268,17.114817268494967,10.084263770355527,43.554573680202395,108.18370508553448,171.43649831946556,207.55093099684635,203.06895554370954,159.0585862502446,105.15097246890357,88.57030544130717,106.08387078699276,106.0475249028493,83.13027988651694,69.34212085802113,56.27379863496763,33.6980113133414,25.972618469877375,26.14393322632094,8.98665424430353,-0.8341916152616542,12.976876624538061,14.077406469551399,-3.4160867680222893,-9.52703357915347,-15.176307356893881,-35.76860580886571,-46.06299966798399,-45.382810062218866,-58.13729082577082,-66.7536461007064,-56.05652976355605,-55.156058189013564,-65.27287455180874,-59.5382334575597,-54.296943210211225,-66.77766007294446,-71.05303103191348,-66.87894791749873,-79.23074260806062,-88.25532401637153,-75.55865488269288,-70.19691371711737,-76.72960270689435,-71.91525862966469,-71.85932786417341,-89.28791392277776,-94.36829579522494,-94.50804891695304,-138.99468645142736,-220.56051100910946,-297.76456839772237,-362.4363860169123,-387.3955230553124,-332.69218186016894,-236.60008631899365,-170.95083294493924,-143.0786207956786,-130.97946682289052,-138.32242115753039,-150.9601865410075,-133.36840715595588,-102.22886152178008,-96.10256758608998,-96.20060923889048,-81.61988809377777,-77.33808213600864,-82.10913903423003,-70.06182851418058,-60.62017798775105,-70.7204773136808,-70.51112871826837,-56.610322688981505,-54.80323226846416,-50.961986341949704,-32.08225943111535,-26.30530906395123,-33.32177273903389,-24.76746242701502,-14.25690193007025,-17.67207597617006,-9.998831826544706,7.376872206781172,5.629284049794856,0.5342801707584153,12.429520257977666,17.86267947707778,15.23055964715848,29.366160606737107,43.31802342297276,38.39049085305441,40.9285111008047,54.73968164340359,55.26107569962377,59.24929203296658,85.14419583931954,107.30786489898675,123.9172593226156,158.31308959235548,190.3679959128184,201.4447864379311,217.98295813569962,239.67491090482815,238.36244776300413,228.77589751355595,228.13579604697853,213.606947425775,188.0669630665868,179.03997706076848,169.7900374996358,141.0289492225089,118.1435286592587,105.26346420470946,79.27426618892787,56.1438967113307,50.88840483995398,34.869436139820415,7.128220648315233,-2.270070293641657,-5.967767071423008,-22.541672623760494,-30.890700018102134,-33.49799620061739,-55.12916822873186,-74.26421260981571,-68.93765218226588,-66.83974766876105,-76.13827129918558,-75.07780578758033,-77.81934041717473,-96.8533475711659,-101.59904148108805,-89.514004522226,-89.36205666658383,-88.28612320168413,-70.43462072994377,-62.91139225584462,-68.70378268035718,-61.90946169115455,-55.556071877229776,-63.53910372017729,-58.1174785116644,-38.72876377729165,-35.493208629797465,-36.4998405528879,-23.749716235157237,-20.17716340613518,-26.24434183565295,-15.812754637350725,-5.101249638224195,-13.43514856567194,-13.544485706050747,0.751250631057446,4.035928542167298,8.796325052046548,28.65519540013012,33.28715041956888,20.47422155981348,21.93425949077203,27.38982676493302,20.430779616707042,25.826637472265347,42.80494245994058,41.79330297894771,37.028029116239864,48.55600492514097,53.11394151708758,48.94264129912038,62.23207011559741,76.56101108723512,69.99759263930382,66.94585112054267,73.72177883841769,67.50930298408943,64.19467149679296,81.44177442929552,89.6171126091196,80.5646277636656,80.8686664362271,81.74331934175612,69.00753246825397,67.30817581357677,76.76318253775834,68.94361854366055,58.29029642289531,66.09457734586374,69.33998101166367,61.554143432828354,63.08467590974742,60.40547780296356,43.27296164749764,43.410415851946,63.17572792600994,70.1992209263468,71.26057694769202,80.38691054131456,74.19875125575035,55.31320654693056,54.82376696067354,60.3525153059977,52.64724663402011,54.30141916505755,64.26460781251654,52.831911254222426,36.564933289716876,40.86940030276489,44.06104465146912,39.333456684651054,46.46518345138107,47.437148624611254,25.723762001205376,13.899242074658616,21.746255950220416,22.535728838291764,24.93791470532946,42.17558183407283,45.99501462007554,32.51700992604671,29.828977864746008,26.629210800524397,7.246092461028135,0.3594054871179532,11.467842680870184,11.626707616150586,9.195579467481778,18.83320506781498,15.027101709448173,-2.7211359490583718,-2.610806392843676,4.597759315183484,-3.185340628558488,-6.0336749596642205,-1.4417781867420074,-13.568209520242796,-24.79474908536891,-13.592110068167038,-6.92471189827692,-12.680329903242288,-6.118558778682661,-0.8636097805221403,-15.430056323653911,-22.57201491065165,-15.653206282880515,-24.305156337340925,-45.356931157320474,-64.98355940996211,-101.10826548343854,-145.27905745409998,-156.36898574045676,-140.70816801203148,-130.08447047391235,-117.42757773076488,-100.88966579767069,-99.27919355743578,-95.60623888506645,-72.99714637668359,-61.66686788270718,-70.49393613124255,-70.58930580329805,-66.80731296349414,-73.0745767314255,-66.19079442294489,-46.22422795664855,-43.175737379184085,-45.90898100826902,-35.14263047963071,-33.1706697843405,-41.262519872607314,-31.6593442007914,-19.338274228998774,-26.869582936721432,-30.53766344199885,-23.665726923643078,-29.41091549934235,-32.44164196761359,-13.987609029857083,-2.763173546895913,-7.926317684149687,-4.121563186180072,-1.9264566549910225,-16.560242893526357,-18.63429301922758,-2.8281644408508617,-1.7031809617371938,-8.074342302994268,-1.3662669312202738,-2.046938073517826,-11.023749182673312,1.6660941026836884,20.969595293413395,19.572820443390892,18.53396301248709,24.997508371014714,14.737864473706201,2.512072165428468,10.325309079759055,13.162462675261162,3.2212012336645093,6.802358087445229,12.760066997311206,0.7605008673786333,-3.9099395347711443,7.409622154775137,8.011353569445452,6.394962693961759,19.54638599278661,21.765333628169646,8.714676829837396,11.649754836548759,21.654480740681358,15.819529180961062,13.781826788137185,21.328154244576986,15.266920025702328,9.191400428392406,22.114199689814434,26.934622603111958,14.213504579592154,10.51742322866566,9.475938688139363,-3.866782665645334,-4.853046812408016,10.758585412907987,14.01901677664263,13.17243466835504,25.49238116163275,25.83992106090487,9.975735094916832,9.224029273981666,15.52984908104752,8.410292030780601,9.44501582331273,20.82331627257818,12.954007764925397,-0.02352571029794337,7.724430141628556,13.235039710914343,7.452631411278251,15.185076207445967,23.82220794005766,12.093606872999787,5.497011345620064,12.276315518058,5.585570509925496,-3.13861642958915,7.507888351381054,12.728698618107233,3.7932272483444693,6.584975168758561,10.594743079240127,-3.507349440480125,-9.901600299879343,-0.9915583850157228,-3.672355543739403,-6.839993959895779,8.610975451855039,15.473159247444025,4.384414244645404,2.391831654798262,2.0154305692883194,-13.535402678582896,-18.917261879733317,-9.035041269922395,-13.796042609192986,-22.769140766085094,-13.01055629506089,-7.171614978242181,-13.53261392987465,-7.565170384356687,-0.4318786370754655,-10.51956661794256,-11.389266438216069,3.885454746926624,5.03129996790572,-0.9107655978546667,7.067948518995225,8.459971698995494,-1.7632979903088426,2.2687000805304707,7.1370391560807,-9.002989216462932,-19.117990143213856,-11.731433784772417,-12.953774783279584,-15.67323866669535,-3.5135255084213655,-1.5962645689234913,-14.649457090245077,-12.210617318588028,-3.0654497847208924,-9.396293496149886,-9.64429901323168,2.995248036417631,1.5807942551619942,-4.684479214450899,4.496647581762217,5.8529708487735554,-8.362519942711842,-10.966350705437012,-10.086955766352187,-25.09411636163812,-30.959078080842172,-18.589992038616252,-16.492632253462983,-18.974338035854576,-7.890251887090563,-6.686348725475539,-21.32989450780474,-22.007848427759093,-15.549478780284119,-22.05927871608002,-19.58865686744498,-3.141014918241062,-2.7847582823702,-10.866148117191045,-5.215779701623557,-5.733841320871697,-17.84047636717797,-14.116445601353714,-5.540924143760758,-16.12973022554491,-23.673969533177594,-17.910074224443107,-23.214375929128202,-29.56797283584572,-16.895620488640635,-10.704798812093042,-20.923806746914938,-19.346491862915627,-12.491692181545268,-21.299363965861293,-24.0684192590573,-13.430438033612198,-15.630756618808249,-19.062748054580048,-1.540985962336321,11.103741189458356,6.617782335863366,9.854283382459428,12.724784132998781,-2.8721009668122637,-9.596205863849516,3.7159094664199577,7.563582003604189,5.193773017799508,14.585247406259544,12.462129386163586,-7.116854886859141,-11.297410627412209,-4.739225372631912,-10.978978269055865,-11.314329044913066,0.8229886643930122,-2.7468358469974787,-13.481425152794387,-7.1941273085189055,-3.7603653491712157,-11.563959529943773,-4.456692729390175,6.697210314636058,-3.069098747000927,-10.511945313405121,-2.9102418015948626,-5.367539343970231,-10.421723383049503,1.3657809555104263,5.604617910769246,-6.778398579900519,-7.295417089265505,-1.7929283100127797,-10.854151879160032,-12.78863699117859,0.5249553999549388,0.48862734301436905,-7.002406310493749,0.15228198365934542,1.978582378957015,-9.367032534393788,-6.906020157895949,1.2613215049047497,-6.3401731372715595,-6.639616967078125,9.762388350256575,14.445133584310227,13.122235957672252,27.09975853728563,34.622656725060594,25.630236086182165,27.22315924827337,34.31926443805088,27.669713517681302,31.08355234817928,53.604144963445066,65.49039762745127,73.21267081293071,100.21043634834177,124.78893262847299,134.5161499088486,151.5213459283724,164.5950894306954,151.98350974237385,140.8427781439007,145.8539501986005,139.00756583422788,123.03811990856624,117.07928567121834,99.05977990835838,62.57284112111732,41.37960854700756,32.745835498985805,11.774032315772228,-5.001567663890835,-9.877408987433652,-29.243822384354566,-53.28058556045974,-57.03098711655833,-63.16606003091844,-84.41105168788364,-94.94858475047974,-101.26781332061965,-122.84164146769723,-134.53255022222922,-126.83609242524938,-129.21250971225697,-135.08934646907076,-123.38145016287807,-119.38744700987377,-135.2725872263471,-141.747867669744,-140.3530562908696,-148.8129542243479,-144.03728483370298,-119.3025351333124,-109.64468189431939,-113.68713877900117,-106.00533865411458,-101.85755688116197,-108.6700606516788,-99.71775814488538,-83.65309725322726,-86.31722071905388,-88.03763374063907,-77.08065400502173,-78.41617234566257,-84.73340775281495,-73.49385848988653,-66.33525511446865,-73.29658502370884,-65.09284087175331,-46.30495876177271,-41.68641151594675,-34.52841397938555,-17.316692092503423,-17.4597874373313,-25.189306655824172,-11.60351732294641,3.149740674974732,3.2665898878733595,12.572580830420684,24.239939192630167,15.39859191017235,10.582310332321484,24.829391627849247,30.69083443789367,30.731513220766608,45.22516429537028,51.520910282104076,38.92801992836341,38.65834107654592,48.27576751575995,43.42762752361996,42.83724321726472,56.405095021670405,56.27662511738263,49.45642577756127,59.87224979299344,64.51267072315738,51.281750004428275,49.74872467132361,57.057814487404606,51.58147068874892,52.95815110365715,67.81412021672718,65.61235560170105,53.13314167070128,56.57914410883317,57.32366959805053,44.75103940404737,45.507108009041104,54.087627369993434,48.58173815189073,49.99149999093463,66.34676352062861,66.15198025380751,54.63232428365083,59.05779835891068,62.23324643553914,53.50200964153245,58.532435828853465,68.6845778528986,59.22481527155897,52.97132760476796,62.72739774833654,60.750975948537786,52.21088013085985,59.72302660385141,60.964572608670565,44.300333405072806,39.21131629466103,43.13621599251936,34.34060334818069,33.19405535496854,48.226252702298694,48.833825632477144,39.46692876028646,43.83647061103836,41.81371336957159,24.163188055277267,21.246569258535416,29.683602796141916,25.982045101502717,27.67774690761128,41.67595916689599,38.96217375121034,26.600923733168564,30.272202729065743,30.339406178123895,15.772989073700742,15.028220273616938,23.318873813279822,15.875287118365456,12.023932907356999,22.306902041792544,18.76973515863909,7.665094882232857,13.766727473763783,15.696828947579384,-0.345210190804325,-6.509284744742871,-3.0022892048681817,-9.996250401706314,-8.347920315843883,10.430556859149757,14.335732685825874,5.01783388087123,8.927548949494561,10.672113966728205,-0.6987859124213509,0.14132035446522018,7.755985031911817,-0.8879380749684369,-5.4017381877894515,6.508217932640419,7.315247905812651,-0.3127539311658394,5.964607474136857,5.863699261398213,-12.821604182652663,-21.49642168734656,-20.733806737468193,-31.14261700726659,-32.88717060840786,-16.37253355061721,-12.72892935783992,-20.117798824712636,-13.06230220731015,-8.906535630436771,-20.170903195327906,-20.587183891517306,-13.522083488076907,-21.800604642343067,-25.543059776423327,-12.7572019151356,-12.115450635112445,-21.02188874944582,-14.668439473491038,-11.52454208978137,-24.318723043316147,-25.757851488297447,-18.972208031537964,-27.353505814811157,-30.9837831279194,-18.360497629375864,-18.795468809364152,-29.25903367923544,-24.33876164512555,-21.508353705213707,-33.05264548422434,-33.061126457171426,-24.996840231642977,-31.523268254814933,-33.01478773050192,-16.81907199236324,-11.59146509874663,-17.59909907800118,-11.87414374943946,-11.40356274539164,-26.572163063857523,-27.664757854487462,-17.289811541787834,-22.09144538016605,-24.505521167741577,-11.102239835717409,-9.413422362448756,-17.427664052944838,-11.176732047152303,-9.161603113801394,-23.375218460784254,-25.23814776469225,-17.116259425646128,-24.874422970441202,-31.44299630808277,-22.460502906923217,-22.612646074458937,-28.466191214527797,-16.212467915190373,-5.706551122277455,-12.58841691353716,-12.0098097382534,-6.390453324558276,-17.313541147707685,-22.796341633581214,-8.470728380919326,-3.511146805183578,-8.368932058903987,-0.8422278985675664,0.6387612887258417,-14.07187486446919,-15.74555805441978,-8.260220936844645,-16.639949873397125,-21.339128961061743,-9.601706700470638,-9.641974295329536,-18.47610651736083,-11.186907517634818,-7.380048548461817,-21.01225089233535,-23.7111610707884,-17.068059009581802,-24.617652579795855,-25.717857772434527,-7.888945243283666,-2.9454069828820213,-10.553105445974298,-4.187747470216474,-0.41782940640361277,-11.59317795240213,-8.878882676078671,5.200581625029813,2.777910851194108,-0.5583460749632307,8.222709842672064,2.6905526049066477,-12.442345665596676,-8.810914816016219,-3.7885724615631613,-14.112958944469701,-14.494795417828563,-4.976405565537437,-8.81057677878583,-9.11679624743018,6.009125235517823,7.485136669989286,-3.2832585170569386,1.290425597474214,5.024352907802267,-8.427964706702822,-13.354764311338148,-7.926539612292665,-13.151959889441564,-11.003874404458577,9.972817447906923,18.201892441670683,11.14941422609559,14.842174279120618,15.8705673010125,0.5514041880953373,-5.742834942813243,-1.6427446693187155,-8.070310663511293,-7.753768571806193,10.17122427749743,13.429291146561383,-0.4320298008402581,-1.9507381219790785,-0.15733226783997256,-7.181936620782981,-1.0387487559788875,10.911028517063233,1.6509358278794997,-6.767310618639144,6.942962768098441,16.805174671293003,17.85862535865768,28.964721977941384,30.952944467256586,11.454687001547732,1.3425836334787957,2.7913976223142507,-8.005403548009783,-13.074047457930122,2.5153333780240263,9.923662027749048,5.933733290010036,13.111180929025698,14.460148351209254,-3.1161236760546256,-10.060640184837082,-4.4332160121013615,-10.874694425338813,-12.856437479568513,4.071602169187414,11.339277134712678,7.173805376932454,16.151931800099916,21.482242503962993,8.742527442793653,6.051817253568369,14.378984187943562,8.84084905133537,4.8600231472399,14.960695941091036,11.609096128415171,-2.25748286867094,2.5231767900243423,9.164623960151047,-2.00284142818811,-6.828087384704716,-2.59827668416112,-9.846334179018452,-8.811044476294136,13.342084250483802,21.393684822933636,10.160172204694693,9.9312281504594,11.490694376806626,0.8399624387730009,2.2832305103217765,13.976461329147423,9.19145767635101,4.967637134979281,18.057121936427656,19.405992668659987,5.050539624815879,2.6375230172933337,1.7198953690285543,-11.167762317697214,-10.65107170234399,1.7000597199439316,-2.5585129450955075,-7.597916952348335,5.109560052549963,9.971630210169302,4.428936317145698,11.81681407435888,15.162026556286323,-0.35144921361399906,-5.968286385127293,1.5549650882970747,-2.3813487119978487,-3.7648067764057354,10.806957276800578,14.604087301487663,7.020798662514444,13.075815539995286,16.67734841731878,1.8748745403728728,-4.208754924891352,1.7484137640489865,-4.397751316462239,-7.84191380588123,6.224424483550557,10.447078153008095,2.560696204805288,8.714658582511289,14.526439488286567,2.3072913804692723,-3.9947481837167587,-1.6725793407183702,-13.140561825683024,-21.30485029538916,-8.505792193841627,-1.3141135925028324,-5.318256611898271,3.589040157130849,13.155181355030521,8.5066125979048,15.32142190572311,34.80577790455784,41.19311996877661,52.518387348118345,88.21910625796083,119.59667893160066,139.59118555592983,169.55200419680767,189.99744548803434,183.05613542852743,178.48671778222464,180.64587047833274,163.2907580705049,142.07944128043712,133.83962810538645,112.51551203160471,80.37349340167624,67.26117814515226,55.372155154060394,21.399364968298663,-10.450244663594923,-31.66777516414258,-58.70250066193593,-73.11686904102272,-64.95754055747213,-72.74953859385155,-104.41557024240606,-126.96750875148614,-143.24109111066468,-163.21699767991709,-162.00336197186527,-145.23782073255006,-147.77731422901377,-158.15164561873215,-155.44522576875124,-158.73129990026865,-165.92462942762913,-151.7132113443651,-137.48248934281466,-148.65906369492674,-159.24975505678103,-156.46487143310964,-156.06883695019377,-142.9302326217351,-108.22673399190703,-88.4154354696739,-92.72209153187328,-92.93524796438369,-94.36872841113305,-108.2509169973892,-108.1776070008786,-90.98191334557632,-83.31747465138965,-74.00142366140622,-49.52222432328403,-39.69852055031352,-47.71110295563469,-41.031454806637484,-27.40730082754083,-25.05899599608799,-13.482625849183787,5.719098001350822,4.269456675847572,-1.2982331292818148,11.508882619757399,17.611782910961654,10.752910444752152,15.91909755095023,20.053333299764816,6.5524595723572325,2.896642891828197,14.004028790978596,12.954626561360527,12.16775817231816,29.557298541515475,38.56588423782354,33.52875783995975,41.18832822029327,48.946357148959486,38.75843098604396,39.2266142466456,56.496829178843704,59.58004465894942,57.07609400888419,68.22046694030934,69.77638103591977,59.05359547081282,62.93603500251274,65.0273278438692,44.22395612373761,31.209643614624476,39.11624024783807,43.23590428747321,49.65101556076178,67.01980098986222,64.79570630536156,43.72605854691364,41.574331558519624,51.690331544168714,52.03131972276516,59.481587600680825,72.8840179152366,66.05917612129562,56.08972152515122,65.195783908689,67.03138502808208,53.89982921945254,52.657570177953176,53.05314842705147,38.68536292973228,36.045270845314946,47.577568309944034,43.65408116279958,37.50674764311916,49.35908057584531,53.057124931162534,41.774152529891666,41.60328095072449,42.37875212752077,29.797420042178626,32.197473505073006,51.03143738249844,50.06727001323149,36.769524257159226,37.06671767861816,36.04927545424085,31.55034308455813,46.02886608109391,57.886365286893565,39.8839565436499,21.050895952138227,19.220845707654597,13.51833974503656,12.127631620093348,28.72032828917412,34.314057878008384,21.369589801370857,19.28584028782964,21.110836974893147,8.859014493354277,6.7635543017323245,21.000446316932916,22.129410912531842,16.258212069311977,21.225402522919694,15.194146266145067,-2.973189578463657,-1.9663875283966967,6.192155300991059,-3.5303990986422455,-9.983193430443297,-5.798804222582778,-14.11098813589697,-21.09022163542154,-8.121320121285418,-2.6634585479766537,-12.278471479265896,-9.212902505239388,-2.7162963678681447,-11.847367664623732,-13.758994748900886,-3.812784154360756,-8.749578300390164,-17.245322386439767,-9.873863965081192,-11.120372731662215,-26.38233809847941,-27.256966988763992,-23.346208899362757,-31.692462250705763,-26.091376823651913,-4.667740179047088,-0.8539053527921272,-5.629075913482474,1.9900710419357317,0.6679005275141532,-10.714158279251748,-3.3998990319138622,6.9777254499828185,-3.974355377613257,-11.113474196021743,-4.913236441903512,-11.417136365886176,-20.739749136421025,-11.896021765468028,-7.743280678650567,-16.21620633225617,-11.30593569471661,-3.7417646147845813,-15.424644502947627,-22.303329703334903,-13.761444039893654,-14.40743785508846,-16.53247469823799,-3.5460003010540855,0.34178107731727464,-10.31813237611048,-8.60409797671888,-5.490378355030404,-19.571973253351146,-24.427296401351477,-13.318222703704219,-14.457062665062672,-18.809118274652675,-9.623787072603097,-14.06180269499868,-36.37655991554073,-41.77615446202967,-35.589767394908904,-39.5200338926616,-33.37261089725599,-15.307094235517045,-17.30260074591857,-27.339723778596998,-17.824665184479098,-9.606692908285424,-13.19127853217302,-4.681467106126239,4.933603459364917,-5.94533018789626,-13.104357566790696,-6.821856224386867,-12.493183742577376,-19.798276587980336,-8.333378441657178,-3.534160329871222,-16.023560809039832,-19.570137234788206,-20.263289319526656,-34.14905814007293,-35.593186157853935,-18.75823268327716,-15.658209080477539,-20.94158423168416,-13.919981651317368,-15.044597376496625,-27.747600804527185,-21.810028162976685,-8.651794365704598,-14.804395389888791,-19.694367712930124,-13.82166641260622,-20.53829886470939,-26.343264976773085,-9.710358835015331,-0.03195228782083048,-11.478084547035728,-15.824339249774322,-16.39746402376776,-28.872531174115363,-28.286791053885885,-10.679872773298763,-8.91762607521942,-15.540119103400084,-7.271495132730933,-4.434598343202878,-14.369633241190218,-10.778294891537882,-2.8310876767432127,-11.784455272848096,-15.126154767977695,-5.023265639636388,-8.88583622347144,-17.78983204554917,-9.621372077283569,-5.718269489130039,-13.399332050537568,-7.046130272778306,2.155572215370736,-7.967126697264885,-14.147677207836889,-5.957885709552588,-7.201796921267645,-9.470974259934964,3.482452165065517,5.40547405737596,-10.023973634245953,-10.776627430385494,-0.8694000689438424,-1.8776393605055879,1.9464120110055783,13.14304646613366,6.4168951446440285,-4.498367592199596,4.481139072859246,9.38411640662663,-1.9436555680780252,-3.547890576880767,-0.20716482826493565,-9.00278574082769,-7.026168815600804,10.04589832783289,10.99783772842456,3.935598256901603,11.598140671121616,12.174755488487495,-1.3940097018705098,-0.23045279457019596,7.6996646193756,0.04473518537128207,-2.1692787634491055,7.9286226036226015,2.699759068872127,-7.195031974329027,2.480398514082853,8.709947919142623,1.7193141495900566,8.572871235953121,19.303981344203148,10.359628058034566,4.9586723830606125,13.426798047068546,9.01205718427699,-0.33962850203413364,6.475604024364225,7.301538719485951,-4.3400063260458035,0.5614668098824338,12.286984343355265,5.02097666166698,-1.6333003442895517,3.185986306161799,-1.8380133246184656,-4.7745501787330715,13.829249150318578,25.25054964387376,14.998398920877385,9.746497667113376,6.36872379349291,-11.829184367987535,-19.587183761935723,-6.192152761570172,-0.5755879625201746,0.3405768761472423,14.980212616275304,19.813097833762967,5.8145098362657475,3.045823737347947,8.082987817387824,-0.18156851997703516,-3.067343017802098,5.990126442590659,0.3327978358256387,-10.559263967062254,-2.4602911348516683,3.546435174008612,-3.2477433629052976,2.564434436794979,12.245026473866607,3.4296486322563577,-0.7961213616033848,9.44401505981195,5.777309712499993,-4.153232872533096,5.116361978261795,14.348666445867797,12.608933742403497,23.263463280477044,34.50172530288982,20.607945136485487,6.266985765285931,9.354001318189804,7.429099122004085,6.23592756535059,23.547637993052298,32.31513334129328,19.57686987064138,13.74811255137859,12.64981861028878,-0.7584443796731808,-2.5670202560282185,15.522338144104971,22.239369994222823,19.018567471156132,24.896162147721988,20.37314175315317,0.8066769950337971,-2.5960477680401963,4.138791236118437,-3.053603146521085,-5.459631379030853,4.7641320332887025,1.636675487299871,-5.1548744508850195,6.985267286412056,13.839214761472821,2.4527117927406556,0.004533724266621686,4.275864628467762,-2.5083854635177474,1.671444575771734,23.823004664316137,31.88742090499924,30.44517668312567,47.51579884848464,69.08665873094802,85.01320842491957,117.32861921131762,154.6018503883956,169.4369924423942,180.90447553320314,200.97146754665425,202.64064243224863,190.94415512000316,189.7467134405988,179.33198831521955,149.878942618749,129.88580183764265,113.9664962555259,80.29340379215571,51.74979488019609,39.53580897954071,17.04725932136126,-8.672240119531399,-16.190652566572467,-29.053529342765096,-59.496104924939885,-80.13403523824073,-92.79264133208244,-115.50146206923193,-128.17642117156058,-125.51527137757688,-138.74718493567755,-161.72191114070188,-167.28687288103973,-170.47625173280645,-179.20142654999592,-169.04423982850466,-151.73609205985724,-154.78945808775777,-157.88015184624587,-148.62578267231524,-152.4412750222339,-160.11035872625263,-147.06954399924922,-137.54124005093368,-144.49213683245162,-139.0221034650634,-126.49519430348786,-131.0789698616509,-131.62614729703228,-115.98102007638116,-110.52531190257315,-109.0591012589285,-89.06506555359843,-75.2319837592538,-83.68166670848929,-86.24196053118014,-81.67075180427067,-87.48480189772607,-81.55024801864712,-55.620719145275345,-42.83567024720304,-42.29516165257725,-30.270944804549938,-23.414623411064476,-29.48156326894493,-20.029304151805142,-2.591084502657396,-4.701620796026921,-7.673673894926753,1.4057774253639232,-1.8014273011179416,-8.313412363769508,8.060640204990477,24.690345447697414,24.284699084020588,30.315403109445406,37.513386711474595,25.197083895540693,19.267660273743033,34.75055499122464,40.8626869321269,36.40991746814812,43.42195246369403,44.87791577771796,33.44491758250597,39.03092948382897,54.862818098804055,52.56071575035534,51.0281360351724,63.492466957529096,62.20563253099388,51.21001378279115,54.968451006657396,54.56113256604423,40.9520321378829,44.831124174039076,60.45012265180476,58.31737587515123,54.61090752501471,61.78319008784951,55.05294649999483,42.7422311076307,51.693307073682796,61.224982509225796,56.18947296088989,60.98101575134467,68.90274666813943,55.64840633704595,44.969484085046666,54.42143990846708,58.342243681725414,58.88404165300964,75.01539878592193,80.32347328233533,60.44519399349653,48.04046941323791,46.450732192535746,35.70736055531846,35.02728212930708,52.5071104285266,54.882589449023946,42.95908977891899,42.79655369488109,39.027327763712364,23.167206849121243,25.511587480364486,41.42097759476679,42.453906653913066,44.10068198802369,55.86855456139726,49.500077414055184,31.882721102490414,30.757276374345352,27.610974216959296,10.511006868359013,7.650673653787673,15.25639507433406,9.66898716522095,10.74945708566821,28.357892571062674,31.235970407763222,21.14391819127681,22.198603831622087,17.787204673318477,0.22010337289605086,-0.7715084164917858,10.106601790818265,6.757635661996233,6.965049739916962,22.358278952807385,24.568788890587392,14.909357061297175,16.409240888037385,13.057571322813036,-2.5942752465795866,-0.9394260372513981,13.30957497530637,12.237700322363166,11.003959698202364,21.380150032443105,17.89622352379399,5.809037616784201,10.787837283232353,14.171330360376615,2.3139839984297623,0.9622932811772165,5.207697585147077,-8.438479398465965,-16.14839656453324,-1.1404686617089164,7.539548466377833,7.181090985943666,16.395665788007946,14.565985077955983,-6.622098366665857,-12.688332360195133,-3.8775238189325663,-6.928197791821141,-6.262089786810453,8.082431808070115,6.702201176443028,-6.408892386544723,-4.129114805005816,-3.4651959596911155,-14.967061265828367,-9.824371005948151,4.348089957311153,-3.358238297709957,-12.965201213208275,-4.833260660360672,-2.252110579314368,-3.4485465658858656,10.468584415406422,14.06024707974956,-7.237956770311192,-19.790475626898328,-12.945909119381394,3.531572904401676,40.15960102142989,78.60376400966527,81.56574811405201,60.55559657706867,38.83018836836146,19.173052184859944,18.29474044080456,36.02835119921492,37.35806114306449,22.831945554707275,20.21656320115549,17.041804645790293,0.6551164823010112,-6.140841636358267,-6.5564630152629935,-21.47038536735449,-29.709691008111488,-18.72469592367267,-18.51223177638395,-27.500691121314667,-20.103759329837356,-15.910479526642554,-31.185698382828857,-38.69463527365077,-36.794610866686234,-45.63527502121202,-46.19160277496024,-28.271065023603317,-22.630115048908415,-28.778367659552814,-22.181206651397467,-20.647248245362356,-36.92867169915017,-42.057182732341616,-37.05298740267508,-46.50490537702116,-51.17177133673569,-36.99973050186652,-33.030049929591655,-39.76651354306789,-29.307411513342508,-11.216109089051923,-5.790312161524285,-4.666137181314776,-13.567868308466252,-50.6263767275584,-85.07528823245195,-81.4117379365414,-64.60026879234368,-57.84374989390005,-53.37157518302835,-62.804205460410415,-86.5596098204105,-89.3272784003143,-73.27351259745109,-70.98919776469857,-70.7433711817047,-57.622186653503604,-55.36561347871595,-61.93651183673804,-53.96354089607313,-49.08692199247044,-59.56401203101818,-57.55375937425579,-45.55815297066266,-49.80148861255809,-52.59977824968494,-38.76931685992929,-34.835319605281306,-39.338336481315366,-27.308932883009213,-18.338755338271966,-29.896708192921125,-34.843076427675335,-30.53583089807005,-38.6206535352879,-41.21204143735066,-26.42151002709032,-24.57043930943743,-34.46686759171865,-26.654489776329996,-16.57484348696077,-22.921184127659036,-23.16273667293205,-18.799667418618476,-32.612121306276066,-42.25594768752936,-28.96266200472186,-21.505714330500922,-23.906569758663014,-13.129202919000289,-5.954705653402144,-15.428926073035182,-12.090798035653476,3.1111600738499314,1.1614212561478325,-2.3552362406704246,8.86221662019787,8.477651936678404,-2.8072085376705034,0.6513942162754285,1.1445790536774407,-16.32931061128469,-21.67313934633727,-11.103860799076905,-10.211450567456247,-6.503830810087029,11.653749707735216,15.966933528777142,6.65782994568691,11.446726497943509,15.86747881829448,4.979827644089496,5.6658755654263135,18.64347334453477,18.274762801801447,18.4226464236524,30.69558215561786,27.634177717934186,12.612926644312273,15.277027393912181,19.78662846391647,8.325981390327431,6.110028910173271,14.144994938659574,9.387845628837123,10.623722405910243,31.63019533370516,40.46438488979542,33.58093840274946,37.09614228387438,37.60704512625255,23.26674225421734,22.01431785684422,31.882204883103025,25.10464305265797,18.356461365836875,29.374980593189743,33.78802125929303,30.71200497880058,