68.83776351382596,96.11876477025083,121.6535460255734,142.09817360637163,141.6211630317126,118.32813401128823,95.15242644506928,79.02234041435133,60.75498291231561,48.03863492167434,45.22851138311311,38.030506602550304,27.425990728980196,24.387847796967346,18.567748264945003,3.518671713251145,-5.949236137651643,-9.57533486478027,-18.607898056352273,-23.581987557228793,-18.88758623498279,-20.071474883274323,-26.568536368307253,-26.302681929274286,-31.158588040256923,-50.18784419076265,-66.85518428108047,-75.99871207529469,-84.98893886224192,-83.81996052603675,-70.20937096672584,-64.4043256565574,-68.62898943672513,-68.36037948522662,-69.15296342129587,-78.61179204319536,-84.69870088071939,-86.49990305019932,-95.71073044538599,-103.2341014411459,-100.35113443627215,-101.44528818176565,-106.71865087702368,-101.87886860266183,-95.77435099589277,-98.60018019352205,-100.55988451200551,-104.14543429112192,-118.3357008956476,-127.1078846447283,-119.28284102406005,-109.51272471159012,-102.82509544373437,-94.73350643752366,-95.96654093238726,-107.90455384886106,-111.75128516217056,-106.14464063089426,-104.02966499973112,-100.37124641502005,-90.43076331133642,-86.31887891176055,-88.70195640739024,-87.71964599169397,-90.61314431451383,-101.55646760592114,-103.85161284154233,-96.35886221249052,-95.22776761491194,-95.55593360937483,-89.65892503086513,-90.45796659686853,-95.0038907449506,-85.4399058726686,-71.52053929063992,-68.0791059752739,-66.85113261125062,-68.82522423939201,-83.70609539285454,-97.69384157788184,-98.85176919276553,-100.73331016843767,-107.27824905561442,-107.12134830478544,-104.18164841938524,-103.59673809847634,-96.93258003036017,-88.64338817150627,-91.26347078726488,-97.03816222622355,-96.58792990137505,-97.65508972474088,-97.78059553104023,-85.70515703271289,-72.81789370056788,-71.02113217281976,-71.39906683839152,-76.10667034390565,-93.14534424617733,-105.33799176710714,-102.04630230349912,-99.69501333826219,-100.67452604350093,-95.95931432740392,-97.24715629179961,-107.86939133598173,-109.10471892216206,-103.39359332325549,-106.80297368881516,-110.45999753751589,-107.12178362480019,-109.0023807904856,-111.59271965663702,-101.59640731010468,-89.47055655223308,-84.42495672733114,-77.67709884039857,-72.95297657524145,-80.36241290795967,-87.4923482475701,-84.49262247957199,-83.041888523143,-84.94553210347419,-80.69868097436243,-74.30869327261082,-68.93674538584922,-57.97540188382831,-50.026302269688614,-58.53715355272846,-70.36679299395567,-70.32251566683954,-66.8169198017257,-63.97475553238439,-58.43082777432285,-60.06173587399445,-69.62968202966344,-71.5733939595221,-68.55068773236148,-72.00431479022645,-70.8780979194094,-57.113053243952706,-45.01838312227113,-39.90793154779788,-36.105929426313054,-38.70760768980361,-43.66019824282343,-33.15933397078224,-13.714716018724047,-5.925295049410362,-5.440579316711232,-3.1608940624527206,-5.078437880343265,-6.229567205787493,1.374394941494867,3.047076917388321,-8.643281818144507,-18.023189590343215,-22.832686053240064,-29.284356396766213,-25.865332733481324,-12.13812235663432,-6.910977935185807,-10.700713274147725,-13.47563915159525,-19.87134976717804,-27.68998314522782,-23.603070497011885,-15.212547014356332,-16.20675830970758,-16.013365409726994,-8.271050674404659,-3.808956132933682,1.8885080982857385,16.314364950347137,24.38949359672108,21.718235375180242,25.36186646692816,34.01858107362996,35.72347015173245,38.58073145925015,45.73759168681602,44.59913442476463,40.73057459853362,46.317301003839106,50.47924824787366,46.58937149485078,47.5474553573149,51.8861496851267,47.864305535198085,43.730993818135445,43.19146496115431,31.875364108493482,15.567842416648729,9.99071468536794,6.681613307029462,2.5224609065173844,11.421445243079638,24.337558743031344,23.363359673642925,18.36130258958374,16.65410002749073,7.396095285708483,-2.4549377596385633,-0.1305921701434971,1.6369830982827676,-4.993768455402612,-7.76555007401886,-9.191611398617658,-18.03826644855713,-20.73298079460961,-11.447909322775473,-7.273540564439967,-10.016195968701638,-8.487544222741459,-7.8887223345824,-10.265783166817817,-4.349682374121321,2.4710092291397365,-4.868797295131323,-14.110288342618908,-13.434292116839162,-14.353446100278274,-16.01478999835102,-8.386903101501566,-3.1475549133185403,-5.450058626220871,-1.9130541996298382,1.7366615496467275,-5.831635699136736,-10.4333523714055,-4.557963346483379,-2.1630909572834174,-3.1714292992713524,-0.19525940759692628,-2.5171451680102437,-9.867460955035634,-7.5200468883772045,-0.19049490725853024,-0.45109730444832796,-3.093441305891665,-5.232795727698054,-13.96641421664009,-22.77701122395037,-20.28965607289813,-12.412584627659113,-3.5315731459419815,10.990831851316491,20.16034307182058,14.388933335769607,7.652648161002628,5.692631940456728,0.7166654796623984,-0.12632463192895338,7.6058780279115545,10.155770624427461,7.27338605512767,10.882771453447669,13.557289154296946,8.506872311715377,10.575027729480645,22.897441361882457,32.10280547350395,39.17963588374785,45.83095844169483,40.18906196401445,24.87846059899875,15.703021205307504,11.39867401479455,5.816158272051893,7.66229895984014,17.845242334952314,25.180504251490653,32.3641164287787,44.12518841929295,49.077958422542224,45.735288080451056,47.42338602516507,50.03954906788678,43.485844858140155,37.85625535204655,36.28615128665119,27.946687603918384,20.769250088317676,24.703180252466133,27.262925926481557,25.437179574076033,32.32937771586308,41.8748067377676,43.182081230412756,46.85394909357097,53.28581847528908,47.780556955303176,38.06068727025902,36.525583955905844,33.09315954957645,25.59109050508679,25.791736923152623,26.821605915963396,18.500961455342345,12.425820031008223,13.232862068150013,9.999720256980172,7.521362420192631,15.120301323185958,21.023989346314337,18.42420835278527,16.677262564906453,11.135955846801814,-4.185417308191093,-12.857866357432146,-8.7035480744162,-5.166586128967611,-1.415971044694693,6.64982019716512,6.420272151593345,-1.0213225216507418,1.3381735068534357,7.150281385157525,2.83205239493369,0.6434406010923287,6.0521625927613805,5.812503308715964,5.734729156260505,13.863712342730835,14.650105628028024,7.44938377649401,10.541328503560116,17.35423183408844,13.366945842512155,8.452472370460104,6.514332841266907,-3.3039023055306758,-13.62556480409312,-13.871988129267443,-14.501202965773413,-16.3710022090155,-5.065556545389591,9.923882312779341,9.96288827484997,2.852780407364916,-3.3150789691660414,-14.31839705832504,-21.41395979943361,-14.75739417955375,-8.955910717679997,-10.91906096356667,-6.9960285927666614,-2.326881336020866,-10.8318780981731,-20.12485716897558,-20.43385979701343,-21.466743275814416,-19.209172002054032,-6.967034373048506,-1.067176097465996,-6.278222657575536,-5.688802401450474,-2.292517975997459,-9.035186614612586,-17.796956088365324,-25.48939182207062,-42.761519263026294,-60.44417704288772,-63.49417140648244,-60.09996740139476,-56.42120836669953,-46.45912102582916,-38.529750088862755,-40.91940762389324,-39.259416515794136,-27.944498085331237,-21.061453716075583,-17.058345640046163,-6.551701468872395,2.040788319364941,6.482860498785287,15.278678375974803,17.815667162503452,6.3588337035159945,1.2390412617972215,10.353266607755216,17.349057921445926,20.61468480423068,24.631850827231162,20.111583920068533,12.495435272127786,17.253678256697054,23.767270648244807,18.17015150628014,11.516263339609969,10.624244248874195,7.960015357176216,8.20376870292983,17.070084060809883,22.55565240543409,22.80192558968352,29.87791302038355,35.5518507188044,27.114662562850448,16.752418603087595-5.2024426358131866,1.11688616333873,10.106924566592811,18.801869695504223,12.788795342772612,0.3508097329753195,-2.652035135677239,-0.354509687392942,4.392839038311252,15.84728718829463,22.35563871678002,12.274537950103953,-0.6060615826437843,-3.2897421192303558,-2.6393341800693264,-0.12976176094428538,7.117542896241399,6.477096363575192,-6.378223872018294,-16.35492906765921,-21.334565608655616,-27.16632140549015,-23.79942520795782,-9.456644457019742,0.03157785814723724,3.802602524136624,9.043115663511015,6.756217470369403,-3.3882172595384445,-5.444208245901477,-0.2796439870233105,3.3030876845651576,11.76350378133227,22.759610464571214,20.131408906143513,9.64308844061393,10.583110596215304,19.870742829239873,28.432255586791968,38.38466318464134,40.28344728372628,27.520883300797834,20.873801716761214,30.719582413403305,40.29896446298366,43.20832731325187,43.53947447703695,35.833854388240674,24.78885232667895,26.28701886797103,34.87337679467212,37.06323284394642,38.786378183194365,41.85535822091604,37.418102874000304,34.455643591096305,43.407474828982615,50.4710457322971,47.61376882058583,44.71804244681652,39.024194620013624,26.552921699148587,23.693365188419133,34.44075775479718,42.949458733846804,52.739220400039116,75.90392115190869,101.72099302897288,123.55830298778321,153.0385887703266,185.1948071752266,203.86567487347995,213.03453137196672,215.72609663332963,200.2312324559074,172.71814391157142,147.73333194991673,115.76125083411148,71.37428237996531,31.65043151734473,0.8920740222052457,-29.152368987757246,-53.24521548054478,-72.29257356899538,-99.51547756585066,-126.5558985941252,-137.54530635721102,-142.45963525103414,-150.54325260609593,-153.96932416828272,-156.50393365714365,-164.65895607975227,-164.94888464013528,-153.3787485977016,-145.12453034204253,-138.6307753435777,-124.03058051405407,-110.67173961396041,-104.5165986724249,-98.50309506248033,-98.86919674750176,-111.51736610700362,-118.85379278285546,-112.7568688397049,-109.450951581456,-112.8879841742077,-112.92399572930267,-107.35141198841936,-89.50045221992941,-52.13636678713326,-15.707495931244686,-4.601054839387656,-9.629989327365504,-13.142410082701979,-13.149702003638664,-4.459731246603527,13.881086315390574,23.484497581552247,20.344936887113175,21.281464315587186,25.78837612130632,27.15046030633468,35.858924930076846,50.576750907341925,54.6281360537276,51.147608867185774,51.06034904334327,49.65866913100028,49.60897087122057,61.05730638920951,71.57988333574755,67.1069194741245,59.77961896980145,58.48478328101393,57.148019298419904,61.08050519691878,73.90355159337332,79.1015822808189,71.42214142693568,63.54900256517574,54.88860981866568,43.17049244026261,41.84069272235534,50.86711057721253,53.39397541832087,50.04799144979426,50.720966735618006,50.30593205435116,49.32118061798622,57.631305468204836,64.80616889897901,59.053339103753046,53.954278040641206,55.141390337982976,50.627997534088834,44.91774639597466,46.83805199536317,47.293856509252485,45.667513081524106,50.86350708130418,51.54654360708626,38.25405161144444,27.80931509906882,29.08602472303045,32.9070863004009,40.28608973247393,51.434132977670956,52.97222830495829,46.019244195480674,44.17811124421039,41.981590380711324,31.403798369366985,25.55218307800989,30.862023428180105,37.072993683467885,44.33819305046513,53.40536498268433,49.52324271244858,34.19222986693446,27.982823927532113,29.533222767735325,26.86637255585887,26.21264343299057,27.905722758147654,22.64938904568372,19.957622224007793,29.513945420338267,38.80264285209354,41.181052916613105,43.807006467764495,41.76042958374373,30.12215800118141,23.219712187371165,26.369681508459053,27.43923582471611,27.70844620736799,33.025571840226405,33.371409215626066,27.933449648598046,29.649232456992948,34.1963991560582,30.204434443356156,25.56929157157566,26.39676825372745,24.69939133939795,24.755905216879285,34.47538605964488,40.88613568863678,35.61337966730236,28.478202244223453,19.784631724280047,7.081461480870299,1.8663203482819148,3.1008332135152874,-3.319871049170102,-12.838816750039328,-15.61758913580164,-16.414735517249945,-12.65145067545658,3.031258130384706,16.82308753316384,16.289060060481454,11.381492135838675,6.020013368634317,-3.747201574935917,-6.505551640385351,3.8190241519650887,12.183951291886386,12.13331918742336,10.849147783120877,4.576632389562052,-8.589250387529326,-13.041496204413992,-5.018415477239159,1.0228622795258313,3.6183423713798555,5.748502958973951,-3.2641389528079032,-20.141813479086473,-26.232119459768686,-23.9505747562721,-24.155819182520563,-20.446669241178967,-15.182291467760242,-21.967629648542626,-32.32780562202497,-34.31845097993779,-34.97897494235356,-33.06408876856854,-23.530973605505274,-21.35931827151304,-33.65606053372706,-43.53351842069139,-42.30816190755303,-37.108924552939584,-30.08112068838159,-24.777668819625,-32.07955242376546,-45.499268348686925,-46.74514504986374,-41.10087104483911,-43.41740858596351,-48.41380419930438,-51.54927400260419,-59.93805238120192,-68.01129600019321,-67.23298992872708,-65.6193516630959,-63.29525108946991,-49.35703604004853,-34.28895642778363,-33.69830805444757,-38.23910313838067,-39.07576088895468,-40.67339591349638,-36.996384182874024,-24.28564535474419,-17.84595067778435,-21.26086593447596,-20.168768114244575,-14.091700265675897,-9.990060977610726,-2.474451091197243,7.271276865083271,7.215243232138498,0.31902808002730865,-5.210120301774232,-16.285675799704237,-31.546603759629125,-35.746112436633794,-30.64601565200472,-25.512782506117414,-16.294799145437317,-8.407272599357764,-14.489548631659321,-23.5051389862061,-23.23220245692006,-25.33352821427755,-31.755625147340965,-29.822030865580643,-27.136623461978914,-33.65004558593784,-38.0899018811978,-38.577718594933756,-44.216788519667176,-46.09603336501194,-38.40935587499668,-35.56294673354756,-37.1290854433731,-27.308174163122494,-11.510438619302544,-3.766991609496559,-2.910244634762223,-9.896458045989853,-26.375889849238696,-34.69732605782267,-23.80945490897772,-11.060602823868305,-8.050310663365249,-8.426665453114932,-13.565142441886206,-23.11688363760319,-22.577855453579577,-12.268511657803487,-8.750822423661118,-11.568985824108601,-13.403604883558403,-19.497057530169947,-23.925506203605813,-13.273919174554516,0.48059115280840237,1.375764822158232,-2.025524587872977,-3.549275182991879,-7.9053604540934606,-5.970364506828677,7.371081198320977,14.808527236824549,11.736164106598821,11.098188157603197,9.24325552714457,0.48690242301570796,-3.4623187509571025,-1.2168434187438653,-2.4381061282441667,-1.629700691148878,8.077291347009359,20.508607829606547,35.648112766983566,59.19398468377444,81.64380948267272,91.39419125966499,95.56010409306342,100.56137934543305,104.59265564864289,116.60519398717116,139.2836867479046,153.51228517551067,149.4561597851473,135.49700899069285,115.07435997560506,95.43141802636093,93.45418383983488,105.29832511757442,112.527126869654,115.1377486030045,118.85702852853152,121.84762675651305,131.22452480984214,151.21938039775827,164.6976546563324,160.31858742867388,149.73585669371423,139.38344595069574,126.14316609335627,118.20101928662524,115.56604518514982,99.31754111987694,70.37096481584081,47.368916404810534,26.249642865647463,-0.9410823190567461,-19.139210578493998,-24.616587032994232,-33.76242099430309,-44.068094561879676,-45.40438076415929,-46.29092929946674,-41.252280202015925,-12.188525957314944,23.944119423404604,38.401665578980705,34.467416553187036,22.541841467738504,4.962559808110056,-2.540394130373335,6.127343167934237,7.01919842202788,-7.389605285780737,-19.22675529729004-30.586533944937646,-50.163812328316645,-65.05571640925095,-71.20331370157507,-79.31382588378861,-85.30930413861157,-85.63167314392399,-93.06052271202057,-107.81738548808455,-115.31878313152943,-117.48294450115321,-124.95882302316261,-134.4042789295074,-144.20381944780573,-157.7856565464078,-163.96844922418128,-155.91152107459493,-148.85312650459815,-150.65968784400073,-154.19535185519993,-162.10734897195107,-174.38786662285972,-174.24752905844548,-159.61980533231528,-146.50781731734685,-136.53853176006623,-127.8459005965804,-132.18202196126734,-146.36899138050737,-151.7519873822273,-150.07829842909536,-150.7377566833214,-147.3787575588973,-141.87317302980523,-144.644485210876,-145.77450751015658,-136.1117302833079,-131.1540776834976,-137.06426845913734,-141.8167054388483,-146.07550941468878,-149.91912258327378,-139.5954879168187,-120.89276800336012,-115.53080677413959,-120.7205757683474,-120.37313961017298,-114.53217221682326,-103.38228910168415,-85.33309313482677,-79.44789801373668,-96.76881641109782,-112.69533365120026,-107.34006673652149,-87.87554127085603,-61.962640759518436,-41.00192198455075,-43.616664867539484,-62.008285388139285,-71.20371176632628,-66.98665188556558,-57.250901977537524,-44.445693925929405,-34.95951684848974,-36.027675984347844,-37.983682964173425,-30.971348519330007,-25.154480450670565,-23.964170661619494,-17.17906297672556,-11.923747652361667,-16.644768271493266,-17.26670251595524,-11.298636673351057,-10.875512920323688,-8.431561745704586,1.2398375990242942,3.2307522556660713,-1.4844406606102918,1.9810979138629028,11.666159615598486,22.052022033453735,35.06219874052601,42.45549412153353,34.04849325243172,20.63886203204111,17.872146185827138,23.823008126558207,34.38235152341174,47.25840546180968,48.65877763879467,35.73182511270201,29.392660601490803,36.27835139575228,41.37058609713421,45.13985655355744,54.35701795177235,59.23427538370331,59.83398250202066,65.43218777567678,65.02099065227587,53.218000564092016,49.962312819986046,60.07691230522067,66.9406053939647,69.13459659360862,72.13884664108055,68.09344297572437,59.89944831826218,61.95812996131062,67.8465120165193,67.84981838364824,72.62545560236843,82.27743706962892,82.25973336783386,78.45437617751794,84.3671630810298,93.46415237668317,101.8511925767096,115.75250290695459,125.19968440680321,120.1700949076392,111.34101965463533,104.10861995595906,94.94090184381815,93.80674602251263,106.56091061241231,117.81917502876392,119.1489955250963,117.30347075408768,111.1647310635534,100.12217339786349,94.97289044874559,94.40409315301773,88.6095401021123,88.74113944156589,107.10103759620995,128.40730473552316,137.3050190700083,135.6517347500098,121.2217403294814,99.80314584181292,97.058776756316,116.98307315023277,139.49645090179774,164.59532197227603,198.23241029205732,230.16619814290976,262.8047394767917,303.8381425471498,334.71953557416884,340.16903213035823,332.2340268454988,317.48431573143984,293.05994821725176,271.6796050860364,258.8354602776453,236.91909170792047,205.36468577980787,183.93151471873446,172.31752238172712,158.25772693364746,139.87324623107105,110.46582656960514,65.27591884741872,24.03503012099658,1.5620137943525805,-16.673692876612055,-40.53738440092097,-62.98749246596927,-84.96167622017481,-106.5289673379692,-118.27372027259582,-127.44909622300575,-147.19559415619804,-166.02713183706933,-171.73012713470396,-172.22090225671604,-171.16046795252208,-166.014398055555,-165.53479831766202,-172.34310823685598,-174.08857304986893,-169.57715300002405,-167.42468729567048,-165.53266694699275,-162.85281102800118,-165.75328143110193,-168.21246663892265,-160.70215912981192,-152.93478812825987,-153.81929687268882,-153.7041436788617,-148.85976093637976,-145.07130887560166,-136.9410032846227,-125.53303931675097,-126.0838510594769,-130.98078067180145,-118.94099832417542,-97.34721350009637,-81.77707268330542,-69.89889742986605,-65.96769899043979,-74.62137772194214,-76.22698092506435,-60.655815881058984,-46.495003568786785,-41.17550396547696,-37.3864514587618,-40.12054395187345,-47.62564110284308,-42.21318078263408,-25.831713236693865,-16.131169988315122,-11.809891983596739,-7.986195060695756,-12.907875296187893,-20.781807657159064,-17.943559982613348,-13.617844072642198,-16.181559439663882,-13.667624995960278,-8.532479970745609,-14.274487491191973,-19.932433267055686,-15.322249163924905,-12.222676893514272,-10.333164456609394,-1.4777897406154596,1.5023476926151427,-7.904394081266569,-15.197139608813439,-18.252523485169387,-24.03736790555481,-23.999457416589813,-13.111671587978316,-3.0086710800115495,5.130501041457127,18.12333158286042,26.935614975304773,28.295509560613688,34.275409845022,40.7942418063639,37.011267141624884,34.570849843451995,42.47499044295979,47.818436559088525,48.02526696732514,51.899662050495074,51.192538226385416,40.333133707031166,33.0411018252735,30.90609254869417,22.8720069130152,16.134231719279992,20.07588859871575,25.29827480694008,29.42442915808139,39.62028859935171,47.16962685262232,45.00397194624187,43.12937966002032,41.84537355058032,34.848930654914916,32.12935621947691,37.47625036345206,36.67648888004495,31.38533671449288,34.698981335335375,37.99019524466946,31.92416072379973,25.81105821959549,20.206802283220462,10.341370574414327,9.313668180434785,22.37885595779307,32.980929362713134,38.90052282894334,49.6967295091138,54.870117094847664,46.261843114800016,37.22964471077464,31.75272414495732,25.173168153479317,28.32627022260377,41.52726289470358,43.61235174101794,34.505594212996044,31.102194540766654,28.171429079958184,19.110311872276874,16.52864600994175,18.706033621272802,10.474126308023012,-0.7869460696237565,-4.155923203935664,-9.71395390711723,-17.192789131069127,-12.968538622664411,-1.2223683401647074,11.430107687097651,31.550680230605874,52.90312959489068,59.50927566056029,55.850181102087156,53.47236608976233,51.56664393327728,51.4879023550603,51.92529832130732,41.519837002216676,25.590759043878663,24.2122337476838,35.31256295785803,40.920932528156754,37.416853622331374,26.935737427975088,10.644352379089792,3.6816916940364925,15.263544144881415,26.777230331747994,25.283960307254326,21.49468344595844,16.4726915007636,3.464092809964383,-4.4121068974190845,0.45209410419988094,3.8472449733403784,3.218955913316985,3.3037289967196366,-6.8848482412876,-27.23525242012449,-38.23282970990793,-39.05815782698471,-42.7062106967019,-43.51876329649156,-37.184650024635125,-35.063166667824504,-35.00860268176247,-30.014169018088847,-31.490908091189123,-41.10866464483202,-43.049283930431436,-40.316736353930025,-45.537250421523574,-48.84573265335848,-41.37688942930663,-33.14961394527336,-24.50314798106969,-12.517380208992153,-13.62674895688534,-30.625874956416393,-39.35248211934033,-33.21243495673906,-26.769477877777383,-21.814290064833315,-18.428963980376402,-25.27018602234426,-32.82905621649745,-27.36670538348494,-21.124390131574778,-24.31907675997946,-27.62198382934794,-30.045315969305143,-35.73799333797609,-34.73296130894464,-25.585298832314724,-23.124756161212456,-26.87433858218143,-26.894805520766816,-29.37122739791559,-35.57272179185851,-31.466356141917835,-20.916188813666153,-19.858350674570072,-23.204255138472554,-23.806547023092783,-29.273167496870443,-34.85336230917706,-28.65429019376778,-20.092592418571286,-20.727901090088007,-23.85888377256115,-27.01811434987162,-34.55999801433137,-38.368034601591546,-34.36124481163438,-34.24089239115786,-40.71845103763669,-46.357483269514425,-53.559104646108295,-62.62480516513694,-62.79908617172664,-54.96658321696047,-48.02462548125004,-37.763882600069,-22.706696380494954,-13.569459713169653,-11.722274449106994,-10.222284866321873-11.015851042449547,-14.278914587327483,-9.067657700664768,2.848738773676782,4.291930328828223,-4.260111303273733,-9.607664409686446,-10.60026527692509,-4.158901491059709,12.89979830117422,21.864288913504993,10.941905411027118,-2.457276299389836,-8.98296672058758,-12.983355538581456,-7.375671782539177,5.19054412324628,7.985016112079915,5.199951259710062,8.13869957089092,9.396998439436743,8.687739071978532,18.806788106450366,34.249316695658955,41.87653121581947,47.61294415874171,53.69638327173867,48.3491016664589,38.2636765952553,38.777484640593926,40.58967185393022,35.386828739687104,35.005485806073196,39.86271167452867,44.90936670810028,65.27417973721937,103.11903698822695,131.30000359853224,137.43261703383953,129.35368537061152,108.68230356075532,86.29459254622455,81.39811540516,86.50993913304814,84.49452979631354,81.95589220371613,85.07047473885942,85.12634585800697,81.2576005813503,73.35547690662723,54.25313334998259,33.920059151776364,33.06991365532855,49.79128355857393,65.68293060221963,73.77520827854141,72.20011634217114,58.13226764638833,46.420245420818105,51.374075868623336,59.02641992869886,55.07177279172464,43.529849623769266,24.236890295125555,-1.557027113525173,-16.11304403436067,-13.23272337215088,-8.376767291708317,-5.843764821977029,0.7575195524661638,5.596676908717599,5.762074438235811,8.145266053422157,5.261772621167898,-12.352332563999855,-31.53848649428665,-41.5163415125757,-47.87209216092386,-47.543693560710274,-36.066265798965546,-28.427301362718623,-33.42419255391444,-39.9191003386467,-47.43896869574644,-62.31442686951433,-73.44102539819313,-78.51505961490645,-91.18278772160286,-102.73733865780069,-97.67068533095436,-88.70316383526126,-89.01262291938046,-94.22945650042821,-106.41880231403803,-124.23703699355022,-128.07780796721747,-115.01424744403515,-105.30874452581256,-100.75390351177849,-91.77528750206172,-88.13321220599957,-94.26177847801779,-96.77041174951768,-96.25898704270793,-98.72751230844744,-92.20841503706917,-76.17630241070977,-68.03089938635338,-64.07362424956759,-51.72459974465583,-40.65894242251204,-36.27278693560352,-28.06269167332559,-21.506129282868407,-24.134707192583026,-19.510264578592796,-7.876576203310188,-13.596524523750226,-31.24928854408121,-42.14451701727975,-53.32626393272834,-64.99189693079136,-66.09161525579158,-68.73534130799169,-80.9407495357622,-80.12433398818709,-58.994454398016416,-42.89029276173291,-41.506461526149735,-43.789659719106005,-49.83898960843649,-54.828691756734436,-44.69333644394436,-33.32302854746689,-39.768543043553606,-47.464083448018094,-43.11232380028648,-40.44413639471155,-43.61521816037442,-47.8171349871225,-60.20174694206867,-77.32378258873598,-78.8152969069724,-63.72175706951684,-48.370746970068566,-35.15508849799537,-24.656369843510006,-25.08227034452686,-28.859331999594026,-21.66026673853723,-8.542892453594678,1.4514108605754896,11.320219212908425,18.956711128791785,21.861968510808794,31.421648715833182,45.393356683018915,45.83441507771943,36.57276597722397,31.20905906186602,27.559614833767704,28.041032854319173,41.06840596288926,56.613145352656936,62.3819831819677,65.32946716875874,68.63382711828675,62.45062065205302,51.235675756461376,47.25405762060518,45.70528201840567,44.87470325290908,52.076153421010666,56.299524666128306,46.122809546793135,34.52657548818635,30.09627502912608,26.26151982622732,29.0874839277356,43.1236866771458,50.74577721412845,47.360221546706924,46.09624193556522,40.63119708054287,22.697110274475065,7.818102644434163,4.1446732805809665,2.540901911066074,5.655312590697181,17.90844753462213,24.563914188685896,19.087220885583946,14.63479223114,12.44983650408735,5.783104947650838,2.48912273506747,4.669688644347996,2.1510630925156144,-1.198583876607394,3.231526544919996,8.005645214616067,7.785515616279556,8.97495549032729,8.784376014180499,-0.01614916717227377,-8.193547373256242,-7.6924104327340626,-5.371069950911948,-0.5012380937310923,10.813115948660975,16.193063295510218,11.03409083828211,7.319205837274087,4.21261221350684,-2.222924527083608,0.8470010798472334,18.239214150948044,39.405385235301694,60.92748988456197,78.8769649368875,79.37415097371516,66.9911424443106,63.51347433779206,67.04010981277338,63.64169498699782,60.621012140679845,63.67071745535138,63.93698420101481,65.16603027860094,72.19416353202928,68.59947413694195,51.66925006871776,43.646295804113734,46.661701995547354,46.19008107191401,43.93200784702766,40.35999508084428,27.147486249606104,14.196533284687995,16.23437802162001,24.090584340786002,25.047743841924724,18.672945764458994,2.364138954103209,-17.436063423529376,-19.162235572412673,-0.2368540885800794,17.67720976856869,21.965890089676854,13.095400356544227,-8.241258255418384,-28.68064041231788,-29.171615997167287,-17.743252971108838,-11.27191345333063,-4.782257468505323,0.23315040422515065,-9.834882222110465,-22.422516121979783,-18.30848923347769,-8.248991628533165,-3.5448910713550683,-0.6548944268515975,-7.086077037773682,-23.41629044188563,-26.26473584419321,-11.386324501626584,-1.6059262621684893,-3.0446910437515777,-6.88157552700705,-13.65843798444767,-18.96309247985853,-12.980988285738352,-7.230744075855102,-16.546487286203455,-30.16801696955328,-39.96898163770901,-52.811531282477574,-60.36678298224832,-53.56424367879714,-46.96633025842917,-49.14199163510419,-52.458629465249686,-59.23416619467643,-70.50926529062956,-70.18498666536289,-56.975517752455104,-50.08816718048631,-51.566097466327456,-51.37817603011722,-49.83654755570718,-43.01171830068935,-23.705053757715426,-3.646613354476794,2.767373716222591,3.986921850805603,9.280121065066878,13.377945480327202,18.938943473875845,29.07823533674943,31.364220495276772,25.075630722014175,24.506489931722058,26.878662636981332,23.73723287434006,22.783907241378785,25.170981619727147,22.11361430334727,20.14842102451498,26.521306637899535,30.205179448002205,28.508415141437112,32.423322532830255,36.686974368511514,31.960403144642832,27.59864360647032,28.430514399433807,30.00107784480517,40.541374347693186,61.26376127398202,71.32417912261957,63.97467531044887,54.20163375935647,47.12549836708364,42.86041045277884,50.28440575998538,64.50944787553263,68.75377462902776,67.91309788683137,73.55201561145864,74.19582571466825,64.62854493516569,59.60920056729506,59.00540381380851,55.00201932624611,55.42785076833488,59.067092908370256,52.51417210705077,42.17233441610205,40.11071206140824,37.63660335936248,30.205236323351336,28.184850163559787,29.446820968572762,26.99188161059485,28.05813248984409,30.652189660703485,22.26691459384395,12.33509161389826,13.976945475929451,16.024678936211167,13.400060242895481,15.810217091934195,17.346772519795145,12.07835727281898,12.705304210551404,17.5971108621364,9.592378381566672,-4.216302375138476,-6.9588376579225075,-4.618597086186605,-1.1306280097679406,10.097240780677952,17.381391580499564,10.98483475724652,7.2713778549313,13.041845028711482,15.795520089218847,16.17521359411666,18.858201390519927,16.584635482089446,11.88697758696241,12.868407475636216,9.15292691935193,-8.326070296684781,-26.498299982474258,-35.24676287691354,-37.890076470637005,-31.183947625704825,-16.513281175191842,-10.561344490571493,-13.48107051399337,-8.499883761370787,1.806864581053755,4.975817703732494,1.8508949580311789,-9.267459149033883,-30.630783430823072,-43.993089157341984,-35.92511826697271,-20.140761652143958,-6.720775087810022,5.109866089535615,5.282268756214718,-9.355577794031865,-24.189644020588204,-34.74230700040895,-43.85435421118335,-41.41968119974966,-27.353085846796848-23.93589751513708,-36.53339387578176,-46.44484192830875,-48.96326578954872,-49.04354085818285,-42.27254460990916,-35.69040412821774,-43.232941564116096,-52.83742414515473,-47.00791001269849,-34.827358759689716,-25.38570144896672,-12.981521625682458,-3.1707358201703504,-3.2387490616477357,-2.8206964994650727,-0.4784626780769201,-8.045184148795046,-19.769508082740003,-24.03653617658773,-26.11448330439804,-27.310793631798134,-19.75873885979813,-12.774814717543602,-17.947786064715636,-23.646693203869575,-25.0087488512024,-31.210282074992907,-31.434774876188158,-17.31499531123701,-7.2945536175948416,-7.8856238198537145,-10.49838146571738,-21.6274782935328,-40.86771757367268,-47.95744763974301,-41.49992678583394,-37.432429931052255,-31.917837420432456,-19.466133811276045,-14.40588333564218,-20.263709175358397,-27.044468750866248,-37.36535693294523,-49.65335521924063,-46.71340352755983,-28.87213119797365,-15.628892543703035,-11.54087695553174,-13.183243219893662,-27.36031317683221,-49.34905120017627,-62.83965925552606,-68.89994826407975,-73.93310613270654,-71.47228171753935,-64.02474942259562,-64.03840380658383,-66.73226208770703,-63.327534329652636,-62.14428556593552,-64.99028374791706,-63.001729300063545,-61.90594995346737,-65.35215158849675,-59.72209986016409,-45.578010924090364,-37.37413153402705,-33.118584154275354,-28.943582290698473,-32.47770428505174,-37.63415403169187,-29.082603775827515,-11.26138097910297,2.8154840052241052,12.827530165730519,16.79384008212092,7.915938178335064,-3.7007724324323177,-4.912698141661556,-2.416226253297824,-1.2353598499642817,6.432451653911381,18.939648130932024,30.45696487923725,49.626775535776176,78.51019880135507,105.09758298941856,133.89861809849458,172.8731244763865,207.75521319937133,230.5772920766446,245.85478692442024,245.56281918284233,226.66217213486053,204.50276534195314,183.40011079446478,154.51755576593695,122.06162698970255,93.34364950738579,64.06663263555663,36.1043781989037,16.29605925880254,-3.798670086248829,-31.92143145653923,-57.09244970264035,-73.30566985849485,-87.41007928436034,-98.01615710570461,-104.71500874083415,-118.08081109251582,-134.86244592637186,-140.05394213327918,-136.1595154432716,-133.39302079014087,-129.9645309115419,-127.59604586683292,-132.8549170722423,-136.21512091635262,-126.63956419086469,-111.99541619865184,-99.4917431605063,-84.40951666234395,-69.27539415810014,-61.51345187401125,-57.05195301370307,-57.6941208679205,-73.68534333514486,-92.49167344100387,-92.9713694421384,-78.37860185441913,-58.715317538121425,-37.49185384901231,-25.741233052196822,-26.15948306329753,-22.014776236398248,-11.086867725189663,-9.613860331841796,-16.98159325232675,-21.414166172258437,-23.206141030799998,-21.98481353488371,-14.169753138338681,-10.346137199414652,-16.484713447099107,-16.998145584823046,-6.2003771148649935,2.6993851458826055,7.07908728525316,10.697817505248777,8.085501044021777,3.7882465337334628,10.795176302694069,21.281832896494297,22.731453288024724,22.5771187539037,22.84590593912324,15.952574025417306,11.976154230041084,20.19955971798141,30.452999020711943,40.695913726539246,56.12212945458553,65.43806260761168,60.858195269783636,53.64198444212835,48.28108143483415,40.316059979440084,38.176524562181626,47.58827880520208,55.335122318439225,56.45611441095165,60.08493931602844,61.592902537051685,54.79874581910537,52.7465632394281,58.19788346485721,58.30428295052034,58.45939949233507,64.92299450264827,63.58039967140651,54.04862985148415,49.01915130221098,41.58592937066375,26.992693125266584,20.6783395436045,24.411152828422466,25.988865521491213,30.174402097581957,39.36364593383253,36.79430794957829,22.575922600762254,14.180303668325234,9.774504323134883,3.9925178092679023,7.0090356353521255,14.453329593829759,10.387226391952769,1.8001032823753835,0.8702897953352734,0.08225334156534003,-3.2121533529997066,-1.458368181395376,-1.7973164904044578,-9.27843726810516,-9.353057482700573,-1.104541460604651,-0.7768759009232964,-5.318834735536465,-4.016571294154238,-1.0544761182813969,5.585343874556661,21.289386914556978,30.987746206232817,22.450057972771774,9.579423916282998,4.660417353877932,4.510657656167107,13.278183750597655,33.77903628904275,49.681822113696086,52.73224795824075,50.902701501275146,42.88598474589321,30.518136626578038,30.49126541855315,43.55841475130225,53.508439347803915,55.55777836220158,51.34010071559503,40.397962274996125,33.279113663987204,40.34179133452494,50.10552114333642,50.6963036988011,49.676201181142176,50.84081106484572,49.31108729799238,50.52036926583177,55.927338397896904,52.26439625946844,40.342967362159,34.28207944522033,31.0675529957989,27.184275298293826,34.29567573302974,47.09714403553052,48.04798786538296,41.30502159681989,34.80288298978693,24.501210275601238,18.712348530286,28.417245275997626,40.829789630051444,44.373110374031484,47.00943061071847,48.68454658708555,41.79877367921392,34.9041471230669,33.281371697152935,26.160335860885283,17.58419317828769,21.220790966916105,27.546582807571152,23.86205487807498,16.68824860286504,7.58933692293225,-5.974896342272691,-9.026280058671473,3.6583761060106896,10.50204693047657,4.524186796784981,1.6758925584054962,4.937968306799412,10.501259784083251,22.86767146028598,31.16008182861485,18.079270159765095,-3.629952966906064,-14.97040817565379,-22.429230383715215,-29.80673972787728,-29.198803933602292,-26.757908097784863,-26.201796220531985,-13.646495759252653,7.004568482592195,14.28050442145423,9.478746629654951,3.4500370108234826,-6.575055878535366,-13.115908511241685,-5.581136996815668,-1.1245456045564213,-13.009443180556763,-24.02740265526328,-26.481165718546812,-30.72725084086244,-31.62008831130558,-24.306877615050638,-23.171998233581494,-28.299907379719578,-25.636635174498252,-24.440263156320576,-35.50206552781397,-41.48114486694509,-35.29178245661195,-32.31383192859632,-31.663506634073528,-27.846016001063894,-30.97054552262565,-37.4532841243862,-36.768305485073995,-41.08983834908723,-56.49242353685684,-66.37854466052607,-67.90685570068254,-69.35912846320676,-63.34435179420015,-51.20416652988163,-51.10366062976214,-61.34369944000438,-68.5270400037104,-75.78275628528006,-82.84535114381252,-77.9679422356031,-67.51085254022892,-67.11093739747268,-69.26163745389843,-63.707295052283754,-59.68315831162498,-59.228722653488596,-54.59921837757928,-51.5521175882169,-52.43805528696471,-46.200458216981254,-37.135834570117915,-37.55413335289366,-38.69243993471515,-31.743178944285983,-26.118072865650284,-24.345911423925592,-20.711586058285782,-22.208273980501573,-33.14897999843422,-41.113560262659014,-42.867140119252795,-46.51598898220197,-44.13028146552523,-28.736625804167574,-15.57239506998584,-10.979693034824628,-6.035070881312233,-4.531792028586427,-8.660551206008162,-7.104542279154306,-3.7105377377032194,-10.201554005704015,-14.703759034528261,-5.764167384033621,4.426866832979718,11.515686963242263,19.409774877313325,15.1434231862953,-3.58427993793443,-17.329638374868022,-23.725249044140995,-32.20392525245039,-34.51853253107174,-27.539636761981175,-26.16204955391411,-31.093065593776288,-33.036409165523025,-38.19790779736231,-46.16039019069929,-41.0540195850851,-26.270262967289618,-19.20274621872126,-21.32949428705828,-29.23974761260915,-42.81833766307033,-49.89767353026227,-39.50076213151986,-25.175917809399458,-23.21222619215978,-29.025999785774985,-37.3144974437149,-47.430151135624726,-46.777463716272656,-31.31098051666706,-18.564254797951776,-14.237128293092189,-10.323587655616674,-12.458006000659772,-21.519931807021564,-21.48586468308972,-13.696203537218544,-13.96444157449813,-18.29587506479677,-18.189913406075032-19.191118209052814,-18.252989391228663,-8.978812602715829,-3.5918029160814307,-7.937814110538865,-7.196202632088825,1.8266658237326925,7.165786340646399,7.479857275959033,5.6020172007424796,-0.28237362535932853,0.313899361934482,19.031890544390816,40.116581744760715,44.528072689723146,38.4605830102307,29.193841793155556,17.989966452546113,17.5911435931059,30.445390369441952,37.94901840672945,36.31969998413622,35.59667392674635,30.996306027748595,21.526467410586502,20.993408477094594,26.81060371683793,24.68852910861152,17.289025987009097,8.093065564975113,-8.200701261993661,-19.737644230011266,-11.473807685747289,4.606275622190077,14.812715638961107,23.397874395434314,28.504580322450742,26.91358563053997,33.08483577476444,50.304309877663066,59.541040075645505,58.153242713697026,57.856104091614114,54.75187523104335,47.84013786947698,47.87494026881336,45.364996834529094,25.67989355423689,5.5735016788609935,1.7187123288224018,5.513651869250519,15.237189212565704,31.37329331724672,33.445789091284624,15.275393739141437,-0.6913051420593583,-6.931745190594215,-11.818012793343847,-9.21971822592709,1.3972072724522717,3.989721070430943,-0.304315721069911,0.4616131678987232,0.7957495302994957,-4.155221706790717,-5.714310989177574,-3.002156867865345,-1.1680261196330064,7.6985990578729036,27.033575868402494,41.39578356654633,45.833285117084856,48.826528441276984,47.32588572593527,41.783832447566624,43.960504915602,48.36463818669745,41.87666302882619,34.59292833030309,37.66665037176231,41.19369939854212,42.03317139177717,46.09707289591544,43.127484870136286,28.203264560016613,18.009677534670658,18.222180503166395,20.860826538054766,28.888786401018777,40.50814242337137,40.02304238662866,29.96272360019762,27.782671118486263,32.854869900672426,38.767629081048554,46.6798107538087,46.08941163149756,29.29907920947545,15.186262118100764,17.519274669015108,24.256690736466577,29.893050798962552,38.81595280845015,41.10226416072652,32.43133163406234,26.68394208372806,24.75901697026603,17.595646499379225,13.75626690351709,18.56825125189363,18.68980812641688,14.75841569950877,18.512806568588697,23.917278223028877,26.642373125962543,33.157059278213254,33.977387381593466,19.14925978526219,2.9779346840046323,-5.813775878069867,-14.46957742918733,-17.20480802125407,-8.188448041551723,-1.9568509536588856,-5.4898200428200035,-8.889874317363514,-12.492740483570888,-20.811411401547357,-22.963088054648754,-15.726401741527347,-13.811701225226173,-18.122324279555002,-17.72872710318217,-16.848279547547392,-19.81117811243144,-18.395234264570924,-16.840036970044647,-26.119539540038396,-34.853430669041174,-30.396779211326756,-21.732357027256473,-13.950136243542179,-5.835246785015315,-10.489450159920871,-30.126672553051513,-42.29996188511704,-40.00433937112743,-34.77644956292406,-25.70563292280123,-14.328320363090771,-13.684100477039356,-17.68765375942493,-11.440671139977686,-2.878013515718372,-0.157100667584402,4.002690816936948,5.542572008186162,-2.4560658677418408,-7.981917897178088,-7.079141152623441,-12.67009251636096,-22.533685100674138,-27.603047497816195,-33.78672062292506,-39.38777252411081,-34.17345382301694,-27.386483980460596,-30.00104130369462,-32.62861461391734,-30.94783789988228,-30.086927093484302,-21.851028966400172,-3.7680253347340797,6.898359770292654,6.273429531144615,6.2166060154499085,4.878701889429061,-0.4812126312287779,0.3235668866015191,1.763556615658591,-9.795559534383203,-20.21159243603339,-14.960946555064982,-7.077283181970145,-5.302886916809916,-8.24070135504361,-22.114506180436383,-40.79497297263047,-43.034989135157126,-27.21536415079344,-12.336979230772414,-6.013893941136229,-4.657575592167516,-9.106767512879053,-13.153842257431082,-8.340826930543301,-4.6934217010565815,-12.137168453477514,-21.43286434127699,-26.55155914430572,-32.19202358478974,-32.5467958316571,-23.56971133462237,-18.81579463995424,-19.54171512429405,-13.29763558404353,-6.136253065559125,-6.973212925846228,-6.256968190389344,-0.6868686039913006,0.3104977647287105,0.41822765053306543,5.41993929625824,2.922625052488823,-8.714373084352555,-13.311523769298196,-12.015390716317828,-11.70228085086501,0.36701973747413774,26.623605877371986,45.84141002717663,51.13601683149213,51.695651411549775,43.36595571273759,27.694936196871083,23.00150793867261,27.024960014642712,24.6498656812877,25.07880006172096,37.58540966684752,47.89895321512178,49.96900997910921,52.18088045768788,54.36525565461491,58.37935957681664,69.5162947634302,74.17666951913469,60.98165672642685,46.319970645809704,44.452650932819274,49.6620516742166,56.80655076559725,60.754595287757525,51.74852680562422,36.83060642368764,32.00024577381634,31.232154974182553,23.345647621131654,16.785409461844097,17.09854132626167,15.982760633486002,13.164776870645333,12.362368192528479,8.310683077127276,5.239634253437534,14.645803507128303,27.3431019798415,28.265882318453556,22.99291032772484,19.319277391948425,13.719487177594551,10.212981949818683,13.964588024858433,12.321703249415563,1.717104345141394,-1.876080419959635,0.32275563786866535,-1.0484060186794089,2.8130018874735487,9.269123504088116,0.8513103522413061,-15.344942871224019,-22.01695128236047,-23.01516942299773,-21.390201605874385,-12.206533299308974,-8.364997341040704,-19.85222840840284,-28.14400717122124,-22.51084142077142,-15.665094416876222,-11.262975247462304,-6.530899400704522,-9.334312705409802,-17.382930847395553,-16.694925905649793,-11.295691180474186,-12.594616464892242,-15.104784579774826,-16.569693775793993,-24.608591356447008,-32.82717251747695,-33.67609541128564,-37.76081509614459,-49.71528101209883,-60.38865749472576,-71.05078918231487,-82.28006594906651,-78.87087973731593,-60.9953979384929,-46.42555171779417,-35.01962676688969,-21.56488478801652,-17.588793395419597,-23.46740381621674,-25.037482453087506,-24.707393561971802,-27.585901296169062,-23.0191575909624,-13.096677856215303,-13.759063530706754,-21.74904025669379,-26.17781376521533,-30.52831639725445,-33.84753380178171,-28.918501023441834,-23.433006449139057,-25.288241192029105,-27.026832273775973,-27.853404123317375,-35.24114792693431,-42.37146599869688,-40.93731892430227,-38.60103697811853,-38.60444995090584,-35.50555441887145,-34.80428439228812,-37.97772873854774,-32.92369796869181,-23.707857841277594,-23.330746739747003,-23.648556195580344,-16.905772517456434,-12.125413574491505,-11.615224122175691,-14.627384561179966,-29.291548551862633,-48.548755106781435,-49.41350128787872,-30.984755986898318,-14.460078243125642,-7.288307837069967,-5.8833774792439275,-12.585622360628726,-18.97449225168224,-11.335194415114774,0.5010876347787856,2.216899855205031,1.141146885868936,2.3748281127310773,-1.3111109016894624,-5.400299785713494,-3.3382815599822493,-3.8487722614082496,-7.9357071913711215,-7.786959019509689,-9.761737478705625,-17.607922106703768,-20.355727547002353,-16.296028090951815,-12.64645698825694,-7.012860325154774,1.0667847067121703,2.317054124230673,-0.514031759356006,2.752083804188255,4.8247224251625465,-1.8314648011019887,-6.009524361280105,-3.265977738797526,-3.376616469254383,-2.7336543968668945,6.470477005757937,12.69042157281947,11.026183388795385,13.083839566938819,13.23103295160301,1.2600314102459054,-7.7470988826727565,-4.32615672089795,-0.8072372713185197,0.855417837936199,5.291788625488518,4.057083546603332,-1.8222196657752165,2.2714850609713264,12.874438198377888,17.598450152729875,19.852942615115168,19.093825259625145,6.055186696990702,-8.922550088003074,-8.886411672054711,0.27770084169849163,8.741513609962603,16.650503241589476,16.222794884469536,3.732835160524349,-4.040837174589514,1.4698347391391498.360206254769208,12.239140344883522,17.44598159503031,20.203932311995363,20.797482114110117,27.125537847660897,35.40873671971669,38.770948293977746,43.10749535934846,49.294841024376325,49.042983048799485,47.46206876336948,53.32195881956988,57.92417222860382,55.86327536433435,55.14812202489856,53.43414829027582,47.72437167940318,50.74276822128793,62.04363227863582,65.26234362461975,63.30132604501533,66.51004556344658,69.82069151598103,74.67481793670993,87.65521957635417,96.03292410631941,88.33730196937485,74.97302923455533,64.39491613900029,54.44017844245235,50.19981799835302,52.97805929521476,49.35557860939379,40.112848285748356,44.19773099789786,65.05919415067902,92.37467544316894,123.33425979238987,152.00653334502996,168.84595548514523,183.30447288533676,206.76356817050518,228.27401632300047,241.06272787508715,253.54908244244967,260.4445496118859,250.98298880767715,233.2416629162766,209.12328085448473,168.1199534172124,122.25651385036082,89.46108116396506,63.74570602340442,41.3113135024262,28.404001257896248,15.72441082678207,-9.471125264747986,-41.534262608412135,-73.39826344861625,-105.2153173245922,-126.83158441963771,-130.89154121242248,-134.2568995909461,-148.18399661541375,-161.02705630506796,-169.4296325229847,-176.42799892915514,-175.02632466273192,-173.7390540240241,-189.58576775958045,-207.5174833508185,-207.6414330634261,-204.44184294395845,-209.0315077291403,-209.59980589546907,-206.71733148937705,-204.97776591248868,-193.79215051984795,-177.34854695589058,-173.65879254090768,-174.71071805977152,-163.18714018580488,-149.69246128508186,-146.04108063963497,-143.34425867274118,-138.82650494326154,-134.78286896800273,-122.41263767672882,-104.59806785187541,-97.03219573339229,-95.25426997656808,-85.82996922517225,-72.45440092238448,-59.6463999302961,-45.03847972341073,-35.85121434987808,-36.65949709063384,-35.741339697830355,-30.640285528782663,-31.320801977838933,-31.91223098112182,-23.838977136795766,-16.17667876230597,-9.921462395715285,4.625354257989533,17.434880476490275,17.321200268293843,15.109169155216268,13.376608163550705,5.127027474086767,1.4622144491312858,9.969836055949727,18.2019167839127,22.23927280066686,28.036849558382276,30.951857309871833,30.026580160335463,34.9536463943675,41.461529873319705,37.476831119684874,27.458012304955027,18.540842037172336,8.221422526006732,3.798837321091078,17.142949464495114,34.99412092517992,38.26345591810356,33.17916968555499,26.43360973180759,16.478182651040598,16.631008460037275,31.97599282128976,41.12169169443172,36.654166726014424,34.0783589066342,34.236386034649954,31.22830048080302,32.91154305658137,36.64646097230015,31.720803866914444,27.418620851454257,32.84422560230065,38.161255397093875,41.5900650146033,51.29770634961699,57.94405046580498,52.552664658111546,49.54152746063056,54.84806912408899,57.20131682162413,57.387371008771645,54.91047674297405,37.916018276723456,16.569344223941926,13.584511022381545,23.276627865046798,27.4417549615721,25.32101582355396,18.28537715221591,6.57919993163246,6.186213211398462,21.724228500690064,30.940486628581276,26.055095672828642,18.023647376869732,8.607979141148471,3.0358787567721466,10.384031311483925,18.65982721370709,13.393891449941163,2.797074069980409,-4.537264596497361,-11.059383164129724,-11.069231985499332,0.14754410243165328,11.002264000424075,16.90472884806129,26.25833921055549,32.46636065962265,24.46557031389181,14.419170507870227,13.266517856431946,12.5040673127552,13.818532622508949,24.420921370802226,29.36744035589997,20.37420683092946,12.995086945772737,8.50345934872769,-4.403501721033499,-15.924971538383438,-15.191993378950674,-12.556944680980669,-10.402599760399847,-1.3727905304018289,3.234401654066198,-3.4364679556454107,-5.02521655589341,1.4931185979481731,4.009191411930669,6.739119356181869,13.916269517944176,15.533847653158164,14.082821234846879,17.890119794183754,15.55790100421421,0.7248765382692017,-11.77896792624781,-17.782295943180575,-24.764751013358627,-25.985084243554617,-17.91340639139521,-13.969841561814778,-16.06760317663756,-15.850523386641868,-20.297436634990834,-32.47213147877744,-34.51262194629801,-21.17586361722514,-6.635783757691317,8.675082049795558,25.401450270846173,27.1373738636712,15.133904024435163,8.4302962014771,7.208261412701459,7.6951216909943145,19.311354101531926,36.871242875538854,41.53372803554948,33.975107090316754,25.126846427833016,13.96705104594865,5.483633883270626,9.701112303440775,15.98904532877173,14.479857016374236,15.782632502985997,18.883938791938217,11.633256554552666,1.9016496398578075,-2.4739780771690336,-8.625553160814139,-11.918850648565199,-5.658619652150932,-1.3276302944579088,-0.96715890291526,7.0259373058691335,14.39775887262923,6.450258249475528,-7.745862078562938,-16.94050114791913,-23.650041262364972,-24.26874269131492,-18.408028455428813,-22.79295950595675,-37.63264532415598,-40.684943133045515,-31.112279765005482,-26.374076700904723,-24.519141914435135,-19.094936161355186,-17.691192838360042,-16.574472422769684,-9.927887354082994,-13.383853469443975,-30.82501595231053,-41.876000044278584,-38.879609867777106,-30.75553404573165,-22.47136415304531,-20.542669645302297,-31.56860239548183,-40.387616233352865,-28.54824766555904,-8.801005706868892,0.6672363512296047,1.8631313245755996,-6.178358108153337,-23.539859088231893,-33.46060329179461,-32.29382291357751,-34.23295051936715,-34.91291930133896,-23.74060121754555,-13.190377259433728,-12.134808743614308,-9.951697300744987,-4.910200971343674,-2.539191842028422,3.3930546243839617,12.400225496969814,12.72616006247339,10.238268223661027,17.157344933111002,24.4600219174425,24.53883578748254,24.932235993496718,24.896999745164432,19.773248593366464,16.524586483161627,17.075466125344693,12.831885021478964,5.71198239996937,2.5943755516870732,-1.9743976562348724,-7.082315235364218,-1.2487321089989958,8.558182094588052,7.635193907365865,-0.22918173613517645,-10.64895775613474,-24.779336145261517,-28.641837785938247,-13.433925183869782,1.1844735740783516,2.3496605185934776,0.7633270649495428,-2.718461890137448,-12.382292267381388,-14.087828041194332,-3.7464368369351764,1.644177881027775,1.1336870817442317,4.107045243926569,1.447725498218302,-9.912303662849492,-13.223181312595413,-7.437919363916123,-5.483053505768661,-3.9818820424698442,2.6548585472796966,8.614237812188303,15.063210258171015,23.57977041878895,18.246182871350122,-8.734065636304575,-35.89941072064659,-43.440961567562354,-33.0453743800154,-12.035581210907013,4.417792925629104,-3.2827106859316393,-24.91753822227744,-32.28330710583557,-24.706365092398347,-15.374434332442652,-5.853973467140712,-1.7262183942542704,-5.408824069640252,-0.6675312606625154,16.57049191795312,26.676792590756992,23.998333115123152,21.03461501735397,18.319649620770804,13.004916115463455,13.407430781602436,17.957808262646555,20.435833170479874,31.60465043339934,53.22866839529364,63.68784729391888,52.59810336909874,29.701085876485607,3.292774984058518,-16.70715247913407,-18.089357068972372,-9.171641463166328,-7.88711545088839,-10.74801823102962,-8.017574642558232,-3.0994441942444406,5.088050552606145,18.14348211063006,21.5507935445562,12.1784409374972,9.035048362863499,15.647874365743206,20.88152218487781,26.75248679453063,31.541751850361308,24.58082524891897,16.467601989704697,21.551353554240393,26.742669012967035,22.862622327323756,20.310868789277876,16.221687559639385,3.901817556881167,-2.911119975096649,1.0532219456452605,2.0510064786035462,-0.3595250687348721,0.8373253278328523,-2.1879589854965005,-9.04378930199861,-3.5284040612280587,11.58738402847323620.037574771379152,24.132582046294633,29.655572395048242,30.718327832080618,29.713883833056826,31.13256724239139,24.037455095761718,6.546580252138763,-4.38562528268556,-4.733578553996358,-2.7431867949371753,3.2738674144251805,11.08436322155125,10.55096206287542,7.123519299490414,9.94319522695699,10.31475084000438,3.5426590429222844,-0.7933773678229668,-3.9135482204421015,-13.1164213545159,-19.165736869428166,-15.755980026978063,-12.79998651753227,-10.306345038743093,-2.3899290954070938,0.8330608974524147,-5.175391432224964,-6.670330652956104,-1.856920353899645,-0.938307065897708,1.190098979571526,8.259042435638756,8.877968011255524,6.048622879403919,10.378457891123315,10.535841615491696,0.3704310880729902,-4.613669714214343,-4.295585857570728,-8.876281902123056,-8.514549831444171,1.1910335238155554,6.590350132435718,8.32920021618866,13.972950237784108,12.53984571144968,-0.007072867489813284,-6.845278742542828,-5.00991074081849,-5.123445305909696,-4.052868187093504,-0.772800730303863,-4.335994467044414,-8.162858511890189,-1.3977474807996146,6.011240939153729,7.0704370925375155,10.272939548273559,11.000066356637143,-0.106081452398187,-11.766413497695003,-17.649412487907423,-26.52919475521393,-30.623619099749085,-19.643191536503238,-8.477174152996561,-4.816692057314299,2.1384263685695015,5.152934227072448,-6.31518038940864,-15.90917379967533,-13.781619914600242,-10.204326881858737,-2.263163136589379,12.770552574372475,16.123086583400035,3.489813500230298,-7.239513038567774,-13.191310848674128,-18.91482436173667,-15.31455637211042,-5.1204474604345185,-5.9260412275892405,-14.313142353470438,-17.17715368159687,-20.645496446553523,-26.394452669257227,-22.63822822088343,-15.613167606164065,-17.507051161712816,-17.068575258633125,-8.372853111480335,-6.25376955763699,-10.3814038281576,-11.917890544293218,-19.516997371761846,-31.690364377291843,-30.548478896959807,-18.56463041953503,-10.390410352403686,-4.650691028942202,-1.5758658455105723,-9.277740430238122,-17.78670608147415,-14.735559574587313,-9.37576439996813,-5.841203041669963,3.349848139174955,9.87705710259352,3.5699877315412003,-5.1092079847873295,-8.249796319438467,-10.20054696922818,-5.469057416503787,9.080974846048239,15.699515065181554,7.147424286740514,0.49546881257014386,1.4457580225746653,1.472172049450846,3.6035183653349363,6.3593747365084425,-4.546972284037901,-21.759513918853045,-25.218537005700227,-19.34936796390164,-13.072113489905384,-2.256432045026634,5.059690828729707,-0.5474415777267643,-5.196803392114902,0.38944302972028,5.539966729501476,7.055857547908728,7.304385755283818,0.26897136990054404,-8.920991699157957,-6.306657146914228,2.1790851632538506,3.18316396611987,0.36704014397801477,-2.295721327690598,-7.01252769841155,-4.256662839256782,9.18077521210618,14.369999259243624,5.246899525735895,-3.732138897954129,-11.203000809124628,-19.9032497804948,-17.112907829459104,-3.0581043912298096,2.9587610152306376,-0.31860545691163167,-2.59564558502441,-9.947516689811222,-21.405543714832277,-19.310216806103064,-4.737947515831107,7.087863888091442,16.420805993172422,23.780202980481743,20.074312172034453,12.494787017501011,15.159735378505852,20.89951363448977,21.336050875560712,21.95231492434194,19.68223231586186,10.111551794957379,5.633295936206825,9.649889214774221,10.00792010421779,10.786336415287654,20.754528800851148,27.47429433922022,24.120793167537514,22.57877250765175,23.11402690762354,18.84148020004268,18.588296756295296,22.413155942782303,13.291215209535995,-2.669001595006855,-6.116060833782874,-6.005725602874696,-12.423090773490376,-12.74140738572775,-6.818062011582928,-0.8305813483490382,16.620525726542603,38.05646569410632,38.26766660033443,24.86886687364084,18.88839293125273,19.82441941505303,27.970401994778555,44.12918885378503,51.70941504779397,45.893327118170255,44.85316163017466,50.73854134581141,47.69207701937438,35.704997377408496,23.152347482370633,8.711703167856767,-0.5535671761048588,7.436516998115376,19.213785806727216,15.21848476282122,3.711749574365925,-3.8982674869075296,-12.848949315756007,-19.677883010899183,-14.897782787505946,-8.0401887017826,-5.512546963914711,4.455839196684016,17.560134233048558,18.995725838519963,15.973274417744062,17.44615161741918,18.438912259692078,18.71264003901037,16.455238607073227,1.1209309322861811,-21.63401832113029,-32.71609374890417,-31.2957498921261,-26.40366752969417,-17.24097059466377,-6.43746021591419,0.5765629733438438,9.636565797394146,22.545574259028356,27.941337405336682,26.28171158716031,29.64463395628278,30.441299771491728,18.778086677874935,10.726751059326158,13.5579610956616,14.833710897654672,19.332080436457787,31.604118625934028,31.342004744377547,14.87788871606272,1.688033085307691,-11.20239396000736,-31.102092297371925,-36.24531155197062,-18.144083609363186,-0.2260041841153031,6.769542460856242,7.130108052813184,-3.2463514003068337,-19.352698937974516,-24.368947399354774,-21.235221931379378,-24.307905555120726,-27.99123526369498,-24.330385995712042,-20.28733125104075,-15.366470041628407,-7.119480668267652,-8.166771263777614,-21.496455001127835,-34.54881458015238,-46.24820146228816,-57.15336007329246,-53.63392765006535,-36.17811498446258,-24.08604604080541,-20.37732619070678,-17.511641663475757,-20.528423307675062,-26.29640298646896,-21.06266839040239,-15.301843781061518,-27.296662338254496,-43.16917722635337,-44.98738838535258,-38.318655357719265,-22.21464703512026,2.3907340640804833,9.219429031191455,-9.067278888907317,-29.09439962987624,-42.76358004709599,-53.25998437894508,-52.86933468591156,-44.70321102938521,-43.461640667426295,-44.44694377827317,-38.89668027906654,-35.969210525591805,-33.059063914064836,-17.442356634714315,1.5984179794464453,14.811299929509993,22.441271667443903,12.21909517349567,-15.996687375028745,-39.09502117795556,-43.84640070377444,-36.32897842119404,-26.454143207016337,-21.403364861795986,-30.552809728758948,-51.31333654451616,-62.64177846833782,-59.63175240994513,-55.16110279919886,-44.96439370444425,-23.873656820629183,-11.631466942423554,-17.275480256623922,-26.06626668911895,-36.952162273763555,-50.29165143627378,-46.94231033505524,-25.654559704462603,-8.030011752372742,0.17183057493907938,4.3578703722463334,-1.9847294431745988,-18.505442319112138,-28.051491071364644,-29.054578764327616,-31.603477766606634,-29.285650807611262,-22.31621180913995,-24.548716684683594,-29.345170085031864,-26.177794949030073,-24.62920659620562,-21.64609213410983,-3.1826508841846524,18.412035110056923,25.42585484742902,23.454537341615023,16.659336032963402,2.920430544294158,-2.9498785205315774,5.432316123033964,8.440261774790407,-0.33876351283947326,-8.483702101644958,-11.354094187162405,-6.130168579887634,12.572860744754273,31.295866923981553,27.552884232106468,10.685093930608742,6.317692326694983,16.070402685500824,34.965315208771685,57.95734421876026,61.290037722154736,38.00717348668604,18.858978987880818,20.66871929537917,28.98085971254924,35.94461984585816,39.585615536479224,29.31569405071754,11.808672072008001,7.742108299596606,14.519834007270104,18.949049357498044,22.959480596586992,25.407658288045667,19.473763363407738,15.106277354580099,21.926067125982474,29.01932398574877,31.132764465360086,35.02129740837864,35.80461632915207,30.227261582053124,29.23901217259193,31.393638905336612,25.857339794792438,21.840888541459893,28.907109355148293,33.67969828556367,30.37516029827767,27.715635621209096,19.578296041640463,2.39769158863502,-5.688791039955339,-0.1378572030193026,6.325812964335597,17.048846165364193,33.76122815704104,38.698935899887644,30.768544412831837,26.9678982838159,26.0659349651060123.119359398993602,26.808247016487016,32.224810724467154,27.923354899700414,25.359236268217597,34.28049332030843,41.34717577928879,40.204608666111085,38.31234354226372,32.66162676681471,22.16422372404719,20.84482824043328,29.980779049488074,35.634786350944076,37.08870355591654,38.80313563670575,34.24408682362202,25.18730783347062,23.51426105334647,26.30185882456858,26.643423192962985,30.94122985355336,36.773708999570275,31.938690560007103,21.54348711198532,16.08118642292348,11.964645869158565,11.150559919523804,21.106206148361427,28.14433221836883,20.167530620731643,12.843142117196683,14.321189163806114,14.304465642393634,14.740784771941758,18.020732543901534,11.08571163449341,-4.149958483674908,-10.236957433513458,-9.400309817808953,-11.024109542975495,-9.454714598897354,-5.969030443498451,-10.154735357761478,-14.088164751523154,-7.319006545386822,0.42969206048949515,2.1717059872817006,3.0620506144364152,-1.7966450244316208,-14.424702928637963,-18.609805786719395,-11.774586050416705,-7.060103665517966,-0.48418041652301413,10.954088713246174,13.019801212681319,6.963526931408095,5.646374536447965,3.795416285867923,-3.804732287021525,-7.720882300335259,-8.98010712357679,-14.714344750816862,-14.292245480431712,-1.1388451340434527,12.735633473249669,26.70704254941853,52.697657164892846,88.30410952003444,125.19963802723215,162.13232952590334,189.18614829085712,195.08593850057844,190.53860690420296,186.46472825606276,174.42199494418387,152.07822301673593,125.62993739332398,91.57380160101457,54.557658526932265,30.85886865299559,15.905926069525233,-6.11754679288891,-31.128126514580625,-54.3867426086195,-82.50039696454117,-106.99815454831977,-117.21935801369656,-126.7401217685225,-143.83298612275027,-156.54768904972673,-166.47292533760543,-183.67920960069085,-198.92667738157803,-205.11129390238054,-208.8057063561933,-205.61812262358623,-191.57234222448156,-182.95236893190196,-187.74930728931048,-191.82834284638622,-188.22174384190106,-179.3248629263071,-162.0576948905766,-144.99716555824205,-144.73459527298508,-152.54798123606597,-149.88656378837186,-140.86342693552956,-132.69484677725046,-120.95481060490636,-110.14062969844403,-106.63782494546412,-98.81028636530303,-80.45802087771068,-65.40872225210079,-56.3880227695209,-43.182407055640475,-31.679939677632312,-28.46006343733409,-22.424056067118183,-12.952412307124991,-10.853257006534669,-9.425766330367876,-2.299005825621703,0.18249897648489122,1.5892494141604696,16.083495356643745,36.212031080199566,51.87818773552207,68.37586389272371,81.10686311289525,82.19810408006585,84.07451655748984,95.56020716615325,106.56741908222082,112.71453085938354,118.01252723061,118.28392242933546,113.92893065504643,118.1486684843116,130.10302736212486,136.7012456070739,142.23777903185817,151.51207498031596,153.14315039021943,149.24877066576596,149.54701906339136,144.50519706703125,132.64079550267377,130.1044388603732,134.46684499318093,132.03808866639915,125.50202639794959,117.49309616722299,102.53708601169562,89.62929033189488,91.03558666685193,94.52551553416714,85.96618340041306,72.59840743058616,59.42457567690799,45.62179050629618,41.587515332973915,47.427794168185926,46.34499005466661,39.815481197988156,41.40329842176785,43.367902858142074,33.85205050658048,20.899667127456247,10.276991224281058,-1.1783520209063338,-4.578194100085275,2.2379810031873655,0.5543730099711275,-11.206686901762314,-14.732460926683476,-10.96893216577088,-10.041096149976877,-8.307722921761643,-10.138667556727322,-25.15284752238896,-40.720620772008886,-46.5491194072018,-52.442825709158654,-55.66619007739001,-45.97982971596458,-35.64384998433354,-35.589615034787705,-35.2002186097329,-32.9973194421546,-38.1492890633224,-43.1034923862548,-43.29072323605345,-50.8386764363346,-61.45507725962154,-59.27097243481645,-52.095603256285294,-52.33916298467438,-53.628237517228726,-56.279531224808,-67.54161970188876,-76.36047667443495,-72.8437811528204,-66.95312368083036,-61.609029851503195,-50.829196879067126,-45.19165619017183,-50.834185547036775,-53.546493880595435,-52.66697478605121,-58.891618586587605,-64.26563318871827,-61.62231541716021,-59.54038917050588,-57.097788296918296,-49.61800576406611,-49.23667584129427,-58.45744360553202,-59.69331811870815,-52.161774800025526,-48.69301172101096,-46.25790386054739,-42.98708271488588,-48.35432313179455,-56.60642935570433,-54.17035203952147,-47.08593217227322,-42.39055727069565,-33.23555097325429,-24.43557804418549,-25.32979934621642,-25.451974058179253,-19.127904939928765,-18.53657818085,-24.229742516637664,-26.40873967167837,-28.227483549372455,-30.572982810982584,-24.37559676000972,-18.238516154002596,-26.43955708461121,-36.41395429814624,-33.12981086171952,-22.130370664874633,-4.257044858150308,20.267562436099073,30.245890961425506,17.609904440467204,3.2729514574399996,-2.757137591775699,-4.807857556899277,-0.3247851078927855,6.7602290093464985,4.7244055497050566,-0.4287630933743667,3.9376693033622874,9.947457840248811,9.260452615522969,9.025562435572208,7.586470489670471,-0.19532284018744095,-3.075663740437169,3.261046726447739,9.444872966469447,18.904890171192427,36.84463860517721,49.75796574060541,49.010341175119805,41.31517680868198,25.491724761696062,2.131835106545082,-8.174167582038097,3.9128558505973494,21.514960423503126,33.97941942443913,39.33722193304615,28.904601863643585,9.336045331852537,3.4385015281914897,7.647984696868299,0.812352639052452,-8.264933601772318,-1.8094276563988654,12.031535222941617,26.741550918530073,43.1197179310128,46.57869809075924,31.95393536917058,20.697739198445106,22.5036525648183,23.454997778873793,22.015463106177965,26.223585733004263,28.364264349521896,24.04265529873431,20.641400849198067,17.29400994301978,16.157903786101976,27.69450363363326,42.595364992479745,41.20219034928295,27.20261727007778,14.569652029089532,8.285949156151432,14.939886287343162,34.442696125876104,48.399938601857784,46.376758155345655,40.052502580023614,36.161493578359014,29.888996631490194,26.8713206191041,31.123298561239906,30.27732654180406,23.10590417901253,21.043868659034704,20.648652671316803,18.149625119814193,21.697525055357538,25.26430479542769,17.187519705647468,10.16185784190148,16.897562553533202,26.26680088194358,33.11607808132944,41.022973744261996,38.716951172905596,26.185940284932812,23.95430742646129,30.852975589771326,32.213407540331474,34.70923207708833,42.53891123245672,44.34882856142696,41.54746240195818,40.86019049606124,35.088657922315875,24.426805818091772,22.730138767892186,29.9651620148541,36.44945345036921,42.977786302229525,45.49254715427677,33.49920369351518,15.278510064460807,4.629487665045564,-2.0897837723405033,-7.936501566388432,-7.005641818040772,-2.533801597445749,3.4615204428377497,22.155522661106083,45.355648940333985,46.33158731658791,26.19005729957543,5.583733002333475,-7.313972864726663,-6.033517873408535,9.805763704555561,15.092422617802894,-7.31734965771135,-37.593275819084916,-53.50889876692057,-54.40377321913326,-41.269018377416,-18.77286184925305,-7.370449094965826,-11.522180512632298,-12.856631110742304,-11.95206711358767,-21.170671607639836,-34.91757587596713,-49.66981183142969,-66.69158307971739,-69.11516069937406,-49.43569544375596,-29.64336046147736,-22.236620987343795,-20.051814009688457,-23.068114647198854,-31.880602637934818,-39.113622474514905,-47.459713012756914,-59.80588154092816,-56.978082640015614,-26.465978489144593,9.573331587100883,22.15187796926893,4.742575043882355,-32.09945305405898,-65.1199915056274,-61.99772142523044,-22.563688610141707,10.757449171549796,10.769681342399412,-17.207405173901783,-55.3037527495036-72.40465480581582,-51.30480116312787,-17.30336232166386,-5.2794779087026,-19.64888123866902,-43.64522232407587,-61.274534072368986,-58.77454548018788,-37.244385961085115,-19.84890782140471,-16.60758770361628,-15.210817067749337,-14.825149091983299,-20.23515762993976,-21.298515224898424,-14.585769820297383,-9.92297897123115,-6.704448724656954,-2.543356952359324,-7.756207771520905,-19.34165647024209,-20.228011780907764,-14.170846871488653,-12.000223782421854,-8.689237333366851,-7.935449154201506,-18.158289205016185,-24.457360754033775,-17.12190524370491,-13.658889593178174,-20.623415769182216,-24.325413495985376,-21.592008020530233,-14.290112099155856,4.648019815783247,25.850294538931923,23.055616095583005,-0.9194465207083686,-17.991287524840757,-20.235098113676187,-11.759081478608415,9.130812939419776,28.185762092277226,27.185510896537373,16.986269653845593,13.075519724549707,10.254293629491395,8.23946314544316,14.731958516782457,21.44770088382073,21.491256210143618,24.284549593357053,27.67531962823903,23.240646497518515,23.584637824304046,35.58735989206933,44.0581263468374,45.2504350069236,43.705180197812915,30.889444274285566,12.712341891794573,10.753955041140264,19.39526376623659,21.991034667258575,24.768986887307655,28.801466659373578,23.272756723922832,17.883388468641357,25.012174174993596,31.413169908049802,27.571576104627596,23.634213495450727,16.959399354334938,-1.020028118241787,-13.322600280800362,-7.9305134829546615,2.8077007796676865,16.246977448029327,31.799130512165924,32.12198893887957,15.154376690162186,-0.7622545990746099,-9.75168194779297,-12.360973195768796,-0.5711913353786939,19.162187058644506,28.553860353021594,28.412900852969475,22.559086024280354,2.5690594083791227,-21.98876988374802,-29.333124520678943,-20.62295957699757,-6.534885518177482,11.74153064824773,23.807730721176274,15.785955309424928,-0.14539958478452064,-3.9616291069754155,1.2995467797985942,7.282809738447479,13.663560286616331,10.400022052048147,-8.894411439249275,-23.442804476194176,-16.796897787779045,0.3593128319261476,19.015094498992898,31.54155937576845,21.994006884220447,-0.6181296864682757,-10.639713465582673,-8.425153896276752,-7.0407223425285554,-9.291632544176181,-18.77610385209873,-33.121501211628576,-29.39018637508139,1.3545970311356186,26.347458772552763,18.94032729397378,-7.684814243599778,-36.72952671006,-56.635056897668534,-48.87018326230455,-22.36548571687396,-8.61897184410434,-6.692469961575967,2.060702082974452,10.391210386520289,6.811721469093433,-2.6873993454260656,-16.440931410586092,-33.888940101154326,-39.174288073742666,-29.654057126869773,-22.144213812769152,-14.73049573755964,0.07719210094522744,8.419791404901105,7.246646129263443,9.683855920110103,9.585236427303734,-1.9430315153392197,-12.749453193093807,-18.581096172940804,-26.10741352749575,-24.63329129582383,-6.4246934576871855,9.573477218482193,10.621607974509235,7.062776361371251,2.928715287151004,-3.274287877986846,-1.6284233603432383,6.475366208193665,5.688883799342379,-1.5597757910335859,-4.184865527354903,-5.916181135928978,-7.4247500189041284,-0.6820374108037477,6.117089037247978,1.133792078219487,-7.0852350260744705,-12.698484440920184,-19.94428168911609,-18.76280423601347,-2.2681448546411582,11.231340607084201,10.84605797393676,7.042349013654419,0.29918001004786565,-11.723615608703753,-14.126265560019492,-5.84803659971342,-2.6952342557902704,0.7595673841528753,14.334855423830227,25.189851776685753,26.81335003516236,26.696650476285672,20.308068745372537,5.777949884575237,-1.3201887085781014,1.310914296464396,-0.0317959276308748,-4.993464538090218,-9.624799942179482,-18.25408323522038,-20.91380650971428,-5.686351833568748,12.509600131656388,15.321702839181645,5.678100361368542,-8.866928579166517,-20.22595717331355,-11.154734750174544,17.770096824366675,37.654195016960514,34.463192988225614,20.987218690406,7.571682676075808,3.297209080887699,17.271081707331227,35.247062117609595,34.276413603245366,17.525218106209948,0.86796376755564,-11.737676333084366,-16.778620954636587,-10.399032888575594,-5.232258219727623,-9.25673484509565,-8.004268213719804,2.0825978172671165,5.863388526044942,2.9241140785858635,0.927388803002636,-4.009171228843362,-7.009074996050819,3.6450759206728174,16.13479399080671,14.932700729637581,11.1091647089537,13.553984822509394,13.196194544447465,10.790509896628539,10.301294401680654,3.073559162769428,-5.960682773957256,-0.6246232344917235,11.202409881825519,14.994505218469284,17.107675615621687,20.502745736983073,19.524590228662866,21.18744737424386,27.004981649833624,23.22469531595575,12.830853467423374,11.473275091827713,13.740010105644027,8.514727188292646,3.4346060431303598,2.7433088857925743,0.11561897968738233,0.3443055599908974,5.0789734024637525,-1.1057087924191231,-17.93409354414548,-25.284099067535855,-20.550079572282083,-14.136772368298995,-4.580136285213588,6.862868769253566,9.42059369137311,6.3916103569695695,6.194033692664042,2.381811965443156,-1.520889854091973,8.743223991946351,22.544760011937765,22.313434795431057,13.862775594214874,5.942451432093212,1.4742009144388963,9.002954723744708,24.589154880704186,26.72744400473548,11.877635624916225,-1.4386262718618843,-7.125646651355991,-10.06310896462095,-7.120786465530946,-3.4769701166318554,-11.841762468208868,-23.084553562632287,-23.615805091403068,-20.848100232805358,-17.55074856336256,-9.701784103378724,-9.569555921861948,-21.191169850277266,-27.45662615644252,-24.60806134676398,-22.016365450688355,-16.80678565399125,-8.14799258169898,-5.899229334805632,-6.426695205593489,-0.8366438697386702,1.1738258138077475,-6.49459994559319,-11.892619946748283,-13.335717955677824,-18.308110158062597,-18.76812202205221,-11.433010523424048,-12.26810196400213,-23.16596743605228,-30.19508135334321,-33.43396807676176,-35.213235402540796,-26.782697401654815,-15.119071598516626,-20.2027029569185,-36.08201804298834,-42.34475072224023,-39.76726871126128,-32.45302553976097,-16.504323346836422,-4.945678425030908,-8.170659260246454,-9.493793117445446,-1.7850180473645278,0.5887219137870353,-3.3258943599429114,-6.244694366633804,-11.696877879359871,-13.70045244514086,-1.558482839437782,11.69638240174284,13.496424789544378,13.532034099579107,13.84001576201424,6.402257768923727,-2.1934217655351222,-5.561938494179207,-9.497037788007864,-11.292014510237404,-4.1190646950832,3.4019941795068416,3.8638473061422784,5.670740990211914,10.28483381605614,8.652622689346618,4.738964896405486,7.460293071902846,12.226727740060287,14.276819564567713,17.89652954109359,18.939016624767234,8.853889386255481,-3.539270485609855,-9.349134321056022,-13.527074251380327,-11.54743997701879,2.3396793960437217,12.832753419466712,13.185057870313095,17.145999357679457,23.55029956621513,24.797346238467437,25.820916935710205,20.774718128710752,6.14977849011305,2.368278351816694,15.766990219145503,27.493833536174456,32.207411720656744,34.45497121067282,24.988376002545543,3.2342241137521004,-13.17267634632268,-18.43174739110865,-14.737388401783214,3.116551069899094,23.359215266283858,20.893177352293442,2.0826984823898345,-4.965082245828962,3.397031635521218,15.082788459486341,25.64399043342157,25.783946116543564,8.907259792133589,-6.909719700571158,-6.08948453636599,0.6095133935082857,5.861124795889081,13.226155419057372,12.795430348562434,-1.8751219199958662,-14.416548490661762,-15.146960944812463,-10.643958574698345,-1.0242129809654466,10.42281214151157,10.635356605809664,3.9744349811334567,4.893012267795565,8.649828490379575,8.585117898558813,12.115194991485819,17.453490687664246,16.19272150758794,15.92729348353742,22.27472255246933,24.36304507116997820.576639625401157,19.187081273488555,12.71301565368502,-4.50723249266731,-15.649271944048516,-14.59956536129259,-13.971335554667549,-11.000913335996861,-1.2760413559780446,1.937010483754898,-2.2587363964050384,-3.008151539916101,-6.609367743604059,-17.843281249298094,-22.37169270697877,-15.490592401533902,-6.409982981888708,5.285953195631253,16.606860696399856,12.852795008739033,-1.5980022357635315,-7.592367503244773,-5.800928936571379,-3.150131532322976,4.888530680910221,10.493341065171057,1.5088909825397403,-10.233389806811196,-13.014332876686085,-13.607118784930087,-12.640242680383693,-4.66396661404602,1.2803835673281327,-4.181171942919648,-12.6359439885302,-17.975282722374807,-25.132871268155824,-28.97932961174157,-22.881087131257495,-15.849666203026477,-9.75181461144906,2.5630020769184063,8.895233836538168,0.4281944646563396,-5.781350095555153,-5.827194516794119,-12.069814797897218,-17.006124449708015,-12.849168675787835,-10.369854531392084,-7.95828926960599,1.8956392677520864,4.410265007369087,-6.365916036280426,-8.924459603946756,3.9904566801256958,17.184670152807715,25.032560693167014,26.45931762064396,16.750568884954493,7.406981863384811,9.624768201716249,10.207103568280026,3.0577836024192635,3.9789023436125266,15.46516227274113,22.939787537160136,23.779885302201613,21.53893333071122,15.20661707725859,19.961834921486883,52.825001558874014,96.88588665947789,130.97147388250514,162.27191156154538,194.2053165626034,213.555199697983,219.1158695104359,216.25452859488664,200.58693386524348,177.16480539745223,158.2222829854297,136.40171582109136,102.82130666219933,69.89596770806784,45.58146848574886,22.46188127888243,-1.1672346682640384,-25.543453318475066,-55.00307455781737,-80.49878055818053,-90.74303185563433,-97.88659267477286,-116.67922491905378,-138.4639701432883,-156.56934160224623,-175.19092835862963,-183.3357371458041,-175.3433536341456,-168.2308593217282,-163.5639428368409,-149.7794037202387,-139.26382947356234,-141.84898376518143,-140.7101081851513,-134.1510646774409,-136.45841087432186,-142.74505049124906,-149.20598847039022,-163.33616854011808,-173.61127173637715,-162.8857839982377,-142.39385952421202,-127.9931439105315,-115.04043593087304,-104.18257317917565,-104.1418138915722,-107.6246157134334,-106.23411995596462,-105.26919097155498,-100.62946949702632,-79.68835339806812,-52.10149779643248,-37.140705012688315,-32.69788870850126,-32.33567218268581,-37.47370063119297,-37.09783801361034,-21.303779167614685,-4.651755854496013,0.9790228887278638,2.776004323050584,-0.30278592083960987,-10.773113552419657,-13.582386994712401,-6.348679496718,-3.2742994000460834,-2.8412576526121,0.20432463341953833,0.9247824109331366,5.887815352550916,23.319530634774694,38.95953270254163,41.183880079209764,39.438494974968656,38.246276071430785,35.076997935317046,39.50181944725213,52.08123897397006,55.82351916692235,54.58333951851451,64.99796404462849,77.13387193093502,78.17979782297098,77.41268289167519,76.67875565058904,69.5213262592155,68.3942414754718,79.6622374732827,83.38119233748834,74.8691397636178,70.52522311108446,67.63623799358265,61.78511020527692,66.6329532677248,76.14625230823275,73.93777801430616,70.17268212875182,71.60025149646172,67.96503805649243,65.115779934671,71.48779784565379,74.79187558643798,71.17044861827873,73.53189496955048,80.34135590247777,82.32327350208591,85.26660775643599,93.31607222055506,99.03446865556147,101.99132818271116,106.24594183090171,104.39395537325052,92.22907463466214,82.44619603116169,80.30345915502242,74.08867961153544,59.86984338572646,42.33599037120835,26.28048624945577,27.843646402499942,55.1559531565812,83.25961776669314,85.34171439061619,60.05988638686005,21.94817780871948,-1.8072841314372896,9.885045339307764,42.763906440248036,66.02776344464377,66.87500473253469,50.79220377217874,30.723356223373862,22.735602960467716,35.58414331929816,56.864670342279354,66.48149567989414,63.48566315716478,53.67450464841389,34.4189946887205,13.454345550484202,5.577475218100096,8.047469261482963,11.98558008098606,22.436734963698967,36.781222490802215,36.511877765284524,22.074047317514434,8.826128555455767,-2.8078457928678904,-12.072636626377541,-12.347215990301287,-13.443921422494222,-23.97973789370368,-34.81950649193525,-44.44163241713359,-56.04567057911545,-58.354870310239065,-43.749360895311696,-17.598446312252115,12.493386175321824,31.299804009858953,19.401446123394017,-23.172316915596465,-73.00729795938115,-107.61053083141849,-118.46469414480354,-101.45203060995146,-68.4313111597808,-50.64427198012805,-55.73808280221019,-66.7252895484157,-73.82521637087478,-65.05749992150233,-35.571763696554754,-9.856979292183087,-9.350144763654164,-23.287644242083427,-37.63830181789159,-52.377673204520775,-59.211992005066946,-53.76915993940165,-52.582008591961745,-60.1936745497931,-63.058634993995526,-63.19550224466035,-67.66907095322935,-64.9568083764814,-55.25538919296041,-54.452332499620994,-53.22778387388714,-39.47956565028033,-31.132325251887192,-40.50844275318963,-56.55085412939931,-67.24473163004058,-63.865696860668706,-40.62840885786225,-14.30782587399959,-17.726807782535786,-46.5527545508571,-58.94160835258412,-43.22651372572672,-21.153935347699473,-6.762055578453113,-16.77495160868495,-56.61597362523832,-87.27401256506047,-77.35259162235053,-41.94858450367995,-2.6016019373674233,25.808000258234845,25.110640064070097,-4.433352533814469,-37.56730741899416,-53.73836303058931,-52.65209861005866,-42.64878324871074,-31.68103102517297,-23.775499003378492,-14.87729203930434,-3.5070913138021544,-2.835701922897592,-20.016606527166807,-41.27473034604911,-53.93885677266405,-51.374932860971434,-30.192138568111723,-7.255903522046723,-2.6201430594217916,-8.516420373580837,-9.682363329954931,-11.115811559654674,-15.958282642484631,-12.497850951949214,-5.849955961480183,-9.576669737311722,-11.935738367212469,-2.2543300972394125,8.48725549200105,18.091521397834093,30.6071946893112,30.51190161594316,10.816431786148087,-4.980339812610874,-3.3908630690717763,5.396809002688856,16.668613311566478,25.355797396968544,19.63824975124096,7.936904922437471,11.180278864807086,26.849956861940317,36.62651113315506,33.07256572173739,15.095500147815095,-12.468831001938444,-27.881622009792736,-17.951370193269643,1.2548175616834696,13.764528689807115,19.714452677090165,18.50855225757897,13.845796748659243,20.067845424264185,35.56912379003596,43.864299378428804,46.07339514670936,46.83217353686182,35.407294883711636,16.886186850924503,9.063463831937636,5.892509598537471,-0.5757428676780241,0.8208321678137374,6.278422599279146,2.0253385929459524,-0.6095679928715324,7.352266609886269,12.453107908227874,15.143896165220859,23.251274815420842,23.789644872814513,13.107887318339095,8.21436955137588,11.02068049619789,15.035342386103613,26.83526179716985,41.145246155344765,39.02933110618386,23.553807912813383,11.44858394135753,4.393941649609101,2.3541927848747264,13.114055818839502,30.153372472620077,40.365065886404395,50.49531678118254,66.81250107221237,76.78581669126599,79.3053931836451,87.03854159008232,96.53302144719403,102.60923164561446,111.01557581930071,113.60444758837033,98.34327624351877,74.77739110697587,55.32568155431967,38.43360441092832,27.750825778005336,31.472375601890956,37.44669232975823,32.70610268813917,25.344982260936092,17.972978016892384,4.518792202773364,-7.845143017243847,-10.767066981732846,-7.4214255569256355,4.431075673368896,26.249172949946388,36.80069365765872,21.925369741172155,0.24914714083527567,-12.23844349669244,-16.87619244638783,-11.74229463702796,-5.737295178017636,-21.483588635929053-50.39922156325405,-62.34379412620958,-58.89414526544377,-54.14161698252467,-47.276356525630746,-48.98514711710191,-65.41574050835216,-71.87091287189065,-57.54093319597324,-43.03204810660598,-40.69907903018667,-47.56300157495257,-59.33450602604374,-64.77529133714897,-54.245135327183846,-43.619545251850084,-51.49109951232226,-63.93131070193532,-63.87550573221925,-58.2460524304751,-53.53618967770278,-50.44277377796019,-55.53863710152887,-64.90608560755366,-65.33926553765006,-64.06398906181761,-74.05150596057072,-81.47636358114268,-72.65863994735062,-58.478706095578005,-47.61337887682494,-41.912265643546,-50.35209529107195,-67.44067272480048,-72.38271030029715,-67.58915158892437,-67.60856713882988,-65.2274464739316,-56.39677964856162,-53.18201691041256,-51.87090221222288,-45.48233561863316,-47.550419107733155,-58.00340395874795,-57.5293876855581,-48.232683470392026,-41.75384167974457,-33.434221048803195,-25.706897861489566,-31.16814871645467,-41.83133333374999,-41.03225192860433,-34.257992866361406,-29.438217190999527,-21.920274255362045,-17.80220720135698,-24.673633469300356,-30.196810014515414,-25.050245451240436,-15.719091196100345,-3.7228662782257445,9.258470989022348,9.995247205169369,-1.420915564832491,-7.571472188149516,-2.5269953690354954,10.049878012810673,29.83541462301545,45.651504404779274,43.180978894027284,33.37071412767063,34.630663655690924,42.404416002505016,47.57886943489276,53.7134450027865,57.231905300445376,52.10489763529081,50.454222377035734,55.58510150220286,49.993994367474244,35.184295841575754,28.85589081870713,30.360543173270578,35.16024209776857,45.55428284857604,47.605182837034775,29.75615074773268,13.125057127232324,17.61612646976591,33.56044691303747,49.61456269158597,62.09421890864826,59.67333890300335,44.25486592421488,38.8170187238436,46.03859436471605,49.64041409887892,50.68235285154046,51.883849148864805,43.950131677751926,32.46092948971726,30.593193119448234,33.75155085375435,38.860037072537246,51.77061579533188,60.3980477896517,50.352918769887864,34.22249214523704,25.093256253446526,18.656945767376918,17.43474814795546,24.731080705263366,26.148466452611103,18.12066001956854,18.29040954991315,27.19898156184022,31.86224541675573,36.65727707449108,43.24647332541093,40.433426382218116,33.63488034105511,33.33120335241496,31.05005098102414,25.016062745131016,27.26058725231929,32.777560251449025,29.094532944925948,22.47266745048421,19.36950820015549,17.5759328350525,26.238503309772835,48.22504902329442,62.37131176867835,57.694601255789934,45.79354630661937,33.07291640479761,21.063371285529232,17.795755474032237,19.842231767522726,14.67085743336387,9.648422291981944,18.398704016634678,33.279948645950775,42.56253446995157,44.899775757624724,35.92970556956235,14.79687457897938,-1.434803926252652,-1.4076130266271396,4.962230717202177,13.991254725049217,27.569228081237142,30.348096223100292,18.081152978072183,10.28261206319155,9.20210561092417,5.882030719739161,8.537833974624991,15.871314979364534,13.339162602723887,7.469050827039228,8.298605427266931,5.125025740734042,-4.13360186798843,-5.595857513448036,-1.5976907352208292,-4.515205706354478,-10.424069257398386,-15.805255615202576,-26.191300067954547,-30.2372422858428,-17.238485094435102,-6.0500330897616195,-7.786576477499861,-8.933223247087081,-10.133783137833149,-16.68841718451992,-14.607269571288372,-2.9427621325932805,2.2908216147809766,3.7086523388089914,9.649560908444814,10.333542019696587,3.3833169955942966,2.285855500733424,4.406783233833539,-1.5633828943259016,-8.890172671105272,-11.914626799960097,-15.377616150918431,-14.729834353513407,-7.776666100802503,-7.7352605978890905,-17.819872332221294,-25.09219045486508,-27.14147706590663,-29.532706410335656,-27.67774539176048,-20.80298234512702,-17.15887520315617,-12.548226852084806,-0.7602084483341067,4.533670687683324,-4.727325317654476,-15.276777928491239,-23.80829268018919,-35.0075611608416,-37.300961313429056,-27.821033092061235,-20.826835716925896,-13.62821484058645,1.006140010001249,8.052296976427007,1.0485894415424046,-5.382145132955444,-10.230749677074538,-19.069469070150348,-21.931586125308158,-18.921250415428716,-22.319989959493874,-24.511827095939694,-15.624173133649013,-9.01913099718871,-11.22602142109776,-12.527764927319858,-15.868198044444712,-25.117769813325168,-29.09005527949279,-28.352480966785826,-33.33294243260417,-34.21774497010238,-19.848095442805032,-4.744858879982023,-1.599639817500146,-5.122495901078008,-15.073068105083877,-27.839738217285017,-23.593831023577273,-2.3291393843711994,10.041898662581874,6.14134032983211,-3.3295807681893685,-16.43993950854852,-25.999186435132998,-20.319121607042725,-11.805537251430515,-14.552811359697667,-15.446414404857126,-8.153019332525506,-5.538382772465607,-5.5228943311950545,-0.41634699200044256,1.05421398524813,-1.2269707716715936,2.3665220176519526,2.5008278463967413,-9.906570869519307,-20.42775945415483,-20.705526986901763,-20.823075237685153,-20.60268570558705,-14.711519866253845,-11.231407808149921,-9.835189969143991,-0.6625746883548578,7.610132448298958,4.336810462539501,1.0422268750008334,4.409896607045654,6.143898967734632,12.199592274078613,27.934145430758544,33.235564117119495,20.709540077803027,8.23351722680194,-1.9956155996716791,-14.744007052548529,-17.22069589647854,-9.393890761878566,-8.210576507105,-8.05193602200417,5.207363354904787,20.554330551628873,26.88189223805655,28.217856128688723,20.30255845172693,1.7779853447977825,-8.347123702819871,-1.5460669325214473,8.798668878555299,18.078826167508577,27.017408838299367,24.66531986772246,12.719236594236289,7.6564241310336385,6.508803196152928,-0.21080584374162958,-2.6841908385054234,0.5028426605424745,-2.7261893724013193,-5.3143604236833815,0.3297857351477531,-0.4831992251389914,-9.8311939594155,-11.26355774879189,-6.741591988180414,-6.515410264997167,-3.983129284528083,0.3628450938618262,-6.51998330509244,-16.849508368168586,-15.212570829567575,-8.015017792235717,-0.11030347749943181,11.71490573559473,15.136033344708597,3.151207295135003,-9.057131368517869,-13.411622355204717,-13.335990677856113,-6.085050389618283,5.942500851742148,11.969522307824683,14.346873214553087,20.578713451465553,19.74804522026785,2.250254373635971,-17.845682419519246,-28.78381057600893,-31.965176675150456,-21.50200937515222,-1.5001213021804487,4.276691491014899,-5.347864568947684,-10.171229672744477,-10.031707802650931,-11.362625489574095,-6.982351922833411,-1.3794753906441326,-8.044217680447634,-17.42784659216347,-15.659166864653063,-11.638083677387863,-9.191520488831845,0.27213950496472883,7.78072480998722,3.361721610169803,-1.3737731885085611,-2.7101346914556737,-7.833995886683974,-6.039533341806868,9.340424590416283,19.928296906610196,17.971533338355346,13.402160805313436,3.7001685580366184,-10.928206734746855,-13.271734419392313,-4.101101621956246,-0.5279744081495261,1.478370700660237,9.400327730272908,9.117666070913257,-3.232732378201645,-12.771878303622998,-17.85439647619252,-20.61736288407132,-12.47984122480764,-0.22810260871576027,-0.03791347907217957,-4.9190502892867585,-2.42074216554684,0.9729226637645068,2.13704926752474,6.873290742554178,8.368950449475363,2.8369433574368874,3.72741802206963,11.793786905398115,13.266246616707196,11.820744297751945,14.167696105736363,8.21070902072483,-7.098862292917174,-16.09025432852382,-17.12604022710381,-13.475430486363377,-0.31795405411782873,13.453692594763378,12.399111901077731,3.676026735457806,0.30089876983797825,-0.812080223068533,-0.5771592119688775,3.5395192950260257,1.8594832172261013,-6.69026430109581,-5.867243877015101,4.256736369762985,8.256916258444796.662921924717916,4.540139214771373,-2.9063851969723062,-8.220109598755462,-0.26225829261661726,6.983975663322487,0.6215661503917045,-6.059472561697854,-5.201943417274585,-4.357530324543224,-1.55167311197539,3.497091768426,-2.3797361649822886,-16.554009671877395,-21.788862869380267,-19.9356950931693,-19.456582068748467,-12.94842523723508,-0.4951373692860259,5.645612620395089,8.671736127313327,14.011018699513237,10.2639493157284,-1.429499571325033,-4.229175455921557,-1.8867323047920403,-5.136085790427797,-4.432446811303555,0.8896363493763473,-2.0759574972367885,-4.209832446182804,4.765872983118696,10.18956227055579,7.087216609533814,8.009487739285916,12.511751340043617,14.289605308809051,17.07161869236284,17.562519797976613,6.328397354135144,-6.431669307164003,-5.099124748737976,3.969043704427042,11.475729398779249,17.5284907288006,15.487372889895699,4.3460554178998345,-0.7922710678371421,0.6751904961726665,-6.11907272468673,-15.182215056198777,-12.61811059738203,-4.5642194285333595,8.988521811811303,39.35083302271871,72.83997715375898,92.06293508150665,110.54339202758355,136.28726568520204,158.51947412430482,179.33940827711007,197.4025347334615,194.31307711152147,172.16387398221542,152.59801000289195,136.81277011084188,114.73852603273235,88.03168229728851,54.570261024631606,12.019935699482588,-22.087156816850232,-36.87601361599932,-50.34229154990451,-72.73926750632349,-92.98443144169761,-111.91367954825303,-133.30781824850874,-144.3138066693152,-145.96785543190109,-154.09260172990759,-163.20736041518057,-162.68275085615014,-161.06999013691188,-159.24807721937083,-148.85512519787608,-142.09300115397434,-150.36641670624505,-161.28360895555295,-168.7349086147782,-173.32826981144817,-161.49671855719197,-134.14976350027376,-114.76132363496635,-109.2485037264093,-105.35624246880938,-100.581511390093,-92.69540052962836,-74.67011301064986,-59.28164634486664,-63.13499826268319,-72.87611151223322,-70.84635776772953,-61.355970700500144,-46.97359110241186,-26.599550125113723,-14.7915919829808,-16.21078113130855,-12.706945625238472,-1.5371426184214396,6.011661666405609,14.692572165495656,24.862433154080115,20.449665567075325,4.382237864021146,-3.1779761887874995,-0.4095673310482124,6.196424704892056,17.617556696748146,24.094396818978943,16.00369521759065,9.335113073555275,19.95765490717103,38.01496006650777,52.366659538911144,62.61925276501091,62.29354308237245,50.38315250747543,42.389636698157005,41.606341046349115,38.539681455851614,40.700915472417925,54.10879831823817,64.49500006922388,67.8632934073671,70.9184390806847,66.20566273879459,52.71584646672241,47.5794770189016,52.470264018608326,54.20684307523774,54.88335525735535,57.76621319145438,53.724341174763666,48.96412985510091,57.88901105330672,69.08801827660876,69.58749877297552,67.74936988438598,62.882705284630006,49.675813721297146,42.16676455656027,45.87278295613485,46.32799796405282,41.81209160438219,42.51424129078621,46.93382477550615,52.89515612535087,65.05748967901896,73.49455927437738,62.528478590910865,41.173012421868165,27.108496351335447,20.923927425294014,21.77334435965536,30.206692793588537,33.736973459267446,30.0731231179114,35.88389982556071,48.675562597028204,48.86830677440439,37.66190482785004,25.520549255301944,12.054021070744696,6.67267131025956,20.35103355973421,35.101349885005106,32.50632184029044,24.232134325454652,20.10660446959275,15.877564081739465,19.79905421106106,34.382218096234794,37.617867630386016,25.47310332664302,15.588903326801937,7.179230188768646,-0.8310349428637864,3.5326129362670677,11.66731453147671,9.27708874253181,8.969330536481412,16.632974287456086,12.463622612262366,-7.1155207405375664,-23.765061328799618,-32.096462501324375,-33.568755323165014,-21.694435890407746,-8.160046374308292,-15.51349967430713,-31.000975606137363,-27.393237133375706,-8.839483395814902,9.389347584547778,22.73411490820368,24.34965507967915,13.571602833543643,4.049250575221759,-1.0812989506787547,-8.532915550969578,-10.81520400632504,-1.8857344789004147,7.139844625901069,10.910362060316707,12.588410374921265,7.68112476933866,-1.79275323798745,-2.613568901099177,2.4530074667478274,0.47770414946158657,1.9106782084965714,19.912941157214323,36.29794975028205,35.454249196203506,23.957665885948614,2.5243195323678105,-21.557411666359478,-25.304479290581376,-12.149214908325312,-8.02654876404999,-14.065068268447174,-18.04467872649594,-19.48651918055338,-15.189989322643637,-7.4820656252202715,-12.218937474557269,-28.707825285844564,-37.74528787038918,-34.31753474401682,-29.85122316126268,-28.58201868395389,-30.181218293569895,-37.02461485410934,-38.714459428929956,-27.04914876608026,-19.2223345223049,-20.95871500757453,-11.184373797727822,9.989988847575473,22.540268895609636,23.304122095027424,9.885009868701129,-22.827587920285136,-49.02917958731697,-42.67867242484204,-24.983735709759156,-20.687063515354275,-22.00750539343354,-24.176295172140485,-30.248900280312537,-29.99590778833408,-20.961528820993017,-18.701808523982358,-22.17447181150615,-16.059211264416717,-10.09345000984344,-16.841682201298166,-21.869149548334384,-20.526538418329856,-21.47240243511146,-16.65875642761082,-8.099993852563381,-13.008632698563925,-22.076490992510855,-17.814147224117534,-8.120585242407724,-3.5733179121942102,-3.1718022781156225,-6.932701447862408,-11.997990228677178,-6.42146330761512,11.223932477319728,24.675676145210907,27.652650778182483,29.330724181802246,32.820661711275285,37.75452742047224,44.27009477458733,40.27554172358201,18.006900407869434,-4.849159936427295,-15.40445213865089,-25.07818823852365,-35.38446499360497,-35.69677695079568,-33.694114368917504,-34.95400189024692,-28.61711346654772,-23.757283179571992,-36.15746847170759,-47.39832511754223,-41.2629127254299,-32.64236629123755,-26.531900760603676,-16.683796601204637,-14.144059424124746,-19.9290737510136,-16.085353180772366,-8.143795895964551,-13.679356143008054,-23.63284379576774,-26.995054255544467,-29.47593361864444,-28.207660861122477,-19.500129692824686,-19.794122585842416,-35.60874804863733,-45.909606473552046,-39.43963383156531,-24.808669281763496,-5.4664380408668,11.453591507177103,9.705424333949418,-4.4172189027267,-13.043978647175305,-19.524048945561606,-25.12807555838037,-19.583410727697867,-8.224755068306823,-3.2258551292989166,-2.1675393386476944,-2.1463075561225438,-8.12603795994298,-10.794574248457875,1.624433107817807,13.704448890771966,10.250746301872606,0.05951564685236477,-10.88690138767688,-23.993798887301374,-28.75280809642248,-21.253573264467146,-15.618493140499965,-8.537502428697449,13.022527212597968,32.26587625959016,32.49187581672706,22.74199382936551,5.881760394591919,-15.533006150375734,-20.17594147920685,-7.5416127868156515,-4.6973358936583525,-13.450507727285057,-16.531948114237583,-14.746286680327822,-7.993930944347179,11.543279982693349,30.36575746336828,30.375209947691538,21.278746671818695,14.75027846377741,6.54991948305689,2.7571295780568708,10.306887490028798,15.344513331149356,11.986093312776193,12.0718710297095,14.459095460946523,12.63776014588312,13.353278820632378,16.13238197072706,12.165077743798602,6.912149732673192,7.661964411960682,6.932950790616065,3.0703854149503433,6.463868564697242,12.69552305613879,8.349011346030196,0.9689703999892005,2.1700826426068796,4.352794543574542,5.461157037540778,11.240957248188726,9.358291911066141,-4.747322005604353,-9.563795183524167,-1.3567393320458225,1.3235171980923324,-1.9889766895476861,-5.102953934832138,-13.778710922910124,-21.461329058911375,-16.538809778801117,-8.929533884992287,-6.835725977949397,-2.5169250736086184,2.578288832412936,3.8080851634955479.778357636663035,19.715960554231888,19.718236418736232,12.276047159591581,9.704245025486866,9.980667215111326,9.35376624491252,10.588364735237938,5.556754719235038,-11.640806660349462,-21.315245016952474,-9.551987235636648,7.03109500753459,16.29253212158287,22.418203937975573,22.203932073892528,15.711216870427673,13.766372240243825,12.638839753378763,2.0442107969497534,-6.126610582780325,1.3287147843310332,10.599460364399793,8.252763838621497,0.3587803266068723,-9.983846310261237,-15.556964374823202,1.0605119376663286,28.835672157458465,37.879449440680474,27.833713912448047,14.778073525568967,6.165053242206222,11.661817072215772,32.35685172651869,46.24189677876836,39.38240847493444,24.593303361028553,12.58849983372212,5.007801846820319,9.162072191592193,19.33818915715595,18.200547715193036,11.150271404219005,12.232706903948142,16.396511899012708,16.16773284608423,12.493036578154861,1.9852953371653541,-17.098709910831445,-27.583295340185625,-13.374271811695497,14.566900824839092,43.1390507188229,72.30218160827202,87.4532868235416,72.92993081660946,45.97305937042786,24.178139074857906,6.059905985500153,1.8908588401619228,14.130325402038922,20.183027584112086,17.309684744871895,20.240966439879397,21.433321377555686,11.238605091285159,-1.32892940621942,-9.692833337078033,-10.351612004236818,4.449203367231373,25.95445113557002,29.11012027347165,10.958412481914337,-3.992320347655109,-0.8661956095708239,15.682023620729412,34.41633957807461,36.18987846029546,11.672668176113163,-15.174228259945831,-21.409202249265196,-13.605452762354002,0.6546483857965684,15.402550764928668,14.607554828379355,-0.6344710275120944,-11.609750926407314,-14.947305186576216,-15.874982718310232,-8.545151473513258,2.9116983906400105,1.0826096327091208,-9.246951209367243,-10.875085277714696,-7.848402592824328,-8.046833278292008,-7.4856981544652985,-9.585474518598861,-18.082179038585235,-19.128186239996303,-7.586142482280669,-0.9232938951758558,-4.0172950171589985,-5.3187362881628575,-7.384363863788565,-12.613673515530088,-8.323195780659551,1.334301848644143,2.354160604481854,4.437489723985397,13.350814949606033,15.876355098952406,17.304509928236172,28.252875930068146,30.824124910359302,13.865907755760713,-7.446032083295084,-27.403598337203203,-43.343992559053476,-38.57390176622573,-17.41528972208639,-2.2434178645182863,6.2222451064262065,11.750754994626197,6.173366296671187,-5.262101167239253,-11.69252569506665,-19.011463414137104,-29.507870981370214,-30.90091096346348,-22.24472989262277,-14.393080620077033,-7.675812620911225,-3.898430280019036,-16.03960774667552,-35.85373114670382,-37.57891401285978,-22.70271716921804,-9.43890732015395,-3.2031413969690865,-7.390363797946375,-22.534447412096128,-32.86849342621343,-26.609622131084173,-15.953757038027435,-11.772324151507695,-6.4482853199903385,0.21338110162301094,0.11498645413039865,0.05769811708832399,4.669302090505232,3.6658092316480317,-1.3975524768364427,-1.1269136518597709,-2.388550895109545,-8.289968159893288,-7.757906744851267,-5.287180773084354,-13.686931689657065,-22.753058365106703,-20.9892236846759,-17.51646232263395,-15.795381514064296,-13.342912305320736,-19.119062739923738,-28.363379835103768,-22.57639429050949,-8.556323183007859,-3.35387554736157,-3.0494444839824273,-4.395683064440617,-11.623080696495139,-14.599062956002609,-8.048312196624138,-8.431073815242014,-19.17320382145431,-23.614660194969105,-19.909987229116105,-17.024401566338092,-13.805913360123956,-13.350771215409244,-24.140520908911256,-35.22954385196336,-29.661382966951606,-15.308273349954803,-5.267897017431544,3.030124587062332,5.618931871355135,-3.009103459339988,-9.45924623545907,-8.501185896211453,-10.564569396900497,-10.85563631807365,-2.793053021338819,1.9601189671637882,0.700779252463127,3.5473759837902077,7.677030062470835,6.830261584647836,6.401008573033908,5.266446665272299,-5.764568436891482,-19.567383657726353,-23.795718007846254,-23.659511144869732,-22.824760125253228,-15.273467142320863,-8.346289217607273,-11.383501287362455,-13.265710578244397,-6.906794709988246,-2.2024333050510205,2.1082218984823973,13.269951698753086,19.111315152416346,11.39136495776812,3.125219142061507,-3.0709040944148196,-13.996195522522871,-18.59848765852055,-13.1992337772548,-15.177927299811808,-23.24077100012448,-20.86195558313368,-12.839770145329028,-7.322214429718819,0.2261076210250641,2.699014772502069,-4.5258085572070375,-3.697379106099687,9.456629923200538,17.043401914123542,16.378702123501217,15.739788138774943,12.438971912834315,9.772007546339239,16.2380712486802,20.759873867521797,13.400082071085883,7.787686647777257,9.99492562356617,9.808687155788036,11.770962692976436,24.389593547962075,36.489204644422614,40.70303382653087,41.162322303304194,28.931210249041676,2.027278291483901,-13.04771319923018,-5.353931951509228,6.487684647851417,15.06994428753794,19.591284452274966,10.969916719251906,-1.0023973218900175,2.2370974911640373,10.029005355802287,7.307150702837658,5.882414411791137,12.917047149626766,17.06938060878851,19.176192491006816,25.179968278185353,24.63784222377037,18.100617824404985,23.088391669295834,34.62984041841541,34.43749944580202,26.75282540111172,20.261358385163426,12.464669079076033,11.157975313723004,22.315770630682024,29.808046492220342,25.52425915304003,20.736986825352865,17.265670996606723,12.05939638502924,12.936182237402514,18.582094910803498,17.97770427130706,18.149651192638125,28.35393807681873,34.88799831743451,31.424449247075025,31.174282230354372,33.072538936959106,29.097465876211984,27.955770922162856,30.687051858149104,25.167186778209935,18.91311274516182,25.187473433102976,31.430740431687525,26.373715862903634,20.119872033720213,14.324762066693758,2.888870387798387,-4.282991840411952,-2.278353664980313,-2.1283103770160596,-2.5118115507534595,4.170950557993651,9.059802094895836,7.149900652532288,9.07268445258136,13.897105822845043,10.738035095879086,3.537062534811451,-2.3046344416901787,-8.494107351656842,-4.244345551049511,15.857759051480222,30.051520724889798,26.395970751238885,18.185898395411968,8.794064327973786,-3.8391050845204164,-10.316256321386897,-13.625091715575376,-23.075954651024507,-26.07462174925232,-12.631212037273109,1.9538634344601062,6.701465475468046,7.252649997126223,4.742264216720047,-0.21941427935551538,1.6434427960003153,7.551875495817658,3.047131989330218,-8.652131700824159,-14.233154204857733,-15.207529902360175,-15.290306657747593,-10.33069264677011,-5.794521568170746,-9.879141498983731,-12.776181118348752,-8.50716539288535,-9.660843590265742,-16.65247935597445,-19.08008195962242,-21.045925114419916,-23.064404168730462,-15.652300773060517,-7.722927517869866,-12.298626503362874,-17.231367642537712,-12.470085696008514,-7.682241331338604,-3.3078178295710936,5.826061113265023,10.760655973895911,11.255665090851952,17.607667548164873,19.455025270460624,4.551277571332536,-13.005129970179926,-21.249896018388853,-24.726494108360267,-23.371547158713035,-19.934379909139025,-26.063033252259174,-35.12085262621841,-29.50595467089426,-16.043329721646987,-9.703163321085542,-5.974866963626543,-1.620778337317972,-2.0556531291016147,-1.0920763171183008,3.7459480124604028,-1.226852168006451,-14.169528594264666,-18.01955034215154,-15.44934196553011,-16.056272680017738,-13.606688187980984,-10.406044211313692,-18.350020192953973,-27.616461561784963,-26.264971836574908,-24.005814810157894,-22.29043217659587,-13.27623326849975,-9.257717611435542,-20.405064093609532,-31.933655123225826,-34.06376008534494,-30.853075067541432,-19.478573415884874,-3.057559424722216,0.6439933179425772,-9.53885460256876,-16.09871856213833,-16.00264912382908,-14.992081863311107-10.299383145499158,-8.666436130010633,-20.932397284005763,-33.96583015815283,-32.885134053705485,-25.86235028255949,-17.080620036384374,-2.72314085338532,3.378667173751201,-8.898398759260122,-21.610585034543494,-22.319659933030515,-19.524979909572355,-13.647378429682885,-4.476053028975596,-7.577085583802639,-21.757462696048822,-24.581015071157523,-14.694861102091842,-6.820196791115899,-1.5591473472538115,-0.39406327493346893,-10.172653326481866,-19.937649941226038,-18.48926335843601,-15.238693380358008,-14.7711451587046,-10.841402956728665,-9.61573438570901,-15.93485225254076,-17.424074213742983,-12.604907044296354,-10.889347918857013,-4.2862373427938785,11.263408006619805,22.99989047835107,34.301305259457735,56.11650358597189,81.28099622410681,109.38400692453969,151.75452650955225,198.34891551261956,229.9227818361926,246.34896848227493,249.01745601043163,231.20926003510561,200.78493586850945,172.55841762248133,142.63736300562633,109.05346124662177,85.8320311718621,68.44701248213208,40.70227198551821,12.20391695532697,-6.890817011123075,-27.806802360966767,-50.85837502281139,-68.00886287540823,-88.31624608586596,-113.61989773262968,-126.8304537439053,-130.41407091509402,-144.47209919646207,-166.33508405933776,-185.45652531080438,-206.56078861250768,-221.4598081536985,-214.5347846300707,-199.59147468709162,-195.12342977355493,-193.53237725833506,-190.5964220771874,-192.91314660299025,-190.01950299955763,-174.94619151333197,-165.06165755631812,-164.84227351831356,-157.1996718250334,-139.90694005472312,-122.80305078023859,-107.06724064309088,-97.76778128312637,-102.13162387690633,-107.20657166650923,-98.73558779415185,-85.3248978955275,-74.25872938253889,-61.115236174853855,-51.53668350842228,-49.90464492202051,-43.678274551870985,-30.92184537459582,-23.12324379664949,-14.085465109841616,2.4231250385369734,8.2694561487021,-1.1082586185613508,-4.918665338400481,-1.1217078257142008,2.9050946938866042,17.271146093272968,33.452530162534124,28.36424521441102,16.828393685858003,25.61339057146132,48.16146452399438,71.51144508066085,93.36310818224428,102.96136417312955,95.85366754167772,89.96022792073693,91.26633762655635,82.5924091079692,64.63307235019117,56.77866610165293,62.96106704589253,76.99403078813488,93.62076528958501,99.41965167511415,88.08837589451619,75.84016470818139,72.60581999654754,70.75648474144266,72.28159713889806,80.98030948955255,85.54149117155374,84.13184130751979,86.08182523253399,85.63556319067308,80.66172148650381,84.71197389941133,92.04356591425619,86.8719895624655,77.3437144047847,73.34172911631077,71.51714997108063,77.7290426144931,94.45456849497367,103.00203664723828,94.96446324712613,84.52465652754813,79.36580588138708,77.19941891015422,78.9076608414833,78.0416914798165,63.32515695471994,47.33665038821773,56.3516109551457,85.27086307533489,105.48894851793747,104.87952485509653,83.08737920682506,46.99243450443154,24.887747518207604,33.103584918655685,46.510413977991526,45.714638974735,42.247069875749936,39.291008936488055,35.14917313277702,40.47306697811657,47.18239119823582,39.57605177903438,30.558767964520495,32.05822995008373,34.626980871893444,36.33622543466541,41.16503752294869,41.09797307502476,32.26287185010771,24.35159140875021,21.947831525593017,22.55011977989693,31.401628666209245,49.62744020444453,59.054907938266965,46.419819576967555,23.21861924419557,2.5900136029683964,-11.884443612056117,-13.77215144821908,-8.151225945338691,-11.072625735028348,-17.107669653136334,-12.689851092146622,-5.307668241122525,-5.195538330999108,-13.22254582407018,-25.969778118035244,-25.351062521109068,-0.942499408048759,18.813075824599963,9.031644184839951,-12.832450690950155,-23.78988109041402,-18.303937360063678,0.3902678311635155,5.003859301263141,-35.28929932156148,-93.6583250267398,-113.28866710743935,-90.41225287560442,-61.09257653234591,-40.19248478887972,-26.05747034924054,-17.451584945366434,-3.957745153167669,8.569835309124265,-12.907085790371204,-68.97222380633296,-114.45109008549424,-122.42619362755828,-102.22082132985847,-68.96999543583696,-39.77898570554937,-30.671443719605286,-36.376955149746955,-45.46830308620516,-60.0695423334817,-69.28340293424277,-54.18629412919039,-27.785600209717686,-18.520848143971033,-32.92631773301221,-57.12757565169392,-73.25566411911655,-67.69202390634152,-41.844267131635405,-15.966600732149583,0.8251460706477411,22.78185907239224,47.999889000092644,51.42596799961958,27.146614352235275,-5.934871873018196,-30.067718696805766,-34.27807546133617,-24.560565941730275,-27.862839132510203,-50.27116406361874,-61.64902853139459,-45.78888283962227,-18.65089821094381,2.7114859890404963,7.208597436803044,-7.639985087400559,-21.160267533424424,-13.34054019500094,3.1631275421061806,9.688815979510883,16.433427194087947,31.296902143172893,34.66566005962616,16.623037177215874,-11.794876495072543,-42.80853872821121,-60.929395067167476,-42.837816178226134,-2.141444604610813,19.137833037889962,12.179199516476032,-5.33923457153046,-26.98440585066122,-40.91230467298647,-29.431199678781667,-0.6004843349347837,24.63089735291283,33.518829179619935,11.946638028038121,-36.24316444387945,-73.12248982546096,-72.47027808587578,-43.67058305035615,-8.741781609829037,3.959841428440844,-21.091415456659462,-56.11909177238989,-61.77543149269282,-37.524831747720015,-5.95823372775237,17.234037588602863,16.339497722278853,-12.070105035378287,-39.4020284342966,-42.92472279221009,-35.796723052649995,-30.796547402978867,-23.109801233569804,-14.822324036256319,-10.108149852089676,-3.8443465845188274,-1.468515735895382,-15.048931889461672,-34.01882087157932,-42.38410153506512,-44.56619506937999,-41.14292978399666,-24.968513354496,-5.397409146770215,7.544190011748405,15.706890417899954,15.28827623045414,7.144673863188472,10.150251666491833,27.555231955361922,31.43870900228616,10.780142295852922,-12.461960477730383,-26.016363175397217,-22.94714775710619,11.620204995077737,58.84286976424777,80.65127148085452,76.52016423760371,61.29192449116404,30.877602602329553,-5.330764410111545,-21.443747879127436,-21.41870737173711,-20.86773194680987,-13.710394009358875,0.8062400066940034,13.050602336466206,22.49090072940802,27.238525763758922,18.446849994113258,-0.0741116298722071,-11.844970125845572,-14.129140852541681,-16.289317108448387,-18.314149096746913,-20.88927333650758,-29.51211578632964,-30.579359272226522,-12.071603459401597,6.971803242100652,16.09191573870718,22.55577154245799,15.713447058353143,-1.6936890829714724,-3.8592783190509246,2.058436166631067,-5.532196611736746,-12.424649418885984,-1.0479360417220995,18.87298371730178,39.66587481621794,53.6601729586412,37.539183547029424,-0.9496897678688647,-20.102767815116117,-13.59286550112287,-5.485585280524772,2.520876998134393,17.390522965485335,30.424097563818123,33.63497102625837,15.948706113422585,-44.73420994852853,-138.76968661726775,-214.00146080863112,-237.0998215866723,-217.28424334755994,-175.82242213735873,-137.09544831926874,-119.72815120239608,-110.2419906653045,-87.72188268638914,-62.1734875827303,-46.99983915049753,-38.78565102846714,-37.06345774201869,-37.08452927201411,-24.56422557009741,-4.598400037807339,3.1905785846202024,0.6959147957565623,1.0941088797395953,2.563592537563382,0.945635479074279,-0.4562834927591291,-3.225004369552761,-8.140910363549859,-0.17473170681428174,28.78340412895021,58.95387173434705,74.19950612669359,77.14721202414374,69.81671048152003,60.3246651824076,65.82593584497299,86.35774220234276,102.22718674129659,104.97331465684547,100.02359552185183,86.57555878498673,73.44398785425771,77.93715788513828,92.55041717488082,103.81368195341116.52563794313247,126.73538994357308,124.11036059039125,117.5079739572578,110.29022012973424,91.52271813046109,73.67450800210133,77.46907114405379,91.58943979446558,98.65857873879938,97.81426182601207,84.22965695281108,62.692349039008555,59.58707691206627,80.95337716762593,103.03898053277719,113.15102068308833,116.2616439016124,112.9957745214402,104.60298919773665,99.8554536608116,94.77283700490008,79.31496938979406,67.92537963197172,73.73933838030558,78.55392323531909,69.72909980809311,57.48577380819651,48.82662645821222,50.98689681277349,74.50857982514238,101.726500772081,97.07848615794471,62.20902000521999,27.391130057278584,5.883657425418391,1.8142554408869564,14.1321254374439,20.13109153888183,9.448992063304509,3.874580829433754,11.101633808387378,18.88336807626626,29.48782150551593,42.01707073189237,41.98929257559365,34.969578431683836,34.01514506591844,26.113792639120973,3.4146418700532184,-13.533989344723771,-17.461870209949765,-17.606267985459574,-3.716187324402995,23.563486244631683,34.67147403037281,26.62492709792723,18.07484079989708,4.735568712960619,-11.14575967609951,-9.403021019573451,2.551935512015158,2.5082616488410223,-7.274697104335107,-22.464236724665312,-47.427038066072456,-66.25057726398389,-58.89088081671588,-36.30213970605314,-20.201533414653547,-13.574532459468468,-14.387302737594425,-20.741162874062514,-14.862245612578398,12.631367283729368,38.06607838583008,39.6333416212332,23.284450037544744,-2.174999307967897,-32.784225565295934,-53.34710498651165,-60.81141861748803,-72.9413937089439,-84.46331217885462,-80.39364025583549,-75.90683865821734,-82.05984208680682,-89.69867439166107,-100.23997976052556,-112.58466376812025,-107.73036777768493,-81.50716943931855,-50.42330090354005,-19.184322142608337,8.40953920922509,10.259450434794427,-16.40329603921761,-43.66010309987913,-55.80688661593195,-56.088729691227265,-50.357848957099506,-56.271886203732876,-85.02986849881518,-111.03547927832243,-108.75531243764813,-88.35754331997784,-66.85469592816114,-51.08759666130604,-45.54914842373027,-40.32017314850594,-18.806615975281165,7.291620909107219,12.443624609419011,-3.7754405119036365,-32.71901138505515,-70.01856410878878,-94.53105890012034,-93.07544136247259,-80.40462999178399,-59.366938537121,-26.439990337142028,-1.2079220270079576,4.731901038023773,-0.32715767004197316,-17.459459984942185,-48.23222374255984,-71.57151324584976,-69.8846812643338,-56.4712057301813,-47.05106792306935,-40.93641125202791,-43.117353588776,-58.32529204864065,-69.70777551739741,-63.86418130942363,-52.84583194147687,-43.961930697302165,-32.09877852989132,-25.84523584797889,-31.766618062456537,-36.81602625809353,-35.886590976732826,-38.046367122365425,-41.62508291925625,-43.471275728820274,-51.529067773841184,-59.16559430541309,-52.9555303165013,-44.87184607475019,-43.34924134141369,-32.07864694987859,-10.208728655473273,5.93967901015375,12.116956440113514,4.122006409897188,-21.68169565553155,-46.37216118413797,-49.386088516560726,-38.60464863782326,-29.38281672470048,-21.312909638817555,-15.881489454654789,-16.47267937221076,-16.532123799782482,-20.10263880902312,-33.486142441870285,-37.277279295640646,-15.710894215190532,12.830242756786948,25.948748249811523,23.538994163970195,8.80728014817387,-12.474844862856713,-17.761189242188085,-3.131738020150999,6.482075536781315,9.462483352386002,20.35841055679523,26.110771672613325,14.237702931493377,-2.0392363403389644,-13.125307307754568,-14.767762377801837,1.5040739835365677,22.737262743163996,22.65770688672388,7.035575607837382,2.9018157237061155,15.702885284191415,37.18874909571615,60.08097133620666,66.80777191397992,50.25981584374111,35.32536767839349,42.170080532387544,59.23564264190887,72.12797086701516,75.89097231244668,59.17429590108384,23.738833101444282,-0.9915983499423948,0.5868443683124096,12.940027319414138,25.41096810654393,34.82986427569938,30.051054711293432,16.27637635680177,13.977004920679859,22.8270040852803,30.849209000622206,38.47873588601036,44.30008549062792,42.22808993347946,40.3186132648106,47.47563277141166,55.74012071699042,60.470525956296925,66.56419498850751,67.7275053430224,59.17120304577122,54.33908374806109,58.46621166857892,63.28019714379002,69.29062671171056,71.28979572391863,53.99904129380468,25.683604035082382,8.823153719994128,5.638643246329647,10.321861997606518,20.661183666671192,23.55293217612404,11.356247720646664,0.04187806152326301,-1.5612381531975739,-3.151146354029722,-1.5565262566396965,12.201162007648065,26.55038118843269,29.454930880701454,25.751871626838533,15.503469537730638,-4.655914915807773,-18.18307390978857,-14.50291343357176,-11.91548994226218,-19.00206524056902,-22.11685746562865,-18.121189694719988,-12.525654879883295,-1.457467360631925,11.364304761329176,11.888806671028217,1.9572405972967262,-7.433178846237378,-12.22424823449212,-8.685147559577395,1.6418948349120246,6.299796047724719,-1.2958580937400996,-15.11032537388517,-32.10044311068778,-47.28099282808721,-46.61033237285756,-33.952604387072526,-25.429580805324676,-15.051435129763611,2.089924250264687,8.46283904982266,3.5445013164226395,4.231825615883113,1.370641264923753,-17.646749229444936,-33.21953362376268,-31.804088573545627,-22.900015592329797,-5.243075085358765,17.85492969430411,22.97420815432163,12.540760614167993,13.978651631332122,26.13842482598556,30.336558079371372,24.122812497392765,7.27140207200425,-15.310050022623715,-22.058922793355464,-9.247670186316366,-2.1368767980761714,-9.88147717628714,-17.504717948705245,-20.830114436102694,-20.97077404794588,-13.025716853578562,-7.396408259271777,-18.0280052192383,-33.10463652764842,-39.13637407912186,-44.33209805640405,-49.64764797563657,-44.11231485872635,-34.55541425190564,-28.073776920785235,-9.05327024264339,21.666633714370015,38.2499038187542,38.938157526847085,37.1329948305781,29.914849998864177,23.53695933277824,30.547693764960556,34.32803274023592,17.244048600874628,-4.538060623119046,-10.93561814311262,-0.025265693386461674,25.79693512769726,54.290476524269785,57.905252915152914,29.24180216572697,-6.960810685264411,-32.76931278708027,-43.99091804899024,-35.15584909477447,-16.66030911073627,-10.875204374017835,-16.14290980751016,-15.82439066720982,-13.801969719926712,-18.214190540074696,-20.011932728262526,-15.530946845404543,-8.799524484744483,5.621421204535845,21.053321420633573,13.198945582936975,-17.360997081803657,-43.74743731432718,-48.54179687603026,-28.5993914665411,