-26.771283607956214,-23.236878734454038,-23.884856025980337,-17.565588867286667,-15.765774373583184,-24.052918431634673,-27.797808207892395,-27.607623011022884,-31.354570575148582,-28.30148017496412,-18.35072550793157,-19.96356595621281,-29.51765696055505,-31.322259657463803,-30.931470374316273,-30.710505579969816,-21.21630225202357,-13.702377225266769,-21.649953209493635,-30.922589087576696,-32.917061641934346,-37.86407510814924,-41.076886312237335,-34.329432120326345,-30.943835855640256,-34.94137235987473,-32.4849756119916,-29.508808623469086,-38.63864786582839,-46.34158682738305,-42.599937604489355,-37.95393891530925,-30.829469667616056,-15.85988013736052,-9.0178728125531,-15.855551949920324,-19.141146289296124,-18.711307133398744,-24.97894275755498,-27.191856245512046,-20.066249098767294,-17.615118050486217,-17.814225513028028,-11.504151357004403,-10.42504778296861,-18.33309676797279,-19.80289602448876,-15.75592438272939,-14.993826311832535,-8.731657193465246,3.59780663105127,6.58086696507596,1.6758571716994801,-0.5564662506707541,-4.864274937178245,-10.8241640051589,-6.793634875600025,0.3210274680792451,-3.055830030557468,-9.106685186054424,-12.060613347688722,-19.523164884607144,-24.495956154031724,-17.3268078505904,-11.094993913932306,-13.070520397092293,-12.482462158342084,-13.451638237026398,-24.795957201735067,-33.73238458387012,-35.26580116373545,-40.449382705339545,-41.361211214684005,-27.38938275767849,-12.815638665304325,-5.391663657176158,2.380048663150244,2.4935112430360564,-11.676066121853566,-21.831570328232356,-19.723548078733643,-18.768240035319497,-17.902114006502995,-11.106566452711368,-13.023942463202244,-27.17176151239406,-34.070830507621245,-30.881219712733856,-27.427999474674937,-18.20260376122995,-6.863391500006712,-13.749672556368898,-32.992894224850886,-40.25609845412994,-34.170921600200835,-20.633750376187763,0.6036117013416629,11.760569932335402,-1.8399288543965753,-19.341717716397554,-20.840988645541927,-13.55639245608472,-1.7211076607235802,11.992315549618207,9.205558354978098,-9.518609421960331,-17.123212848477642,-9.226165984353543,-1.0870545586627987,8.049064888986683,15.246729053350585,7.015594410514989,-5.885749326383166,-5.8774844842171055,-2.1578382697174026,-1.598334966962295,4.704264535291611,9.644469146952309,2.1948208430854823,-5.614630398637081,-6.957136104432696,-10.890533448954693,-10.710909665826126,2.213450962292111,12.538368689564086,13.19196085462931,15.68642772978464,14.138178761369758,0.2791239856894636,-7.446099529139969,-0.05173355866126972,7.620885946412713,14.814229081303184,25.55476055581222,24.933610506250275,11.969645636040548,5.519405290725297,4.2922249494362426,-1.1743995225296757,-0.6232342065831371,8.433140166316043,12.768704683307366,15.083081432350154,21.67571914926241,20.242998083403144,8.307262951888967,-0.6427205785015415,-8.69441724021889,-18.94624698946187,-14.352602586815912,6.277108086857239,20.450509070701212,23.599768068181803,22.625292482541965,11.899204748291623,-0.8363608399672073,3.4077738238676067,13.611698364624212,10.496528635373473,4.604103914488995,4.681568987169568,1.8471064442550071,2.2613391713523456,14.42855784573657,23.57090550309499,24.102779483973343,29.055070874417424,32.972293095573704,25.16852626968638,19.423712984315205,22.99382771849211,23.332864391186476,23.043071813131043,30.59609286244572,33.798961304820594,28.22659219528809,26.334383038121853,22.780772784689766,8.586454808739937,-0.6305189428305125,2.3110927157066703,3.5439217120154254,4.656719375947453,12.820985332349473,14.552780745179591,5.785220316517318,1.3635339282379186,-0.8831875338182075,-9.412263161811403,-13.126680675211889,-9.401564267528917,-10.377533048393056,-9.632872234662882,1.2654435774427828,7.150787612089036,3.1801841520335277,3.671900803333437,6.159985518538254,3.4905683337252804,5.325828727836443,8.374374823325306,-1.9199037464657258,-12.840096781612816,-7.126916198937984,2.9491514187414025,8.262586147722434,15.851584874982368,17.473037892440306,5.200888248004088,-5.018038717614144,-6.633516588267313,-10.102454359059188,-9.360307101701865,3.09155844703868,11.960374043850862,10.12079323016242,8.577260549832332,5.975850397821568,-1.6573116076188894,-1.7725535658316653,6.56141628761322,8.836420269198882,9.020557688037242,15.808962960601143,18.09047582933269,14.202979968051633,18.339959417576313,25.320246263079,23.325103158420774,20.416076366364624,17.916752983359054,6.2233367208569845,-2.9193572690209013,2.6747539794855917,7.710427203773632,4.619096844416658,4.711647887517512,4.03117912573065,-3.242220678624533,-3.511062322230102,2.9541299822793805,-0.9710474798828508,-9.748601128584738,-9.500560978641456,-8.439614418802378,-9.685092268995954,-1.9465318263670046,7.379060367482934,6.859843001941761,7.379847705100858,10.705084530774773,3.5803675426098795,-5.631371968098652,-2.7625885702879343,3.7613141523510527,8.713758371936136,16.670024130924403,16.910527392604614,3.9945438609205537,-2.5436110109036516,2.859386102127053,3.1961684382417612,-1.5114346387816135,-3.3444351470743587,-9.909319971626259,-17.05531553307984,-9.932899886057633,-0.4732563264964198,-6.140697654851363,-17.375829349345913,-26.286714234745943,-36.32929448026664,-35.659624470017604,-17.47021098536097,-2.1313299308895086,-0.36715159809138753,-1.4001944973028038,-5.334772436397609,-14.046301284635977,-12.747284463552955,-0.8290772368817807,4.698996854664431,6.725348782455988,13.502226319958337,12.05491644014612,0.04957045154056683,-6.163084442646369,-8.266690936838494,-14.4886113183227,-14.235257672423952,-8.265215860244163,-13.994068354513875,-24.55689584880997,-22.98182588661719,-16.550208388825258,-10.815816031715952,0.29110208791929226,5.158173300886487,-6.507048946266235,-17.36065463982418,-17.40362887424547,-17.25884471145986,-15.108791819938837,-6.394711118607591,-3.4236631391949714,-6.029400091199192,-0.8851925421527045,4.010907013809343,-1.8450436614021686,-5.677308215060107,-2.93416325615988,-4.654774323608983,-5.330317374689394,1.6696875178281378,3.1633102674878346,0.2616542323972637,8.686314837929272,17.040313694787052,8.710713520903061,-3.505540212988776,-10.39816434740063,-17.033788873210387,-12.61697974024814,6.974684212576134,17.557743474451165,10.553714116476254,2.3584793534790016,-5.277336081345798,-14.044769453047348,-9.408670606711262,5.83655768351582,11.053361982876654,8.539692387859922,9.016971343719643,5.65042390452927,1.1182188602542233,7.409441612025546,13.575312886046316,8.560152342815691,5.577237460901377,7.774865126133415,2.7932465687440944,-3.603878948932662,-3.1540346443436116,-5.8545930946136755,-10.000239812145796,-3.145773678164651,4.638160673944903,1.8770084390836919,-0.6820264768348686,-0.45030233514822493,-5.055392084388194,-4.264601939762025,7.285464749497011,11.840130626659676,5.777429361330613,3.4356738176906907,3.5280608524570107,3.22530799147435,12.955770278494393,24.811448605678578,19.867901411846187,7.537630915262394,3.162755361163306,-1.039688171596764,-6.018713407998476,-1.8475744206315245,0.7300765876069591,-8.808537534250211,-17.725237909670113,-22.315037476556604,-29.921511537560335,-29.076394384521198,-12.195009110705326,2.829251854014719,6.981380819582317,7.299929855255626,-0.3819663189386131,-15.385791265374055,-19.90925049918144,-13.232638914258619,-8.581240542395374,-1.5118276836291753,9.792708275665326,10.19195337606467,1.5769116115025352,-0.23888282728435895,0.8413730832715667,-1.9784626511897865,-0.37479525603994635,1.8439180944485964,-7.009141280913061,-15.226409716200793,-10.764167350516002,-5.753399959415908,-5.559302084490179,-3.257030254931428,-7.050100740169859,-21.64741102580695,-30.704980151932673-30.416736357467464,-31.71008115359251,-28.222729198220833,-14.497172144100851,-4.669401471910019,0.599383955132045,12.348067091515874,19.53249534856781,13.09812549499112,8.482160591593846,8.900711908080433,3.298874750893958,0.24445397867470064,6.09407791752934,6.260133317083957,2.7866694964218945,11.55980081162429,23.424187619264444,25.25954038952343,24.743784230550762,20.567966263297578,4.121849956832957,-10.019081358201655,-10.801468748989155,-12.30990648845447,-16.015473472381792,-9.87502658054643,-2.743241836397259,-2.3807941469494462,3.712646261110729,12.865059434367227,10.425400637581028,5.3707107684839706,7.47925366157584,5.803298270549428,2.4973467055630514,11.152068234937644,21.75033210716264,21.955153256969272,20.721851747533638,18.843706333970275,8.462429030875175,1.8670274760942625,9.512275553696764,18.932761885516143,25.263845780806456,33.69495476019446,32.91772175297532,16.188443782021622,0.24146792290578567,-6.300441400927849,-8.449360920894586,-0.9433406373179696,14.833330982267654,20.35703580910023,14.46337012324528,11.774588273621788,10.064873152097604,4.966871481000102,5.143693396459267,6.096886129061922,-2.918849579448091,-10.042410344572854,-6.023092732464385,-2.748999964878077,-0.3404894708333016,9.407259622726421,13.418907654207548,3.5889719887036073,-4.783828415677199,-8.610877680046366,-15.00812566130564,-12.304321015090618,2.595866178413858,9.341686595120823,4.9197309769344475,2.482190057263081,-0.7850515159469443,-5.100845346698877,2.308861958093744,14.085039077086,12.437875356471377,4.58052429132089,0.4213352943678884,-7.671066983789835,-15.583046728535365,-12.1639959065593,-8.269218080133916,-11.289653093163146,-8.133533584403313,-0.49113390165352433,-1.9986476632276728,-4.782761407761075,-0.7718610192432682,-1.0963623003535843,-3.704706877426196,3.2297849842884285,8.492058858987242,1.640755855147849,-5.4452595036103615,-10.048285163339262,-18.456589038358416,-19.013847505415576,-6.85233558521408,-0.759552629706662,-4.889213858355547,-6.422432480180498,-9.000603092937808,-15.577715120078794,-12.84768384592146,-4.72443123556547,-6.522997729252852,-9.732211851665125,-6.223071029394466,-7.994358234432259,-12.70108458446724,-7.84084167540162,-2.311440158695796,-2.272328646478986,4.517047609373469,14.727423241571174,14.531658439829693,11.967945627551066,13.943763206320801,8.071748089138932,-2.7630459429656686,-4.000582647978313,-3.0678531143903225,-6.550760879075574,-3.27619400367313,1.1636283491167356,-8.518808725878571,-20.58886255664534,-21.79047004581093,-21.132202800334262,-17.85481530352586,-5.5416723348589425,0.490495046983633,-6.164058588165099,-8.839579514939798,-6.958600395992587,-10.524134830336914,-9.411779769527083,1.4340907037150052,7.425222343667532,8.637297666128337,14.664431570059042,16.37686334861903,11.166921718455427,14.297112206754989,20.253089398162974,11.944083053801712,-0.8034964300601213,-6.223225950589502,-11.576911411001314,-12.009697983292089,0.997576402400072,10.302608824856389,6.273049290730336,5.676175688047987,11.095374027239233,12.51979593991793,19.157025397698,35.977543301207064,49.997091947444815,64.94671677882583,94.57123425030073,129.6077168496265,158.25071015187189,185.3952524012143,206.64740107941645,211.8793422238245,210.66136266155635,208.0799947573114,190.0407982617844,157.32348816947592,125.83176669867314,97.67373389653413,70.86518110922908,50.59346414388118,28.82594476949473,-6.915879315900687,-44.349894372282634,-69.91986667027383,-92.09127968407674,-112.44827908872135,-123.69140214511035,-134.6110976209148,-150.10470326042267,-159.0154742346081,-164.95439908340882,-177.8435762983615,-185.46645583861516,-181.50996881957877,-179.9309896314067,-179.07025406020105,-168.60589470328415,-159.22754023653482,-156.41396007867297,-147.7169818526119,-137.9906244912293,-139.94094038909938,-142.42869668554405,-137.94163608285288,-137.53671092134033,-135.69887632792322,-120.72243897500411,-108.3607671366654,-111.87068690029201,-118.42234756654162,-121.94712762199606,-124.96567070079556,-115.33682220268174,-92.5030190664001,-78.10681064584287,-72.75582522800826,-60.07190125919263,-45.953885891916265,-38.26185231940842,-27.391126168702755,-16.930570635459095,-16.38013691844901,-11.504630361992348,4.743378014234938,14.919458357572973,18.854443734334843,30.206674567126,40.18300055512941,41.84018731589733,47.42650329365213,53.1786245706902,47.051860708214676,41.52079375606005,45.40586520833043,44.561681165392194,38.158967481770986,37.94832401711364,37.48897767187766,32.921324876511406,37.44930867204145,47.25656468395851,47.14071726436512,44.95440107887966,49.515213225254264,51.613147346306604,54.55464769844062,66.58066835726164,71.68432452653128,62.491167761689255,58.63649908270611,64.37420259898794,69.16082440973341,78.48845030936877,89.64094701678792,83.98857787780463,68.61077004787003,63.314415426909356,61.76743889828446,57.76755251832755,61.312050457081256,65.73164792420512,59.093365702950024,53.83828585982993,56.52168766587799,53.953220697136864,49.17516018782699,52.33955150880092,51.78323085686365,43.19271549834074,42.83471906360985,49.59793960670837,51.10196308066368,55.01767229675102,63.77318049464248,62.08739589318669,54.4571462790494,55.64312183725215,56.02391912493613,48.605267517088954,46.7766883933721,50.557959984902055,50.67602586864085,54.16146693821034,59.866929368152256,50.40872592007651,30.261937424652064,17.32393440358991,8.396237396301997,0.6989732312961063,3.943337075436361,9.915836836398926,6.931861128619187,7.6074979775759335,16.922070453885866,20.363342999748717,21.078500394251183,30.208203701048983,36.44948570390773,33.367919824893086,32.59456114343776,29.76470203382196,15.873359023464728,7.391453365005359,13.54323098261256,18.77483372290705,21.061554599436345,27.830480556753034,27.47020668806411,16.52149334476797,11.887883203843483,12.49179288462015,6.822256630869907,6.151747699467479,15.598605426327675,16.97367819086359,9.344456767574634,5.07173769208718,-2.7706925036817927,-14.801713783602777,-13.482449514061898,-3.234951445034609,-2.310808294278102,-5.2703756483791215,-6.465931670886954,-16.767359805462092,-29.417181898043676,-29.593742385437736,-26.81244771238552,-26.1998256114965,-15.702464429767547,-4.585400333698066,-10.545138527950726,-22.69223499255285,-29.321128528151387,-35.482465288860844,-32.81083185202534,-14.989436889947273,-4.890919604908829,-13.525995844299764,-21.593169884214838,-23.241250182156822,-25.739166583962128,-21.3891828837139,-11.981857498923741,-15.445409649693195,-25.91593245458716,-25.50086854226347,-21.058409423631492,-20.49188976321435,-16.16701552217308,-13.656663624520792,-21.341838344244326,-24.582672810319586,-16.93434078314887,-14.0028333040147,-16.930329770338897,-16.866274023519324,-20.73311053196067,-28.7393388283276,-27.961125814613176,-24.73234635719061,-30.347819816888077,-31.75342938832899,-22.25015059090215,-15.678610482439835,-12.370597336455315,-7.650300121184476,-13.389859848712524,-27.24881467374757,-29.955675224323574,-25.914813975363963,-28.879085503842642,-29.180739014046296,-21.714968359744443,-19.622966126802623,-19.951665124479348,-13.083697187675224,-11.35587554565161,-18.757600810499245,-19.675034950686,-18.45097120657863,-27.346056566112967,-32.96632149244869,-26.311261634786838,-19.47421386369322,-13.16987105998736,-3.675495963140917,-5.243274811507788,-20.19941636204194,-29.10024142967972,-29.18608286617168,-29.19446133242699,-21.611068475618204,-7.9918087240015705,-7.849446928952045,-18.623608215344316,-23.281741044750675,-25.02896416815327,-26.007118071347833,-16.756904866252007-8.22672592192117,-15.4280706138007,-24.2901561401123,-23.42189429137867,-22.013917639818768,-17.00691183053926,-3.277078434997117,1.979486823777665,-6.114921995246087,-9.73897115559524,-8.118953532063617,-9.31717879208099,-4.87879319310672,2.749618152975024,-3.4420218401027074,-16.425132261402062,-18.5703750328384,-15.540175578962316,-13.640872029182525,-6.9093252554353075,-4.348904787360173,-15.885451863697485,-25.412463925733885,-22.83214296435825,-20.255182625540137,-17.840822480278156,-8.699532769515457,-3.099774889717396,-3.3295116089479637,3.229910373520304,10.685961386519276,8.058224816117157,6.360365757698144,9.325174193835018,5.257362476475091,1.4519696247309006,8.834915170893774,15.26781039553148,15.765504542647626,19.442645214848046,18.054692895248966,3.8091609424151374,-6.7373445240436265,-8.10750024438927,-15.058176217538897,-23.29031614074099,-19.787263007802487,-12.586838980353106,-5.671455204267387,8.821550208051855,18.673192885445754,9.60039271109354,-3.379063270898553,-8.093457597270538,-11.458205562406865,-7.91431583971391,8.48202651656205,19.338915227039635,16.240845358507702,13.280885490967504,10.817141743625097,3.9735900268245623,5.556183663105609,15.703922014875793,17.180943596677608,14.56655152656123,20.208746530035764,22.852468806174702,16.220180882360307,11.969921144234574,8.826649082093562,2.169217409820764,3.422700281382546,10.128095165383442,4.5075299928327865,-7.1524413952220005,-8.533476513717767,-4.499828942413066,1.0886945618420256,12.452315505144973,17.244649156160953,7.213745782092262,-0.026863933418915353,2.390910427282088,2.387380054156771,4.845710794068968,17.592610401620526,27.188616398639027,29.518193203310503,34.80220145816423,34.639723371496935,20.598090673030036,9.559503301308546,9.017962355007004,6.831791893578687,5.713392713283653,11.890907219503482,12.310066651898884,4.476954998958565,3.106785618664212,4.531659678139325,-1.2488220739571645,-3.020114287795656,2.1445017904673747,0.15032826517369302,-2.9090154104803903,4.298987886222674,8.696328255233121,5.636738496390453,7.919782565597579,8.925339058343031,-0.46179795010001623,-4.010050595748531,4.19402997167513,9.732595617190032,14.680118010883447,24.378011612167175,23.63257732189809,10.913920376968408,5.497269610964805,5.9287979742108705,0.35440701699346233,-2.0547242558911245,2.193478163640312,1.816524890415391,3.0394514406111846,11.939837728521454,11.479128256981632,-0.24472205481476372,-3.1133495294189455,2.0921972192609983,2.447186880782647,2.119185086125657,0.8319673090227615,-9.088423777441626,-14.368236216350216,-3.911487281880054,5.204596940887338,4.25663653941708,5.521192053405989,7.852065444982627,5.740139353426212,10.665043962459972,21.59113217429754,21.729261051185745,16.254371410653636,17.302034674955546,14.899140514133327,6.339825695281418,4.096934487966785,1.3919643414552718,-11.411192837394982,-19.100500710653815,-14.926525162089233,-12.692837247350369,-11.74600468947376,-6.200536471049578,-7.845160797668693,-15.979673625399943,-12.169550769676352,-0.4131924991133542,4.036153693925692,5.657839944374016,4.941733752251899,-6.253453718130588,-13.01953034075156,-0.6436448936806167,14.692858941560104,21.413674682725638,26.092334284374253,22.108251507460032,5.289295039820179,-4.381924101112465,-0.11268026768954176,3.042620303718595,6.202995161286199,14.783820858058503,15.239253237494184,6.852269181706535,5.507869915493249,6.120670945620073,-1.8648202909788143,-6.360995206844163,-2.516703322619848,-2.7827375881085965,-3.7799481990369816,1.9634352999660671,2.940657097953852,-0.5593971698394471,6.919704283284392,16.781156322815423,13.305512974428364,5.922978575255879,0.7552529370136571,-9.369633524094256,-15.51248717757587,-9.807912639332688,-7.30163224718199,-12.080711299939358,-11.167225225739593,-9.660630756351747,-16.854042782923568,-20.226221439163616,-13.74399720669106,-8.046957011302059,-0.6223713838625731,12.589453830198694,15.77296148814995,4.794287513757822,-4.930933395217874,-14.417077345426405,-28.352736899806466,-30.665785301357058,-18.418313214565153,-9.005119351471004,-2.1132325774175964,7.314445892701193,6.7096504906122005,-1.1977471333260907,1.5358490159513818,6.507431655594919,-0.2132247529573319,-4.224521949663938,2.6406063505643935,8.739123179426038,17.02457708847192,30.742270872649833,31.02039753954365,15.417269846119513,5.600210427442857,3.85613460888187,0.7653923072855504,2.2935052258144153,5.497257422456584,-4.371629947358871,-18.439247114907634,-20.051732361402422,-15.683710285078195,-9.989318125005589,2.403341045023012,9.283912104222235,0.5740441733221093,-8.242060106768625,-11.082375863982858,-17.104995472821003,-17.176577721418276,-4.066777000813566,5.422852262225693,6.286582407319945,8.3537285913053,3.6539753159372625,-11.346897148561213,-15.920803635798677,-6.292615114471688,-0.5357474216752581,1.8322138210395247,6.0900033880383155,0.605633546781625,-10.207245378946586,-7.004545540700727,3.994416160708719,7.819287470512441,9.677917983875464,10.126023860367201,0.33046437939589257,-8.86465182178875,-4.172849134736773,4.115445388105794,8.932709378890015,14.773162466984683,11.363755429335736,-7.459232517396082,-21.513052534728885,-20.999488905775557,-18.251070422293882,-13.543073110537899,-5.173380366214829,-8.284856162010035,-20.124025445391926,-18.586516519606114,-7.114207112168524,0.11998904437005165,9.556168565351468,18.47462351152889,11.883577978329022,0.9760261935369843,2.2916931352653496,6.073856846873862,7.382957045110372,14.036031306658831,16.129153996054196,5.702438934832281,-1.6233741188109505,-2.451307040568702,-10.338829318516328,-19.321502691990414,-18.75302656083018,-18.02484267727323,-18.410340780161558,-9.620587330962653,-1.799496575945764,-6.1537177455772865,-9.983760352065795,-9.44360939688508,-14.58146150436075,-16.145803944600143,-5.1755578059757426,3.1448049044952513,2.1376815101834747,0.8279348355278593,-4.126687782060426,-13.095824311311151,-9.251249377196514,5.3530808911112,9.98170826714907,7.044894484763603,8.387675911479356,7.072581720033661,2.865240632681931,6.116961196221439,7.213313334681633,-2.4561986281559425,-6.2462298826530445,0.3377813688086242,2.239130288239102,2.6358402421496665,8.422230608606622,6.681850751496559,-2.7548061355412132,-4.295838736246425,-2.6318735717269996,-5.413516457844183,-1.654909602221207,5.398360249271239,-0.1901338010816236,-10.165734507945107,-13.095233554096716,-18.021745225266677,-22.355155565016346,-12.493130535474995,2.01050963942026,8.97959407712359,17.178442591808007,25.5589221019931,21.3816509663802,13.589184042731894,13.227840511979016,9.92688418916875,4.650913463000134,10.33597060534148,15.463068564204399,6.45280868050136,-3.6652128796068455,-7.653810691836654,-11.937873820256852,-8.90245920962818,3.4537747921965023,6.058942763208287,-2.30966433384789,-4.0895469589013045,-1.9041681304809495,-4.378097541275701,-3.132543516493254,1.2806767659351213,-1.8648260280760578,-4.139910725476393,3.360225005917279,8.542506810281038,9.022528056822798,14.669694885381192,16.732079546248407,8.028976118200516,3.5176561598196425,6.4134620526840935,5.069149641164758,4.51172331889597,9.362374500652598,6.964961368786043,-0.3533479899982912,1.5340995520599634,3.696006402194188,-3.047035621720795,-5.411127500551352,-2.770014739180331,-7.358671272496074,-9.943318845876886,-2.9910508890364205,-1.1470681363995818,-4.546748754422418,0.03147496449184173,4.223467767311704,0.4926704974950056,1.5639060599450547,5.666636650982623,0.6567040105359045,-2.318831237462003,5.48893959253806,9.691552936588238,7.816023596335118,10.0878473445961379.44992226761405,1.4056443170154718,-0.7862728313344604,1.029054969549986,-5.487670419936381,-9.651631517434351,-1.8182859372503715,3.4885084276092257,1.7584678665842386,1.9744972360427888,-3.215113472753197,-16.229648959368372,-18.574742156775628,-10.424838094467706,-9.577490275444102,-10.575083685553814,-3.7446954326278687,-0.23960254198380004,-0.18019749287824538,6.7656782898386085,9.805970128813964,2.560393576240676,2.572023228090577,11.94574972189326,14.01270383745108,10.071049536481102,7.014337799893552,-1.8361464581519402,-10.820653198432217,-6.968504437505831,-1.6433630458716146,-5.323946679262844,-4.591341914827243,3.026220958141112,5.694948603662619,7.847520447875434,12.29681308143808,6.232582635560438,-5.540499158657868,-7.183573613801778,-6.044660887253447,-9.031347067979414,-4.817879788909566,3.106288365082641,1.7382351648692809,-0.713535999696484,1.7032024792633471,-2.9885978085445877,-10.528978255832318,-6.208092541708142,-0.5639140898713435,-5.035134814713146,-7.25212360979393,-4.5163484724012,-5.958534552077687,-1.8746256676326898,11.874682838421538,15.465272135748904,6.882025569906041,3.511713252864301,2.341725477232443,-3.636773139506423,-4.210282222503731,-2.157925253171496,-10.026985262194806,-16.516910522676902,-9.808886516948327,-2.444867497996252,1.2321592025534167,9.639686824547983,12.85498436396316,3.2574391752681517,-2.962298501902974,-1.9944436383069866,-5.700234454595617,-6.594143525438499,2.6733900612465673,6.78256982136698,2.172891938244487,1.693043617385372,1.9924556647327158,-0.8746983234456147,4.773109512999136,13.198735432750558,6.468411404251764,-6.187361301412938,-9.446524759633496,-9.701726781565183,-8.149764934780986,0.64663802292274,3.4119705483261247,-6.105957034312448,-9.721292167412253,-4.38515680897169,-3.7276035078945546,-2.100616142008359,6.866129151402429,10.169567331546554,8.438275801174377,14.632137213620048,20.200507867969293,17.461741430951243,20.379873089078796,29.825488358319568,35.286475089527414,47.734863765453476,74.45306060281742,99.93364572715569,122.61741306694594,151.76242125447405,173.73215603900633,177.201781502243,174.83488314398733,168.17887079300613,147.568415457257,125.21764792817223,110.6006245689424,88.50990240462957,57.959578490430985,33.19285354792204,6.301284077093036,-29.996245099385273,-58.71207950130657,-75.11048543463784,-90.20472694205895,-99.32034717150319,-102.24393799756409,-116.8828150861136,-140.22395571169292,-151.71601096597163,-153.2833191651,-153.10332442938656,-144.8046306748842,-135.71830860022882,-141.61493188156697,-152.5123337553526,-155.812688502505,-158.98758882859744,-158.261717997734,-140.9134912787591,-119.01537834335765,-107.79996892515217,-100.9700657266296,-98.15420261011786,-105.76533990656492,-110.02704082482725,-100.10674457084112,-88.63620754123019,-79.1299188192414,-63.44331416438986,-51.32483633522105,-49.63462507319871,-43.41582482420713,-31.544170652834374,-27.683313170172053,-26.083034875024822,-20.795874337480296,-22.70788636235284,-25.93669997999542,-14.441768156359183,1.235067767693423,7.703332100920872,12.515385964486724,14.281292058695787,4.983488732045391,-1.5661041611686741,4.485324552898019,10.020732437310077,12.77884868930156,20.808642002883737,24.63983763615599,20.314949921974986,23.068540292891363,31.693147587786584,33.24044709401642,34.97398804402964,41.91624875803997,41.65535774117907,38.27433514563988,45.71745910462978,53.51384245226537,51.9151102664991,52.10832021325601,52.22714410826302,43.04638453483793,39.46236711911728,49.97434907779552,57.341895643838214,57.6103549782179,59.296064792208966,54.117346472478516,41.25161572339407,38.82492164722124,44.94541666615124,44.603874503724064,45.186030836472575,53.43469279698276,57.99955102893908,60.695943512019646,70.13524398706919,73.32329226510973,63.38031866498149,56.63275776733343,55.59621239913655,50.19444669854097,48.800194824738355,55.88945275262455,56.32707062202931,49.98063942400525,48.63844921991026,45.65894727137247,37.48583725847536,38.04940539862886,43.676702473859216,36.66687089746689,23.153703344662915,15.91474669990312,11.811429777222873,17.049564506102964,39.14469385305401,56.585868584059114,51.686935584567806,38.83390173577196,28.959507220143706,19.69914388291251,18.85852667082304,25.852609427183296,23.52206377131074,16.292853578004273,21.745910601960116,31.25707194102811,32.23599663917592,31.195412178687707,26.539665083198734,13.341449016972106,7.483480389910403,15.694351614175368,20.921101978094228,20.500745222802895,23.15444532917673,19.17183932021151,5.050512294354995,-1.1528016940632955,2.773139902438188,3.707615030627569,5.6614151206166135,10.89013397787402,4.971587460701601,-8.358677079630668,-11.287261166381418,-8.558020366958345,-8.496235112312792,-3.7378664342624566,-0.1981216727214381,-9.800728816219495,-19.44075687762935,-18.573615854011297,-20.035730569007825,-24.9425255966022,-21.622278727155816,-16.17870016482297,-13.655955443830743,-4.464465207014694,2.2185124343518874,-10.385671756870611,-26.867331008504507,-28.693276377225665,-23.94694346100345,-15.878514463546786,-1.8015411508986672,2.585194436951277,-8.13461328076775,-15.618197774424203,-17.080500260884335,-22.409110483111004,-23.818661615771617,-17.574836848794003,-17.349103932447587,-21.518479382396773,-18.31695844444007,-15.730598974275068,-19.111848409397297,-16.84417302086624,-13.59417367562042,-22.03799495509782,-30.248068443592853,-29.491861407239874,-31.585024783676772,-31.50932381978733,-16.007386706459638,-0.5993100439185253,-0.7177955894430548,-7.327013742700704,-17.951342343373184,-33.682141074085074,-36.3243030532015,-21.079984678719082,-11.093078124284585,-13.377584998525212,-15.813300481394863,-19.782475922510542,-26.431988493431966,-25.246683835689062,-20.327301820583667,-21.827932951198058,-20.6232662977135,-12.687162453576025,-11.221134790692986,-14.234588695766996,-10.900314582284587,-9.736058713796512,-15.135941748719418,-14.713491243658703,-11.411752524665532,-16.19252982946787,-20.925486142437943,-22.074143446308362,-30.182094669002478,-36.90625753037324,-27.824409607502268,-16.697079894725256,-17.090340382949584,-19.424119098367203,-22.483564747286106,-31.45084684672496,-32.28574157271943,-19.278546610240987,-8.939900658159658,-2.722329980016932,7.564750405816647,9.826772351358944,-1.2185053174683276,-8.381622511779089,-8.227018306057934,-9.516052058936223,-5.296925822139322,5.575649883953176,5.78809743793265,-4.673567609612434,-10.85163014103686,-15.559731174050455,-20.524113943608647,-13.056086963740398,-0.6596758767804989,-2.4411058556015206,-11.123431354269629,-15.797124185679964,-23.128716405436442,-27.84421232226477,-19.478639482639075,-10.665130964457902,-8.284480776392027,0.5422079883480517,10.500220773337444,7.64547504578862,3.71754374956011,6.790590196158109,4.211475443465548,-0.7832771753163352,2.1649702814305143,0.29509631696207594,-11.018680682169652,-13.961878791196039,-9.641827222054191,-12.482222740398988,-14.15238023817442,-8.942853719018169,-11.747844655960993,-19.723461280497762,-17.17704112437038,-12.108075009484178,-12.130394459335012,-5.1594722415219625,6.293753486355228,9.789890089310418,14.612476141207319,26.543451332189896,30.857808700786567,27.644399775444953,28.84837994091363,27.86682385278994,21.27273579757079,21.266908050815463,22.529239623990897,11.973865787383664,0.895457563612645,-1.7116091616222657,-6.55805779895603,-10.761230147028481,-3.8537956779306723,2.7635853732584956,1.5847433856997595,3.701857878333378,4.840394324071138,-6.271588764446671,-16.065976314333028,-14.796598366101632,-15.798302006048557,-19.04517833852642,-13.492643553679715-7.1211522237143985,-3.182802031049699,10.679096499351632,25.01432830585344,21.110224160723867,9.708680525782604,4.554051679227555,-0.1677982631203394,-1.5211619446440101,6.745232789884482,10.595309805821827,5.275105865895727,7.939007033133804,17.52657198217443,18.569804238767702,16.020549904549185,15.170128926295313,7.594604920784191,2.300418714902338,11.596470017353639,19.508732000718172,15.962347537142069,13.523154869483868,10.733407059009958,1.2183145987298993,-0.45663540325518315,9.112459676463981,12.590425567573433,11.554573583688512,17.56000835836316,21.69776815037215,19.260335025689823,20.70453283531362,20.611266229735655,9.093652436621205,-0.5462555277174033,0.632428305476932,1.5984524729311995,2.8106770369743757,10.558998682603605,11.209921695630785,0.032662575658421567,-5.385727602876882,-4.813054753172851,-9.715793528770744,-11.133414844822624,-5.628587872947486,-6.677906853965863,-7.689848064743364,3.8852195312837,12.234735350638182,6.797327332234395,2.83476327311371,3.9621615869528473,3.614482714413774,11.259892934621611,26.035716924559107,27.993213864173207,18.814970660622663,14.286766661803338,10.920067861895637,7.04842595424362,12.849405225454447,19.517181795946023,12.885054183222731,3.816004754311128,0.5354309351473834,-5.487010419385253,-8.556528136375473,-0.37305448363590443,4.628828718693652,0.9682365187985553,3.2785374169324664,8.510600049230247,4.6894179536856795,1.5265218128417228,4.188741802679382,0.9255251533844859,-2.5956396415761542,5.968139012203037,14.59504734410969,14.280656940617257,14.598757746114448,12.541344639343595,1.01937683065715,-6.47202052179536,-4.477073658534168,-6.0627540122982495,-8.398666920655067,-2.44374010112275,0.19733704425455117,-4.788538476188877,-3.7190830547828906,0.34871748335739206,-2.44140661643915,-1.8986288738854258,3.135149359037511,-3.175530525862681,-14.555823818175615,-15.526693353986445,-14.121126179409895,-13.784715527374654,-2.5377198719621292,11.55129855271466,12.848813193460813,8.967006560093594,5.861229854704806,-1.9316253999969133,-3.6511905629919434,9.172818053375671,17.881224173619366,12.696970617285121,6.937605256045704,2.126323308681329,-6.2129048131716,-7.5927977209421105,-3.726626571267205,-9.737497091682483,-16.35573248954509,-9.3670937044912,-2.0503420646224777,-2.6075842487556145,-1.7167643339655316,-5.5233523602934165,-20.48427719658988,-28.300671284439616,-20.68458635427585,-11.264096925859855,-0.9683173281976907,12.891359111212305,14.874081275688097,2.796974176402973,-4.856698526718064,-7.9790701700643165,-15.508636843693498,-16.684250006051677,-8.041178851244673,-3.4520962635457972,-0.29045626645942024,8.642800289809735,9.233868801099375,-2.1454819628340838,-7.575565290872255,-5.9938183949625845,-7.289474675522145,-4.087726170312434,4.0766186945887295,0.7327350693869628,-11.059217063886594,-15.505360687475493,-16.426808457323617,-17.05912743643912,-8.183551542118394,1.7563988935461219,-1.4366840498718516,-7.222743213672536,-7.053043978879112,-10.049235868216364,-12.336921479085134,-5.217560559264305,-1.0145804015132893,-5.633940796769094,-6.723049112536676,-6.639808535162128,-12.69974497962526,-12.342277252367882,-2.449046524172771,1.5974113226310942,1.5119852615448186,6.516358987970318,6.15073034740504,-2.6046005933999457,-5.035004909459172,-3.815396005822196,-9.16166146190235,-10.69556520000679,-4.4606353517263955,-2.6530599368501124,0.22989131367784094,13.609714850334411,20.156969320963295,9.375447402520217,-1.3013666852050907,-4.785267048336021,-5.858145867435648,4.276833320586713,21.38692334320154,22.677407012310958,11.912247751211549,7.446834410363826,3.3545482804488267,-4.103273644429377,-1.4123438019835137,6.532734768901884,5.904965800163604,4.9040819150312664,7.124286709707362,0.9002463847488178,-5.2676806910604626,2.9098584879329765,11.677092648880388,10.379513951681174,9.889267809682956,7.80865621945272,-3.527001116357846,-8.416654607009708,0.34648535247587686,6.207163925133756,7.980966547715621,13.391750121737727,9.931159292063551,-4.667790503804808,-10.904476300193352,-8.73862829449432,-9.76992435498277,-5.74114728441821,4.718981628003007,5.783204550859221,0.5468369783991927,0.5213883606219623,-1.6179178747744825,-5.692474981782096,2.0760552172506457,13.772884437040004,13.146871048860241,7.5024516206953855,4.173406314529244,-1.669503064225947,-1.4858384440016326,10.405311369958929,14.540163897116338,3.701209985829055,-3.8548022690095967,-4.606202804372192,-6.130188707615647,-1.272003097864434,7.2702680311723675,2.8805779438539227,-7.317845683931566,-8.034206357810877,-7.94733220809106,-9.942078332431134,-0.5848084225256764,13.192997872621959,16.662562483599068,17.10273529334465,18.073242466336453,11.779211002768127,7.128436463957325,12.242898526339857,13.967372156209585,9.39698434596896,10.197599710583205,11.316955576102323,4.7381372976776595,0.327572453364672,-0.130803337483259,-6.420021630960732,-10.493838299358929,-3.4642039153229973,1.1012675744518385,-0.4675266552874635,4.576941959825999,9.126131271488799,2.306874098729737,-1.9321513725756143,1.7419381826079006,-0.6007702087731288,-3.819430879430096,2.985248664475532,6.514143040160502,1.45607570749984,0.9134032567424469,-0.222899682765286,-11.151845148473475,-16.79603983052778,-10.833854397825942,-8.282892187791397,-7.679024784628132,-0.24199812550126687,1.4568231031260783,-6.487005740355534,-8.864474014575075,-8.332890188351438,-12.907079152447608,-9.337245179601492,3.771066841811541,7.2235490882055995,1.643476430127398,-1.0117605875684141,-5.7292883636083385,-10.19470578064375,-1.750622521794539,7.227706239068162,0.5734837458859205,-8.292555494461691,-9.866848995289219,-12.767886220581003,-11.680896963718759,-2.010766083832716,-1.5744840820773538,-11.881481986260594,-11.293097212223296,-0.9011073050923595,5.242437704672739,12.235392472447172,18.014468522420493,7.260069819967866,-10.214584726641638,-15.26005165066498,-14.638161458217724,-14.426233786218315,-7.090465607674133,-1.5566210027935974,-8.93255888949228,-16.167415221233426,-15.599856366478761,-16.84089481030585,-16.285424696896506,-6.399162264526337,1.693961846745621,4.370729881653149,11.86211597225808,15.92615961634758,5.7366569302117165,-4.356764406909633,-6.206501516039792,-9.416216990149547,-8.832811904694527,2.427149869998096,9.183889081114135,6.538996732628825,7.099015219215714,5.131303386681219,-7.211247215353545,-13.332580301109687,-7.266192006270421,-4.354128969144009,-4.566065093460848,-2.2386969303120305,-7.592485030554817,-16.128493139757897,-8.677480239442403,6.558993167460453,11.431120501205676,11.26839423176362,8.160461412933056,-4.734076562783288,-12.980338600156509,-4.54899633299218,3.6001120737616814,2.384928286029633,1.034298912442699,-5.585998896032746,-20.656811682331806,-23.86750231781256,-10.366773024180127,1.3820030935078822,10.828169413695917,23.0114816215665,23.849510553134188,12.956940355033227,7.493202396339289,4.661527185546381,-2.9165922945769016,-2.769808275864367,6.3717996026067,8.430360930981749,4.794809952868931,3.8640611805300686,-1.532389424992272,-9.224479602630424,-6.00031806385867,-0.005087954773511649,-2.487540616761378,-1.7808862437482214,4.719755914928777,4.03572641875163,2.0027692934145587,6.284697959916634,4.059820284382097,-3.3290407369973556,0.5715590727598161,7.928244067061643,5.933550604052867,4.030508194930072,2.577991321622017,-9.338780414077736,-19.283643005305958,-13.285773601569304,-4.446571191705336,-0.5585789684121159,5.183331263733533,3.9562983832594316,-10.34700943917039,-18.57336721360288,-13.831846930513809,-10.792963872279245,-7.463724281523139,2.9367923975359286.467196187010165,0.3931141409250918,-0.03729453890933754,1.3394510388188208,-3.1934004633078414,0.14442789936192701,11.90484253952841,13.541128117835225,8.78944721696567,10.833067455183075,12.309383310907684,11.83262416699388,19.81587716160003,25.383264932456164,15.950884173852916,6.394674943884357,4.470114615156137,-0.18462308932780758,-0.9113480647849901,10.038574039555591,15.798278922706004,10.183628711192409,7.7863917944946595,7.387156729916476,2.301997277270076,3.824140517924614,11.390323612953205,8.865607477589482,2.9738155803236017,7.018777368964543,10.616214728673167,9.360048767610547,13.67867262643238,16.712981423109582,9.558803289994852,4.601282685095933,4.503383999518448,-2.294670538176947,-7.8314149358753555,-2.1234903527214275,1.8706237200299032,-0.0029658293900527433,4.08096376409156,8.098328873291445,2.4837549205766805,-1.5276485490623808,-2.8091362599152383,-14.506557359891938,-26.035783212583727,-20.788968808366104,-8.431700421080627,3.448388675350829,18.894216365966194,24.649279092542187,11.217907602122567,-2.105887296125905,-5.997690262754855,-11.22741252863778,-11.785563183168339,-0.3087693559154232,7.18097441357863,4.307288496565699,1.7235754138574373,-3.7643098147281213,-14.118689455722608,-13.099524510332902,-1.7434888287607984,-0.46490746923371495,-7.144297294544239,-8.493280880150504,-9.710878507795865,-11.332180681259395,-4.278875220629823,0.5243726380443927,-8.007077582495711,-15.628112380983815,-16.081477253183323,-19.20444344179706,-17.86638294237494,-4.382590763578668,5.402827473826459,4.894679910820482,4.50050767374814,-0.2561856276863532,-12.587843268213788,-14.85074055186168,-5.542947449069649,-2.3230172350345875,-1.7749297566567717,4.450651687790468,4.474862844834883,-1.5155780008402409,0.4891630286373254,1.7316193997564873,-7.907256863552599,-12.350502978629503,-5.372481973106462,0.5252015952582694,10.45008116395454,32.99014058913354,56.41148331787074,80.13399411292451,117.52048878372312,158.4779086634359,186.01291441467473,204.61794098221404,214.16601094003963,207.34442036818785,199.0170780008905,201.05431914113814,195.89054970937215,173.45328129602942,144.16481652988008,107.92184636170593,65.01928615329777,33.089030192173105,11.195578285207105,-20.739405562170695,-54.8913217946337,-73.4583669149753,-86.93001536163946,-102.52419042434346,-111.80741103773057,-123.35964617929251,-144.97732162067857,-162.01423605784768,-172.18272888182253,-187.2297743446458,-197.37849504325493,-190.77469673661312,-180.58693955747188,-175.61681754523107,-170.8566693552026,-172.0160169997935,-178.84783332287424,-173.9293250202158,-160.0235478792872,-154.7061271588429,-151.23858805208795,-139.83937428869706,-131.24764841028656,-126.5340414904203,-116.9980719809771,-112.28519644315291,-116.40959058335798,-110.85027403221824,-95.27185064998994,-88.21656284691468,-85.47385195344125,-77.03196267577593,-72.73473568195838,-70.26270493970429,-54.22386322279122,-34.85532071364278,-26.809781730855594,-20.10130309013579,-14.261633176871854,-20.790918496994887,-24.717586977988223,-9.821501331725528,8.504164923078939,20.143106930167722,32.65084533518575,38.484699682447314,32.39504798303092,31.399288317656588,35.17025331669856,26.488992267835265,17.05886714847148,25.787503181555998,42.206323351673795,56.528983659025656,70.28403883033776,70.37029536974902,52.779878347658084,41.993851543305894,46.05118542225057,47.762870548762905,47.8818135289327,56.26119288001522,65.06796886449715,72.5174450346004,85.21538162661165,90.05882808109115,78.10519614345789,68.35092123816109,70.28809602720794,72.9813074866413,77.0343284710716,84.07587103764233,80.26454413241257,67.08920947752524,60.960325958958634,57.08584678284817,48.2916421850403,48.51835214007676,57.47472251130163,58.01304420358548,54.198264390524166,54.37967453628839,48.77873471911177,40.72372696189077,45.357221933243835,53.654442744542486,53.354833600565456,54.71460720234032,58.225132891188025,52.462081180333925,47.78955990882248,53.53580542354322,55.30103147495319,51.47663689886127,54.35797793970899,55.42356261359001,48.39269290733281,48.71248744503509,54.462132916077664,49.64202488050309,42.93572603344255,43.18573955477041,37.044450839991924,25.85501687288317,24.55366926831025,25.207916933572108,18.704461075145396,17.66844936854046,22.05295988037988,17.362423892962706,11.088870986417517,14.21832463217862,16.00793695803844,15.000767761736938,21.838091193404452,26.149864169584433,17.04238483905883,8.047845020127095,4.963306526057295,0.14474317299705053,2.070432708557597,15.929234415643874,24.766419021341004,24.583381473554216,27.14767516581595,27.320592976844903,20.080794213154746,18.494707600487004,21.46664731069195,14.520922922063924,4.062301164515011,-0.5708074117413275,-8.200180134979865,-16.156001082339067,-11.922326362531436,-6.992115487286068,-14.049066002212438,-20.170034587252577,-20.617373881359033,-25.179458805517402,-25.97030510343607,-16.991391463024456,-13.726833094424395,-17.145744981177764,-14.137231845149133,-13.00949177952178,-21.512810230884526,-23.134577928790048,-12.67194845478532,-3.6519008037683993,4.039935081799357,10.483351207536849,1.256183630814526,-16.57801443831102,-19.546735053162788,-13.000949964368797,-13.19785269494072,-15.142830065748445,-18.12464871667647,-29.948036597851175,-37.488683370336965,-29.221308345911755,-20.71701196432911,-18.700362313031125,-12.884886840892118,-11.16563213687461,-22.77948625052263,-32.17740890975565,-31.72455191339219,-30.676291862612302,-23.825807100689293,-8.716994407383694,-5.848014751563672,-18.327553579921204,-25.2166648808899,-24.015989328867242,-20.701657581466442,-8.884884869926836,1.1807345076263522,-10.395546272575382,-32.238733543708534,-43.54504854090911,-46.68535564957451,-42.1080010625612,-25.026982923853872,-13.851099973806011,-22.91884765692083,-35.26131599539775,-40.7015571240006,-44.647992802835105,-38.38125897479829,-20.30115882097249,-11.742281487511686,-15.950155810029052,-16.181012413566684,-13.98289027036424,-15.428718210854862,-12.70789658282128,-11.910991170691664,-25.038337638058216,-35.94383857972397,-28.50857978946604,-15.193966007793133,-5.539520291997324,2.151288596290037,-0.5595704100182712,-12.165106751689,-13.957296813854029,-9.096113824542641,-14.605828866497557,-22.983126520737716,-23.43635998564567,-23.48254249082121,-22.662132015880502,-16.15250095327124,-17.058507618691056,-28.023348780023603,-28.83749211761402,-19.470044898875635,-18.48123203786617,-22.076898892619326,-21.566534113579777,-25.60848777429247,-29.137774086448896,-17.55218688118773,-3.5967253767127,-1.8305840666353945,-0.20628895130109626,3.808576349185251,-1.739299263618082,-6.224590529812314,1.8168181822419056,7.8491080596192555,7.273171759034762,9.819864271246571,6.523570200305099,-8.320808000964577,-17.020167094999902,-15.79747295882352,-17.591389681601125,-18.189716417186588,-13.107665548582482,-15.063692702331943,-22.30747658544884,-21.283117656688027,-19.588732836103677,-24.3215020500504,-22.48717778639617,-15.139037644136202,-15.292531432751534,-14.518657746686436,-5.836017701324218,-1.893919097170467,-0.3883352281568221,10.430945536407112,18.027168974496238,12.096905980402221,6.548339174951126,5.550499083168025,1.8371634932662917,4.409782815759896,16.498928855682948,19.64394140945428,11.350075090566788,6.462479417823413,1.9887400471135306,-5.672445206966004,-2.770262958536601,8.322395987159071,11.140218830476984,9.900281673528472,10.705780093013521,4.2139995727402475,-2.7900892950909606,5.0319047061404305,15.781539770263972,15.328759293540543,12.491607039424956,8.799782806378627,-2.268224705698177,-7.728750473441128,0.137086430124848675.284271258021155,4.865283815943706,11.015520049187325,18.090562769545773,20.54249889231994,29.094879096173063,37.54532970514134,29.029204510338324,14.532345835790675,9.888495917149392,8.826671042817512,10.76707739595128,20.07621149999013,21.50358203995463,9.31491278586406,3.144302101294472,6.1351138503854195,4.112432502867239,1.4070088800560865,4.641753241049711,5.233752614151433,6.260677176169608,16.5026234719311,22.63092465683696,15.126334782817107,7.820312502750584,4.559137878680271,-1.4387206400987371,0.22174403247734653,13.222513946903792,18.61377616394808,13.117482499269453,9.130750938544091,2.928312265858316,-4.943311898725472,0.6299045851071172,11.69212966948264,9.44757682904164,3.0232783721261622,2.467041171886717,-1.1678292933175178,-3.344494037600394,5.949933372062802,13.740143185899328,12.54113534240702,13.946856422860009,14.182253616134409,2.850338552378844,-6.55894196189195,-3.777927725895168,-0.663022566368953,1.86968631374405,11.535055952218157,16.224202337817697,10.094330731666046,9.28544716483723,12.972244084285473,7.91119399624184,4.077611738795011,9.821673084642129,12.838303085113642,14.571883923918056,23.341114789190986,23.233374789723293,6.438774741017465,-6.404432331568771,-8.103959586756417,-8.155653997851868,-2.1734296950995473,7.7525590853856325,3.0947663782740684,-11.071360243417777,-12.723405764415148,-4.877067506698275,1.5586624593068052,11.084728022368777,17.83384600879893,10.42298302876451,1.996920386663778,4.050729179098096,4.362405159538569,0.5736618361777124,3.2843825638760022,7.081865894866394,7.6893050173184,15.61649355521919,23.957063892224028,16.085426783017446,2.610076265981443,-2.758485143887254,-7.623055058099007,-10.89929235770964,-5.1676593109675375,-3.3937137412595084,-11.24111657205903,-12.13096204999605,-6.5081777188195975,-8.629524174849447,-11.25713099699275,-6.933972249024293,-6.444855141138032,-6.923118122872909,2.331760167931,9.09343714787306,4.8718887734229686,2.792838241629795,3.017089067964557,-3.346231122031976,-4.408569791232453,5.806073046148544,10.332132506450876,7.542346184862382,9.620710488455614,9.571744467226084,3.0806489462886204,3.806791212833757,7.551118260274287,-0.35201539492340794,-8.079264373317939,-4.073232506393209,-0.577392212615607,0.8111661343457868,7.261664955785613,5.323130496521875,-9.82724296419077,-17.25117615157548,-12.470024719316818,-7.447534808181488,2.1574613008480528,15.703631059027295,16.385918984084043,8.357265203194185,7.694688453552712,6.220861570524695,-3.7548168711887993,-9.305303883997814,-9.175594880081725,-10.944204227459142,-4.298050454465156,11.880969358976788,16.6024596191303,8.19267345878769,1.396965599452544,-7.307183263943906,-18.825041410014194,-18.477523803006143,-11.05600225206246,-11.494148218913445,-11.858935794947502,-7.31473166435741,-10.177361011655597,-15.238751662500423,-9.444175028670148,-4.103211605344978,-7.924704959925367,-8.960229190602632,-7.750608865309634,-13.32784566112267,-15.065181234137663,-8.668541165433957,-9.311355680736924,-12.952423102770611,-3.7913986821698207,8.761653419572928,13.694652416063594,18.057910603639506,16.811297296466368,1.0829229871376498,-12.096613117581498,-11.453997261249384,-11.556918820247477,-14.294743088559734,-10.009800252101032,-8.458164300833964,-14.959738948507773,-15.188188682689418,-9.88584210301913,-9.821401735725667,-6.3300925043654175,4.375600579894349,7.083024984960586,1.5943974219678612,-0.09149874979558781,-1.9212709722366819,-5.159549959610359,1.3284145873695543,10.23124808465304,6.997734872825503,1.2348000801774495,0.9902372114684408,-2.750452255068249,-5.399774208855278,2.2028250816261212,7.581421060686069,4.72479110823274,6.064818967924549,7.063094456710495,-4.40358416744996,-15.084013129387587,-13.835201264468298,-11.105775665466648,-5.796601506609157,9.072754767759301,17.954869131480816,12.522676021097965,8.65805945302083,8.064532396510852,0.19655724012980214,-5.903124330602821,-3.4444823523559673,-3.8483754723435695,-5.326552133292732,1.9872118178240075,7.73296108510343,5.0023512405789035,5.48490630143235,7.461892569587239,0.40347200140875206,-7.248121040713299,-10.223701185436422,-17.378183100277262,-20.99564844538284,-9.38773403914255,3.228009702118055,6.132894574897857,9.061615019648512,9.199234088764964,-0.9487526417536669,-6.794829576550744,-2.733398307981855,-4.010084202675398,-8.125053446271869,-3.7190721908280513,-0.08247738034716523,-0.9134273923372804,6.3481443393764145,16.82014986739773,17.37399398853946,15.49713015031055,15.811336323180527,8.298606553303827,-0.8869143853039065,0.5376233517740827,1.6093733578156235,-4.987022698143359,-6.52531974910384,-3.942990344283891,-6.595436080584336,-4.0484137111688305,7.099352077743514,10.058849728649363,5.531689937016277,6.488580977510881,5.87951049252541,-0.8022610709610736,-0.5110897682035598,4.0683146642595815,0.8374193702858517,-0.3305767656125619,6.929365744243838,8.732379460614226,6.458010574403316,11.585558889817014,14.311054103648253,8.653784037187418,7.300277603130967,7.857249816458385,0.12387084949041327,-5.150126515968853,-1.877436931241467,-2.3563436213527584,-4.412872958673509,2.141933026131441,7.0687841429993385,4.230354200161576,5.808384690461475,8.943765085884674,2.340803943460946,-3.9180661856587293,-3.770447956172255,-8.872394703000825,-13.69867824904767,-4.905180666795084,5.770493413693588,9.222604444813543,15.708653666412419,20.20436523453905,11.776976190448332,3.8393192146538864,4.4873359172282274,2.1415700943196936,-0.1556511853982413,5.990827904992973,7.334394708970947,-1.463846047428346,-4.712915521448648,-2.844833073816167,-7.2035445372578355,-9.627130957769658,-6.047183545462744,-9.064180462994287,-14.075224009942099,-9.383144377891899,-6.66079815692557,-11.923776555370422,-10.625469186771731,-4.571510654622664,-6.171615310529192,-7.387629665400124,-2.5933868001991933,-1.769840759143527,-0.3916952457948141,8.827786082181174,9.341882405007562,-5.19943004904997,-15.633408445815029,-17.882121363153747,-19.93670377240361,-13.326827277173813,1.9847523710092654,8.985848875424006,10.264378094218568,16.376886388053663,15.646555278233603,4.298727317882369,-0.4877050183080811,0.456412562437995,-4.9541392699056575,-8.009170196183298,-3.8948163847782205,-5.697075589539975,-10.944710572065906,-8.73213192481453,-7.916008034562759,-10.995146422106176,-3.0504440259973036,9.626932751971875,9.163476959998793,3.031562658839138,-0.46192764641471645,-8.4882147023235,-12.84118254654167,-3.047281288377658,5.114832011063269,2.9400562391787095,2.8903660134235873,1.3682015955014597,-10.364386215694838,-16.35460347960695,-9.26730691476023,-4.921229468710912,-3.6448691952428613,1.735372592046987,-0.37963360397248214,-10.44007795681752,-11.005026986499828,-6.0582017949223825,-8.692431115070699,-8.576257442192876,0.17754996018994262,4.208898006786198,5.207053607850706,11.682452162620358,11.743263029705918,3.1995267729544454,4.065003760783637,11.504384249796562,10.243352253544561,6.86932724087081,5.8830802554488635,-1.8979255061223799,-6.9738214431139,2.949250140798012,11.820220518593539,8.571225710522508,5.271943746432029,2.6408797919110443,-5.107432279526232,-6.365355502931527,-0.45214124518813925,-5.412307472623733,-17.458392593881424,-19.914254892711703,-17.33549064686924,-12.84639705109564,2.4386201767967135,17.52329713287008,16.293766527244127,8.605002816121761,3.2984273971241014,-5.416362712904919,-9.628424167363269,-0.2477902242044503,8.553039840791367,9.105207486415187,11.485630729312224,12.410823523561136,5.385325438479251,2.2525113008325066,5.27016336055882651.1984099231885468,-4.596359425650064,-0.7924271094276594,2.8820546658264243,3.3485827055949198,10.748880454102256,14.765654709988903,4.218549562546169,-4.181976613172455,-2.768843000267376,-4.908815261661356,-6.910318570281017,-0.06899668426683192,2.7981747870567566,-1.10155633230266,2.6995366250324184,7.64438775023224,0.8546443898581009,-5.075327075139278,-2.8282537728092305,-4.186532908826252,-5.297739578531926,3.020357746379727,7.4899863312224255,2.13944703732532,0.9534437741912996,1.4325395229149331,-6.516179578290815,-10.23656381489366,-3.8253769393401535,-1.9202056788846673,-1.5238147384239489,8.092759569972639,13.638889427218457,7.714382188766987,3.533493475690669,0.22599045382928662,-8.610805327857017,-9.68590288965239,-0.790658154341354,-0.25279465898806386,-6.391250303902673,-5.5854704389964756,-4.181048011559859,-4.513788468171205,3.9971074253830556,11.590855273090689,5.7864060998175635,1.8746721305658665,7.317970392242765,7.395633947978931,3.1134086143848974,3.2327445064725975,-0.8479742860036523,-7.711423678574084,-1.9750932414652511,7.038632142360923,1.6495478933239518,-7.121292290417392,-7.402165759071543,-5.77515815647951,0.7266581532100698,14.840675729518189,17.805122389364687,4.953493887320195,-2.5852447445124658,-1.8052189011929827,-5.177721272617916,-7.4116908652032345,-5.047333845401068,-8.470372488779988,-12.816616359361452,-8.895228643985197,-8.590905524792303,-16.62636770937686,-19.45691117924224,-18.04041435541116,-19.031154195874414,-12.110857455983215,2.461858208074675,8.327434168543098,6.786631764117432,5.319638104482082,-2.215299923432598,-7.209913969455568,8.27843966586897,29.9160793681336,33.94477609669891,25.297944959035156,11.8217680795121,-6.61447750528734,-12.884579535287136,3.7231574041541498,21.71596410280867,28.417473225954286,35.87303426302216,43.050953996046445,43.98814202652754,54.19556211689814,79.67042853486092,106.29821997514328,136.90125301854448,177.97230223679833,211.24845875183655,227.7214450186842,237.82095204140484,234.78486343146878,210.9813727877334,185.10645815014237,168.56131002178967,153.96265914304905,144.59724557448425,140.7605010149427,122.72030134009572,88.62606678858188,60.520010290071056,40.55456748007373,19.178301269153813,2.6361679068038306,-12.40619375867723,-39.348687531158966,-66.30691927250628,-80.73093678205807,-98.82536602900137,-124.10203494649923,-138.4075372404378,-146.09780762159895,-159.23626596508166,-169.51753161302878,-179.97561535750015,-206.24892786169545,-236.95903243354712,-252.29647297492238,-257.6453987500788,-257.0382529959253,-243.70353729220665,-231.84166946780874,-237.6543905326388,-246.45794257878833,-245.1690449978273,-240.03503121627895,-227.98560167704392,-208.29681180680154,-198.75799677181286,-199.44926079052624,-191.70561635748393,-178.79951770119533,-170.26944207152917,-156.42362209144622,-139.0334019735937,-132.5422023727785,-128.28604557598953,-115.1685285695793,-105.5441723928721,-101.10479480834415,-87.83793930200758,-73.03608889795393,-67.16858830275683,-57.202608907275774,-41.62641755845592,-35.62722081807091,-32.56218487684188,-21.28457935191139,-12.402637318563727,-6.474504156139618,9.85085305383692,28.548694638780965,37.05350347657988,43.57879454853395,48.9652396125001,43.85528763474159,40.144404388868644,49.24258309285487,56.15534549124254,56.43530837643221,64.23848652943761,74.34692950636725,76.84911918174569,80.70824802155786,83.86387045104595,75.4168738171293,69.9403788455742,81.44221428076224,95.26321174308916,103.45680644102224,113.82989531597758,118.00008799020958,107.60909464699657,97.02804605573363,91.60497024348145,82.8449588246169,81.88673973983111,98.26536936985289,110.80025034939423,106.60133420280228,98.08361329836981,87.13475441544857,73.75667395966681,75.92953425933975,93.06772840992981,101.68465291602539,100.91138816812762,102.19256683542692,98.49013054794898,90.93954473004604,95.17848555552162,104.53721820093159,104.35127002333103,101.91560960508184,99.61395632960824,88.20390735465367,78.65369381407928,83.35132669751962,88.19414607051382,84.96221589849924,83.12952612199662,78.14624184411377,64.75248019914787,58.19792203839902,60.02878733057112,53.88638729105564,44.84492237232548,44.729388860930555,44.39793167212574,43.02612267982883,52.76059552257422,63.015962315846494,59.89976925137488,55.57948819024415,55.03338708824155,47.51138465335475,40.95906526360057,45.53918228600939,48.2807692376263,44.97648990732819,46.92596435215273,47.081463095776044,36.50946348328491,28.633203376921315,25.790818095787078,14.664914962882527,3.8613930380422694,6.803231781982657,12.947355335596026,16.696174871170154,25.50266400526661,29.764865955181936,20.379666078318497,13.934395709086663,17.715708059183587,17.66609478012938,14.744053499219056,15.386846485557868,8.199558364803952,-5.277045791673155,-7.141699274597366,-1.7256983026612451,-0.6198727366418447,2.873030629906058,4.709066237332421,-9.690731752703805,-27.578505571766172,-29.8943593415866,-23.969419282108472,-14.637366484728979,1.9083977983997116,7.466035824111186,-11.675867065676506,-34.80283780437104,-45.01669923179879,-45.791619181358996,-34.06395023523389,-12.191949168794295,-2.0770668855504297,-9.5097022523193,-17.789857413934367,-24.998097356514062,-35.48693813371138,-37.50848631753192,-30.71660452213876,-29.326787570837116,-28.56148138406847,-20.658428846021565,-18.437082745075145,-24.786162073951218,-26.887151603188997,-29.3913538028616,-39.97333678315095,-45.70560987956861,-42.941284695524274,-43.27170902667895,-41.05235363994517,-29.084709524467314,-21.812031590672788,-23.819219598856694,-23.3504133712213,-24.505654701952597,-32.546860780780705,-34.77651404421424,-32.61264824048157,-40.002476242762235,-46.74271268128008,-40.66029362233219,-34.349647560625485,-31.621548725706813,-22.990454145750384,-18.96981797285695,-28.589217177397114,-36.029796909021975,-37.93718410868804,-46.68477733842535,-52.14567185920765,-42.600422189638,-32.446263061655436,-27.379320123049254,-18.981416981344708,-18.723376106378932,-34.50365221343027,-45.65941972250506,-43.96487355990963,-42.34582458778493,-38.2504389009,-28.984847000027585,-30.511302054903215,-41.45496444335074,-43.432015736699654,-39.97537549971536,-39.44432493209755,-31.61874530152853,-18.431501683358537,-16.116197752506356,-21.27747169985851,-26.131246902355585,-38.05416761122872,-51.366775132090865,-51.42707980056933,-47.289462041673154,-48.683257701042095,-43.79047764230803,-32.86939506096081,-29.619694663323656,-27.499803893844643,-19.86770505294661,-19.690031250015117,-24.634209102072155,-19.406747465496966,-12.166960317666874,-13.223733900090057,-11.827595653165737,-7.497735055695827,-11.40831673103729,-14.13246193323046,-6.036588094836097,-2.470111487902051,-10.310509781912543,-18.07713514465395,-27.530392654638316,-40.398651123013174,-40.87332576086251,-30.69959251983302,-27.89103215067453,-25.640696346416515,-12.129594346284907,1.0527317607235274,9.287513891978639,19.382776416752073,21.783346314992674,11.953731910282151,7.852501563792972,12.81757951298492,11.690015069950542,6.581579181613935,4.580692506413197,-2.516305219179619,-11.878778233905477,-10.16103494027533,-5.166600569582428,-8.494759554203172,-11.416310515393523,-11.780073527926286,-18.919592761179448,-23.996887562663204,-17.10205773001946,-10.126847257604048,-6.122251500875937,4.625847345276556,12.810732841734481,9.626456986652544,9.30027492295099,15.384041482898796,15.986060080041804,16.485396720552544,22.683986321990325,21.38503501592115,13.607227924374465,14.33443310493979,16.777141717541458,11.216428916618245,7.963554643737295,7.625681099556507-0.6701498288324341,-7.693567563164685,-2.6494459097527763,2.0029639621390105,1.3174033279318889,4.856454712626615,5.720220448602218,-1.2146436283365798,0.7751450903644121,13.810256912790535,22.607179070310128,29.635162273222683,38.18389129993782,35.09506818317149,24.156908588084278,21.686312126020585,20.608820993608884,12.445867199215105,8.75378964428284,10.109577174229234,7.292817561266109,9.767607416765035,22.302628819916794,26.71316058776526,19.690831042492405,16.873867487359828,16.019998524784445,10.958544931771105,12.687980810908886,18.8706305539265,14.351186423668548,7.097643121402682,8.234112409630733,7.080989117436615,3.895880851350453,11.766719491006027,21.189781303146706,20.566739382593905,21.058196895002286,24.82520829171486,22.01381929296468,21.53440782704932,29.899620856711906,30.330545646904888,19.06010238824047,9.909322812786014,0.7466989035252367,-9.003538260826058,-2.2867928543716394,17.236042155453053,27.27748418326211,27.781440636483197,25.428597217680334,14.539605391640546,4.8780570299686845,11.860777026403255,22.52785358698725,23.580430296021696,25.253409062362397,27.102567338418616,18.283114380376446,9.83667965121251,12.071198409612037,14.157332549276695,16.164419580610627,26.699664939834754,31.605971355353706,19.864304528077135,7.40488493277681,0.7614960247253018,-8.871637530099655,-13.2664310526968,-5.531928262109695,-1.401792948432075,-5.082322764838753,-4.997555589407092,-6.900783606114257,-16.03415191665625,-17.61208666599162,-11.183497138079183,-10.711934893821443,-8.828067079808019,3.425481401850752,13.291822011311133,17.910111286018736,25.781516830191205,27.412948188872125,18.462845640196033,15.760292793125034,19.85549777187527,17.344657888113794,14.693395519603321,17.409684204552747,11.90759039342192,-1.3904278427216745,-8.122722488302625,-12.188648235306756,-19.09813319492452,-19.54650078637566,-18.73609737174226,-29.248907589782178,-37.654378701953476,-30.96295801417152,-22.184139273813848,-17.621831283468346,-10.643152154199807,-7.666515569843904,-9.733870314751872,-1.1556867621508817,13.148006255411596,13.60039089930897,6.194802704171629,1.5986112676332727,-8.06115173892814,-18.010083363580065,-14.85366530752437,-9.243564196587919,-10.606872746408664,-7.4247736118474315,-1.2564354141485914,-4.557944824828432,-8.987963779208757,-6.618195999779333,-8.764323195447714,-13.530362683391592,-7.005914081020727,2.4254261094691603,3.075764037594496,3.4113897793444217,4.329511518359283,-1.54357624866834,-2.243309466204465,9.302416545768788,15.920388421955355,13.64955920748293,14.020398497321468,11.220794165474194,1.2797797920585676,-1.2507645695277914,3.610867921913489,3.827424630719399,6.230991034162147,14.883406459103774,14.047614176216104,3.1470761027073983,-3.6477803884442324,-10.074878540539192,-22.669426240936694,-33.43044024731176,-35.95564241642077,-31.313206308012226,-23.293746180269267,-14.371019241940068,-9.568775602035105,-18.81680464253527,-33.753425188817104,-31.10947251800461,-15.440171514722014,-8.121658234317765,-6.096824044515882,-2.9020744122007684,-7.814358054718733,-14.614261512308786,-9.39550502260828,-3.4649766191512135,-5.610696283000211,-1.2808300095030125,8.79280755823142,8.118178956259811,3.281944972994025,6.00823838956209,6.926087461189516,3.39014005148319,4.4649260453824855,4.217676276496837,-0.6777673081506501,3.0432930890127956,10.118346958071454,2.555720685101263,-10.179515144399417,-13.691605505009296,-16.274913789833334,-18.910131557882167,-13.165638997904042,-8.822867010915285,-10.727197319894719,-3.594745513869078,10.648494888393008,16.75808888159153,22.662294366597568,35.86675518264255,40.088374803271535,31.705562922520606,24.312527498966034,16.27570215267934,7.827952582655724,12.928972033639944,22.888615765546763,17.72005129347909,6.694761910039353,2.1025569402858926,-4.433018930781857,-9.632638220948335,-2.8074622324694167,3.5009048443719166,0.8110665459928466,2.4567533315073504,6.101422659896038,-0.4349029101187525,-4.180258122529975,4.010006130712343,9.293967959803693,12.157866579381464,23.814409918862193,31.78146709692688,28.31483827974794,28.519736797638252,32.180335277223946,29.76079698608132,33.37520453934567,46.31678652064089,47.50404042007789,35.01642913337154,26.449427556436596,21.69332085706646,18.12567923889726,25.062695580108056,32.448639592044884,22.567780726373325,8.40253284829363,4.615634919518117,0.3667283469251337,-5.226029711740137,-0.08016060174655282,7.429260368668353,8.093338498574152,12.292180246397836,16.801072408190375,8.112566664582651,-1.3938849842364562,-0.7578914806069614,-4.868542810031611,-13.477838634800806,-9.718551728549123,0.3211362295578497,5.936841827291071,12.26507711229276,11.397346533980992,-8.474963502243245,-29.84090816242404,-36.206505919698635,-37.02807438016558,-32.98573471888666,-16.607526309630458,-3.3827434380859094,-6.063413395786523,-12.934457600888265,-20.10969781696623,-31.41479744773124,-32.86560891447114,-19.89628365698615,-12.854952427810327,-15.493281885521709,-13.522890668165989,-10.380250652031329,-10.577490896734043,-3.571639113991534,5.579874358067266,3.1899640265627127,-0.9358347862904678,1.7257528261503352,-0.7854075747041263,-7.563701149572125,-7.108210215427858,-7.887580471155272,-15.762201590820766,-18.0745705914139,-17.10529985435314,-24.56049055812295,-30.004814157632836,-26.479534089437873,-28.77051170590979,-36.57686393245827,-36.69061590331293,-36.06737144816113,-38.80116427920869,-30.351591162982963,-14.097276369284664,-6.500056105447749,-1.5692038994469515,7.404661936459698,8.720460004817944,5.142429339696575,9.881832324174422,13.383766896340392,7.748855943654469,6.428133187110112,9.194844805770833,4.823181996879186,1.9612759247807046,4.922525654202003,-0.4407409971161744,-10.871247243082474,-12.408747866810682,-13.15951673378434,-19.936514242465584,-21.956743569925138,-21.47234699214412,-27.212009554090457,-27.31105253358063,-16.03886779757697,-9.163487613281026,-8.971780051028468,-6.1964341548651785,-7.495648742043196,-13.559919051784437,-8.851337462403865,2.8549219822902137,6.539480762048319,8.699518832385692,13.528964127742631,8.865096956583276,-0.22481415503442603,-0.5677662229921889,-1.4158113534053265,-7.808562679982896,-6.495059733668069,-0.9924981188865685,-4.73546440865912,-9.010509791965307,-6.85237287683691,-9.157691666438655,-11.994672482864617,-4.3628054420550395,0.6839547905358043,-5.542433898266921,-7.948344855505114,-4.343143849555766,-5.465900394819894,-4.632830631102724,1.0281916980931363,-2.0553762042098205,-7.39642327457045,2.7420445429124105,17.901266472093617,22.861182694216275,23.151024817390937,17.47432477918526,0.34896941271799875,-10.6352669750735,-3.517860982233611,6.029434842809058,11.860951008424095,20.68974930447533,21.625591676478102,9.19758545070101,2.1341286353508426,5.046558306470642,5.263566579955397,6.914839441381484,13.108316293561165,9.348605405233322,-1.1168822586142024,-1.1636362099775746,2.9122807781130264,1.868393273231059,5.0361299715994035,9.780932223355226,4.5871621791936,0.23778236321740587,5.954876861469533,9.638266865776327,10.456637345224118,17.28323436356238,19.627216660063056,11.320669976734433,6.862539585929704,6.559934997495497,0.3406987406176327,-1.2022937080616234,7.6735501821958705,10.118404102480167,3.014341186973115,-2.5816907562305667,-10.140036350323822,-18.431117018759583,-12.201389616900645,1.8476955271777378,3.616533477209633,-2.421337752855249,-6.677627953453546,-13.422945202630913,-14.395431514115167,0.03294802287878351,11.69644082716683,8.075807847091948,3.3157362679775817,1.509384832667231,-2.7219943308606256,0.873154509024919512.236362007959627,12.44968146254454,3.9560862711657183,3.3400172070124072,5.280266964459527,3.359190992690289,7.136842274916677,11.96306975007711,5.5891076770917065,-1.5078739022423078,-0.8754374947647442,-3.3545504352065922,-6.956287993506449,-2.4813627343767855,-1.8671703254893655,-10.421576431767958,-11.398614955613475,-4.430363404551463,-3.086509797506312,-1.9134789632087246,3.5008949796102424,2.301932573636411,0.38218129669709766,10.331283992143032,18.199108755555613,13.24358551636684,9.353894484372724,8.79527786836195,2.7055076042731416,-0.20368437635802505,2.8981613437075118,-2.8880999817476365,-13.005677836390015,-11.621045685395137,-6.975394638503872,-6.800796181457733,-0.6981380242863153,6.541838246518727,2.6340424752032066,-0.32213274726928,6.177672809182916,8.807625436830836,7.95245072309678,13.945081606598315,16.620342465369262,9.423648324951637,5.781020533130514,5.772248627530757,-0.23769981578019017,-2.2490028884955153,5.351401418844082,7.530787371637134,3.446437932321143,4.530695912971276,4.284439809387978,-1.1845734314190306,0.49432474397582804,5.5150433019622,1.1542450346247326,-2.537888401934399,1.4961235489064713,-0.34240293972219793,-6.560904011479814,-4.5964131198260745,-2.7755390967394273,-6.261341518385652,-3.1028286766176447,1.4685900148976205,-4.5295180200783705,-8.430238191642163,-2.1203099183742524,0.9134593030608021,0.6904902914904388,6.1778901212150465,6.7785287172064805,-0.7476350716980957,0.7064027709393763,8.294572100410425,6.209473916149411,2.185990303881648,2.5810710014377185,-4.272170841989741,-12.702336105711812,-7.9586375624402566,-1.6626284516692007,-4.013781954740095,-1.4201082632617672,5.224713540411015,2.0798640776833226,-1.962132981233802,-0.9288138154068282,-8.90611095891265,-20.242997569313328,-17.039595851656966,-7.488453155934516,-2.3061299066884637,4.632854482840699,7.312543500691908,-2.045302335923561,-4.768131091660459,8.573046067147699,18.646510642182783,21.413126041294372,29.174410992617958,37.731206809456836,46.53886809045406,67.02416216921765,89.14891947002089,99.21412320528106,112.54512874251753,137.68554081719736,155.8228792393369,158.90029820911343,151.38589540915547,127.20843531225722,90.33624045115498,58.777900531747946,31.84453489688095,2.027709486633876,-18.254529228454487,-25.36266755392643,-38.60932995233497,-62.06084180985348,-83.10313281446302,-101.95666121040634,-117.30605905198006,-118.26652176563579,-113.62383522243493,-118.65275264730943,-123.16364825849544,-119.59192622895384,-121.46532778872242,-127.62398883473702,-123.89109449835183,-115.46800254742993,-109.31900224870637,-99.31309988136704,-92.52394513143392,-98.38552680450489,-101.63371516318391,-93.72604139421209,-89.25324138585611,-87.50678249895272,-76.46104669026325,-64.31429361529831,-56.60147784934427,-44.0258057112101,-34.36522713132073,-39.19988411832706,-44.485508404372425,-41.93250061718768,-41.65592194138649,-36.28379307111909,-14.915533107539586,5.267270580095272,11.284472710810496,12.557946357840231,8.569488111979783,-3.7444198102842616,-7.31037567394008,2.3651855715803687,7.253514293672469,7.406247067298736,13.581294828200388,17.304933703268812,16.13264882349206,22.753271630717272,30.220630751560257,25.60603020095671,20.920520070719427,23.53242454839723,21.970271732808214,20.299004377293205,28.822573429781297,35.61308317627684,35.750872835229096,42.47283423992075,48.31159898453471,37.56310254080265,23.89381697184078,22.16676512867258,24.832674939822525,32.153825568818306,48.9278609572219,58.523248187311744,52.48588045753736,47.52357682493108,46.22516000910794,38.296518522231665,33.109148470510696,37.213992306874815,36.122288171390444,28.473090550161082,26.72128509432073,27.532848151220428,29.81007946830548,44.53869343829562,60.33690442365215,56.42746396248008,42.03355435289917,32.13114517845801,24.608815901944826,25.01914130875771,37.90849968961646,44.66656908291618,37.25705946674465,32.70503984082677,33.85666244641223,31.72557432868127,34.245075044324686,42.80636404219016,40.894822177537876,30.943012730643723,27.54927617908204,24.321384873961843,17.132445713263177,18.737937745693543,24.459722987568334,19.846799089094787,13.42305127017855,12.841359240360038,8.298809962778341,3.1920860399579043,7.926767725642397,12.098082607674181,9.89977429281944,14.666361238101988,23.427032089415597,22.34589725784338,19.122129805616233,19.476454849596593,12.22703323341484,2.8150325128983704,4.954756298721563,9.551700908716818,10.357062825615815,17.46339309781434,22.68170839121823,10.772906984935224,-5.098660110021189,-10.632394635041381,-11.869389684031647,-7.02433399143132,5.982054392760212,9.056938669270135,-1.494077690131662,-5.2926775821601755,-1.3003417203456076,-2.880378548781913,-4.7636487679990465,-4.037475968210877,-9.91662153989824,-13.631239022731744,-5.283134344050485,-0.637600623105457,-5.981901659086504,-5.796896481840898,-2.0427695115146385,-7.057433500622938,-13.416685888252587,-15.578083843641082,-19.773902873208712,-17.000620923689006,1.645281229922217,17.33821588206975,16.53692196116745,12.162622114887608,8.610560540151887,0.055947865302125255,-4.950739380513336,-5.436043385300505,-14.901144218144776,-26.181523018929862,-24.505865009598296,-19.838690521102453,-20.107659822482994,-16.559355817166495,-14.679813988728327,-24.062461317937814,-32.09273097994601,-32.22887800672063,-34.39158082249513,-32.055225083961275,-16.020588923048557,-3.2008487064905315,-4.829544714092748,-8.569888024524042,-12.0762701222364,-19.33118885920617,-17.085253215510253,-4.148122685041999,-1.7810542206292992,-11.393685912887566,-17.700224177320692,-21.829544857685647,-23.22157159215846,-11.19674877310958,3.0231306880728592,0.9106163491896466,-8.945919526386003,-16.35133226136037,-25.525060929365996,-26.82136764913915,-11.191563432612153,1.8034444846628044,-0.8560382275514553,-7.3412860857487,-16.64365597572756,-31.043083720388896,-31.64622276160826,-14.86792736746629,-3.39236816983097,-1.0066433990516832,1.40630780054277,-4.249530429157773,-16.89788027263404,-18.406650943889915,-12.557238246032856,-14.16732886998024,-15.75221548206829,-12.769273707045897,-15.797803627847339,-18.671714200874124,-11.754016270271638,-8.221447621510688,-12.452987558697009,-10.820433066953601,-7.715262808150516,-13.065769906902167,-16.09639598594701,-13.878956134746662,-17.937603978261897,-20.934493086776158,-11.916706332231126,-4.390385597439781,-5.944718023740862,-4.779405018424667,-4.253384956946929,-13.57706106258218,-19.224084430729405,-15.427899525733338,-16.88422958996413,-20.00008984972802,-13.12135952154423,-8.367260843858551,-11.84875514000885,-9.830354903285441,-4.788185521513377,-6.4363819651839576,-4.215860667895539,3.7376531738632477,1.150287707407673,-7.573268726228668,-7.702190956901068,-7.373359281582254,-11.712564600489136,-9.190513117497385,-4.767822095073097,-9.342241262484237,-10.991875715308245,-4.404628609895894,-3.9857376717117727,-7.465037587533417,-3.297453389425606,-0.26813187252955306,-3.0909235299978963,0.0310025746284619,4.9741843629210445,0.7467405529772919,-1.5287515395011029,4.520979929914818,6.3425865831276855,4.766003812748297,6.52176396930195,1.1633318964142298,-10.581244342826807,-9.880343434290726,1.0537476552768048,7.236970364014793,13.023255833989047,19.810451611685938,15.83705284023349,9.027454929292851,12.528818152593367,13.392335990430261,5.456504103883966,4.876991943087395,10.55337670387632,10.126795629248742,10.666145889197788,14.63885402737374,10.212190777659604,4.709825301927732,10.57155984416994,14.161416384589895,7.295985275044989,4.40105740574248,6.295349804961522,4.858173178575974,9.54419835356774919.999751238031873,18.059198893771264,8.478776009468906,7.771800590909033,8.449640851609498,5.44304495576491,10.148457068592792,15.760241108045514,10.068991748467479,6.535717072368879,12.384106093416321,14.372891627449311,14.89234101039038,22.925016476315854,26.902713555264253,21.427961337732327,17.844947365564202,12.739000960638123,-1.9850492746766646,-12.658715350047508,-11.58625569301075,-11.000135245896118,-9.565149171337207,0.4659337919571076,6.863654882235879,5.276964046194099,9.191278853018327,14.426713677935478,10.432264091075137,8.503132956499094,12.648417776943612,9.805558309315195,6.009250978969984,12.619111149852936,15.911761593924483,9.290126800099074,6.69782690889694,5.664317771523411,-2.190260333205456,-4.34657527514984,0.5882427770009744,-4.188926930499056,-12.990179444764777,-10.550323724199428,-4.943393516107147,-1.7748054358388583,7.885941896704763,16.10091567637903,10.496620086801483,2.7697967272085897,0.15962037900304532,-6.610236472447207,-10.11754864947094,1.6589906718637861,15.24758038216219,19.337305344967707,21.86765728717288,21.924016895879014,15.868598904924756,16.23445331379194,22.680038020998502,17.25404812486058,4.273469638175892,-0.16268881369579336,-0.915970417353032,-1.680360559762137,4.836376466502024,8.662952052778957,-1.0264782586123582,-10.2623262326219,-13.122369933798991,-20.939011292017955,-24.785019948716602,-10.811369845484919,6.084167425419997,12.326609220910363,13.079261838528328,4.3655434380797615,-14.998365945347462,-23.633661318195067,-14.250487095457224,-5.030820976138136,-0.13883447473245736,6.603030339796442,6.786808132485707,1.366596454372968,6.251889304968632,15.729142474800803,15.356231834727792,14.053618016283835,16.250878012815377,10.103118081473973,2.4703904633189095,4.728170331532509,2.74271750656607,-9.337328696295428,-15.22512085664999,-14.614165737901718,-15.889765810371491,-10.76816788605009,-0.634705656177966,-1.0309933051683369,-5.655555501851592,0.008952577799074213,7.1106226405739985,8.316340366308783,11.391856859813148,10.899659632552014,0.5760519392841807,-3.777090846178675,1.8593265874667777,1.1876900016797998,-1.8321017825121841,5.598157572002724,11.992727297227564,10.378507736396237,12.339531778319326,11.303316205309653,-4.185909579245695,-17.21452718495576,-17.61672281326136,-18.8044785001721,-18.949988283020694,-10.944464282570392,-9.629285745561347,-17.80046615300518,-16.701633367306368,-7.458049437188658,-2.2246318587154317,4.488455147699534,10.798403566223723,3.5419411669856578,-7.145751551272143,-6.3300567893050115,-4.119491117963363,-4.7377170309315195,2.9683395113389817,10.994455254842194,7.2244005809493075,3.780645916348334,5.843049981505126,1.4758746280619515,-3.6072146706758232,-0.3017515076898212,-2.3001821506070703,-11.864549437041518,-11.240609502468837,-3.7528124008219974,-2.4157342775707735,-0.002516251459540708,3.2793045150181634,-5.264887952287106,-14.86216707116273,-10.557980683452591,-5.250776559627334,-7.345759314103,-5.763310272993689,-3.698739553346652,-9.570350493452432,-10.986413969577743,-4.076416696502962,-3.655218051854107,-6.109810391203965,-0.2306005079161384,2.713127581926444,-2.254458663226587,-1.5920058878822805,3.0381063385928884,3.5382354166575376,7.95123184042308,14.472169008582041,9.091345486536266,-0.49363200868658463,-1.904108012527379,-5.617260661343013,-15.721135160270057,-21.08757394780129,-25.26805447555776,-33.03134043562314,-31.275064121726842,-20.61775504444991,-19.046840804135847,-23.595979521100347,-21.788521549799874,-20.031432496305044,-18.857549597737567,-7.241775956302935,5.223770553889169,5.793858438463115,5.457353435617716,7.617196040983043,0.5377806145283106,-7.687915524557741,-4.139540449536,1.3500997725090844,4.0015441960887355,10.99050896491748,12.201123350798033,-0.9387600575525736,-11.469240910635405,-11.053223734918433,-11.65986524205418,-11.273520406354713,-2.3287440007348432,3.099833095014211,0.405447977524108,1.1147274391363675,-0.3369877894422582,-11.554515953195295,-15.59445100154054,-6.053297697589481,1.3146357120462313,5.8122409150387595,12.21412655728479,9.200988285832914,-0.11283424768902028,2.7253381742727165,12.035705476200018,13.891083029189058,15.792895413587477,19.362029306535508,14.068809223048094,8.49062689654415,12.096213330063971,10.553973077499036,-0.027674685215633765,-4.304673692414484,-5.133428476959766,-10.983735350646775,-8.679947080712099,4.03740688919392,10.13554557416074,12.137128107319262,18.22080544967269,15.486465958471426,3.8059071321469062,1.9146337700272955,5.899128900756995,2.6247175767297755,1.128848954941974,4.9273217704258405,3.435782274560097,4.0208332687865,14.918630388520086,19.97909943318505,12.68643849679642,6.139554103722163,-0.7407207459786698,-11.203291878080174,-10.291111734755535,2.7888602152343793,10.068216093503331,11.4350038896123,13.596827529251286,7.379972796988804,-4.390150873285892,-4.233274731522199,2.4726278252515685,2.1621913979824052,3.184118703787099,8.563292748954762,6.922744870989153,4.840687671449543,12.65330172400486,17.1152338208303,12.145631833935806,11.097695119444559,11.341275613595771,4.005098803259306,1.3972138051068737,7.367027826715376,8.028394786605581,8.325066551244573,17.79268970023771,21.623236258151245,13.570682638282136,8.013453678269125,4.41244859724813,-2.0056009977115914,1.988691630080777,14.397862277931786,13.89120303641704,3.098021924296935,-2.0186691585024428,-5.279259531421575,-8.889779654587235,-6.2665681840546394,-8.583027005078119,-22.338468017563894,-26.13746004620766,-12.22067883171212,0.5143917952899413,5.51116453988419,5.173516941007018,-6.543730448784299,-19.14109725025865,-12.000806153923648,5.26512980021324,12.172416213036858,12.149304946229133,8.990692602508965,-1.9652612251838706,-7.634308540789321,2.3853994379083256,10.314902990225278,6.391278453417234,3.0791942992795582,0.36089273044236025,-7.115297347351119,-8.212970525827776,-3.8832434516468743,-9.787623407203933,-16.79850473781669,-9.639362429377906,-1.5461535180708708,-1.2203417139309432,2.0186277205625474,3.4120143309961346,-5.712112051609773,-11.749553114538623,-10.219248532353724,-14.576317613276291,-17.821982838532463,-6.761909528784318,3.7451718499678517,2.9571822235128264,2.519679704084016,0.6207144024343294,-9.569277747845469,-13.635100332501517,-7.688586292592566,-6.1733489363374945,-4.781708066018685,4.684411536743454,7.924068453710971,0.7928659313493625,-1.401406792715195,-0.8904603866572882,-7.005668563560394,-9.83103688136719,-9.021297581220628,-17.59981291238603,-24.1957505166908,-14.671476756453169,-4.590764362010979,-3.4927609734617047,-1.7451527329478682,-3.940199211217525,-14.929246505782796,-17.939912974908673,-9.4605316971912,-5.573128318361563,-2.8719407814030156,8.587752696915523,16.035612770445585,13.863323760419235,15.03728218791274,16.250185647278403,9.328708540968965,6.798623646901694,10.909908876039259,7.494668418196243,2.772845108547597,6.585937152451324,5.404921554971079,-4.526849523498639,-9.580235927885008,-12.44818843460051,-18.05909045700764,-14.5839753915517,-4.631256815317707,-4.832246154220472,-9.645273680673224,-7.40438735115557,-6.209931289728844,-7.192198136250903,0.3311922884719425,7.4834065036047965,3.2663201530198496,0.7494905148693806,5.446378527739322,5.547940483259728,5.363936337754224,12.479012444991373,13.90419284032504,7.104960498666643,6.703120814806782,9.20961617232369,5.67696935238067,5.63064566752348,8.170147818538952,-1.2918553529391579,-13.770597698961424,-12.98059727994049,-7.204112008113274,-3.0507144850110883,3.947765442551527,2.471459365307169,-13.677051295581032,-23.242413293606887-17.443891965076844,-11.4724704786715,-6.488566573392646,2.964510807943402,6.265627947737395,3.077840793506268,7.043641632987764,11.889536556700214,6.76665810238489,3.2542398964843064,6.0751160133496604,4.548955483900191,4.806580054403895,14.755053432984887,19.62380026078958,13.404185742943032,7.847952120443057,1.3931192300880042,-8.62910553454729,-8.055752099161454,2.5217071788464964,5.22100138728746,2.429018385665761,4.554292677303978,2.5538616836334076,-5.40012513315559,-6.1422502944418325,-5.418053972434709,-12.27847900875731,-11.985080337597529,-1.3530109674603894,2.2289031763456197,1.6754788385742425,8.197296934535517,11.540525957075719,8.939307830796412,13.887646615695543,19.498867659730365,12.720635604209209,5.005574447622399,2.4278285121867222,-4.127697458316687,-6.706758280068183,2.887571316078927,9.552826063533741,7.715843521511095,7.919916157259046,4.927388704512653,-7.096765222026253,-14.608324996486166,-15.856971475216206,-21.748021062995956,-22.991487064962037,-11.744022625246426,-4.923032442852787,-8.452322821930162,-9.802427884057206,-11.375663760999853,-17.20452759797475,-13.854592899536637,-2.6768293894870436,-0.5368257530482425,-1.4127643381675492,6.866584285125626,14.361738587981556,16.532606322876347,20.83730106172701,18.462288742466725,3.060966015163636,-7.316313287882236,-5.572166676778476,-4.687976953607222,-3.107941556929055,4.18309059176825,4.804836022056622,-0.9117912076599275,1.742538905753207,5.854153912918548,0.4153222472664537,-3.002432060994818,-0.06428620374534266,-1.46117545202963,-1.9080717118823731,6.069780868193552,10.397111871987962,10.122665672314263,20.379413193861996,36.84874166814794,50.46155130298976,73.69225491707569,109.79110262479482,144.3843452544716,178.74974292634056,214.85445527353,232.82301498740514,226.84065147757602,214.68176088292972,200.12138305257216,179.9391374410505,164.69200219790096,151.43309522079676,124.46100784345322,93.7097340284684,74.75589432491972,54.95285738022133,22.788306262421408,-14.972450846450123,-55.02120157742671,-88.28847448724699,-94.84383583297785,-83.29885261895487,-87.23699289384317,-112.14825871029917,-140.04741179666618,-164.2207320970178,-177.5020861093203,-173.95494806087638,-172.26680017219533,-184.4518900201696,-191.23737328735396,-185.8911726727116,-184.56884396408327,-186.87925390374042,-186.43037201099233,-192.04585936197952,-199.55905119774627,-193.72386758264003,-184.27057704012083,-184.7608493144764,-182.32203349329606,-170.88015201310725,-162.83256416810877,-153.807729285803,-136.0412856413365,-123.49979467755716,-118.95379088826506,-108.05530885083182,-96.42246488318855,-94.20168503632279,-89.81596882017746,-79.52564203736821,-72.75506163841533,-61.4265440388311,-39.44238006024549,-24.05604529313746,-19.56530455669315,-12.235782142107876,-6.919826234218437,-11.286212964097981,-12.047261370254082,-7.2646715612103625,-9.429009801413676,-9.32532489655965,3.86159428140921,15.339710168378073,19.756913554798363,28.23383158646709,32.94435106586745,26.90967065629377,28.353378958845266,41.8657312797876,51.59503860075358,58.394420123068855,65.93191790159142,62.68577898378743,54.57627097993239,60.5596277033149,72.613705372016,77.15475794989429,84.83050811905022,98.04906016130644,103.46160231433673,105.1190215352373,107.76783765440628,98.16275580796083,81.18031028014873,77.83912878650696,82.91936356459806,82.09380277157278,81.38099377485253,80.70446531777448,69.71979311140579,57.79985779952834,55.485161998952066,53.12607169180738,51.724554861934166,63.607613916153674,77.61068134136163,77.73671972051551,71.24783725266825,63.31956280083506,52.51691225152966,53.81182585686002,73.04427980909666,88.2934149598232,89.67410868123534,87.53517175753032,80.35573457549187,67.64035409603306,65.03165922886912,70.08040637109224,64.47237109097145,54.20600908159318,50.842596554633715,45.001709552297065,37.86643201518646,42.94763617831827,50.63117051863523,47.95417745389439,44.48440708086782,42.518354210685786,33.48329748146446,28.735639879180578,38.11326836714458,44.070234166331396,38.37816476191017,34.28211355355541,31.05250292857935,24.44449117346629,27.243669167618684,36.902656999424465,35.204160132499226,28.835276326025426,30.478224801331457,29.67459006861497,25.725296086234785,31.562650058738917,37.22782129561128,30.647967514313372,23.292928980348243,16.61542585768276,0.8126900586622741,-10.199301879837888,-3.528881083751458,5.888090658154895,11.603384226999838,20.932362847964942,21.695419481126656,4.605641645905779,-11.547263666675057,-16.74944871067678,-20.012963663397375,-17.313293404755875,-6.125193741325548,-3.8309062100112192,-12.033040608965178,-14.036783395538635,-13.328262423898327,-19.15941873888646,-22.70968072739406,-23.879386335725293,-31.53415958212821,-33.860348742853866,-21.451783385112982,-9.953908442271576,-4.671272988792886,3.4313080763368333,4.397855746656384,-8.779826366142247,-18.077947578362604,-19.12771251523492,-25.45625768205686,-31.796699548662648,-30.27652446147287,-31.60114806962815,-34.256482222891314,-25.20395598144186,-15.776431871606055,-20.789958174775023,-29.333081554806377,-34.49741930398191,-41.73285608048895,-42.461586006047185,-32.08502444815072,-26.849505796086667,-29.665455098766408,-27.218795187607494,-24.130750520319538,-28.207192924036292,-28.35146617739632,-23.865554629785514,-26.566487428355348,-28.27689210740332,-21.50900746960687,-21.523952687515806,-29.773537976004267,-30.012684461913665,-25.30267039084366,-23.985917087862596,-18.35942076099537,-13.6157190388857,-25.01416712926929,-40.333016766591534,-43.11371116963509,-42.64045000558945,-41.34649252917012,-30.462816393862788,-22.44831317838195,-28.386469717888108,-34.32846254064778,-35.319844361281994,-39.72872077724489,-39.355475908887335,-29.732778971110704,-27.243970409874724,-31.043296004625752,-22.845027069878288,-7.189593571944323,2.5565266943956355,8.129357403322155,4.271373268561142,-15.478192032520345,-30.60143790984266,-24.07495804215444,-10.233582096239765,0.12550865268416267,9.256004762759307,5.64459613454836,-15.779107987944663,-34.83746256149276,-43.3197486810675,-50.06391896464638,-48.11614490717879,-32.84067574854821,-21.697446321192537,-20.572212028511192,-19.401943930134685,-22.238381641236977,-31.366836556432837,-30.150507143009648,-16.98428896197757,-9.782703924508006,-9.19552894786083,-7.542603127305733,-10.531598660009912,-14.143192640523473,-5.530736517426474,4.735225308978958,2.488845952004105,-0.8969800878849863,0.6381150043042698,-3.5124913725020717,-8.829405160579759,-9.392665203112367,-17.501100139615534,-29.684753017433497,-27.252109881054256,-15.428703866753509,-6.202996492612293,5.474103059612966,13.73400236329956,4.786913216153437,-9.068075882188749,-11.808233862337268,-9.331546537921964,-1.4191143925732863,17.63515751588883,30.635926246649458,24.15042217377134,12.80231237212275,4.1708913766422135,-7.099946960942269,-9.602903699595199,2.451879722482934,9.921481261297739,7.808206741281287,7.529437288536989,2.024097478535875,-12.661557260326257,-17.471918910444217,-10.133179412477372,-7.57115801141422,-6.581338036585999,-0.8471126706994374,-2.4841334096940826,-8.021596630798133,-0.38600037043186175,11.81892380102787,14.816541197894292,15.808355869814722,13.166140342407882,-1.868096513774315,-13.398652858003516,-7.667875828876565,1.6672364153470913,7.909624855795696,17.14770854101591,19.943357511786935,11.645382996022654,8.793413872339201,11.563972542272634,5.450414205943694,-0.6600460102814121,3.791757042026654,6.534807853063828,5.0653939949713624,8.451377882784403,7.050246798460037,-5.372108512365297,-12.34708095404332-10.726489321761587,-12.852533483515312,-11.95079433401763,-0.8889202774983063,6.164798687804441,6.5884454606140945,10.797653669729659,10.929419199692546,2.350257013589368,1.7541685917998107,10.438049789411956,14.490733643952122,19.190461079679235,28.9716691680733,30.11749688316644,24.87134156233916,27.19576682094787,28.082894346942165,18.619932182798554,11.900780879575397,8.88547391259153,-1.993696026191535,-10.381241194971768,-6.396546243656065,-4.367961561607897,-6.615156058998802,-0.3611128520731248,6.3447852844372346,4.850136564183348,8.29032877186572,15.36759742214102,10.257749764539689,2.3539036340158797,5.310842291334713,9.68341066760075,14.972308785751427,30.126579747027638,40.249011811913775,33.49964932746522,26.55861227543528,25.401059671588417,19.414467021254076,15.63269021542007,18.651741896209803,12.235506738720602,-1.4125285172151845,-2.9670538666215505,2.417945953124705,3.287458234058161,6.045128524603227,6.088900289660332,-7.666434667168927,-19.911743505393748,-15.902571159655,-8.119345982471994,-2.6366485874485988,7.593348057961279,12.582240232708362,4.890155544786636,1.0012833835140613,4.554819347967454,2.9132171963504536,3.8842287707116165,15.040599110964472,20.566912404258126,17.86635204412589,19.9725918911712,20.487199407782825,14.277544162123391,16.78867288381793,26.26394329764118,25.224639168437285,19.326816806826436,18.118538917133193,12.5933559550048,5.268637598137156,7.852891084521999,10.029468522292069,3.213691851207086,0.9510927945085756,4.344343927104177,0.7241944355411234,-4.2653688401844905,-4.6264898425924885,-11.160568649641357,-20.53291637822569,-19.303023078629682,-15.973729206345265,-18.41459089078583,-15.068772039595803,-7.336336825581211,-6.4733414369011175,-2.7824722881241346,10.578230200767626,18.42530199729033,17.885688580852303,19.418288398557458,17.111731076374525,8.607255040706303,9.527741697699842,17.5099799481275,15.193174885369432,7.878594973244413,5.24556020050769,-1.286377231505552,-9.830588741388597,-9.577961895465679,-10.606360984594025,-19.44077342700265,-19.3711224883331,-8.357066147645082,-1.8548877812169335,2.2995239368679536,8.057210100743461,4.157849656270291,-3.848340449692433,0.7085280254156103,8.578560013899667,7.981254071513723,9.107900218362696,11.809078176562172,6.0475202765826275,2.6417361761815012,8.714825968272198,9.977191724408753,7.193970228746734,12.660497681742752,16.896663038334182,12.060464580685828,10.408864374596329,10.875946753078786,1.9078373329270035,-6.474512915848829,-5.787797229444335,-8.681767570087938,-14.469139301434478,-11.20766463904208,-8.759765772939662,-14.702527928312614,-14.742368251575595,-9.077325514784825,-11.098215588480961,-12.792870175496354,-6.673503854693242,-5.162861292145726,-6.405736649687987,1.5709108961963465,7.382123132248687,1.9917936100886853,-1.1830905326522525,-2.151178685956764,-12.215077971747181,-20.448593807128262,-17.52728937275813,-15.578342476925153,-13.796780287608925,-2.5033009678374194,4.17219950616192,-4.560506142259846,-14.269582805551517,-20.526320213107702,-29.474447184356798,-28.246944921230472,-10.944841861039208,1.5808387528828887,2.0249878412865305,1.7936994347913313,-2.143299253148831,-10.538031753497423,-7.616420327205745,3.6349811774121785,5.787011537065815,4.613523755668237,9.712679038065492,11.0028577858486,7.75882924406913,9.813099737875403,8.760447569892282,-1.3871835505450134,-6.25854691012609,-5.53183702013798,-12.741545285961655,-19.725571592717067,-16.516322893948317,-14.438086074357123,-14.016561767864733,-6.035039081701081,-2.935089770884429,-11.443288694759866,-12.991196649708446,-5.758020621300419,-5.4719029182451715,-7.268404204271697,-4.376641824876434,-6.371471094213513,-7.685730971794007,3.6375365308108005,12.404127456809224,6.684250097678266,1.3953523031032007,0.41494159992656254,-5.539695401984115,-6.797274689949524,2.5074415320868266,6.648400179056063,4.99914395001322,8.604602147530313,6.422469672709074,-7.935538889755236,-15.941688337052316,-14.069401281880147,-15.224000344306466,-13.848914598875213,-5.989704263613222,-6.1116033300344865,-11.94954758929815,-8.668417127503268,-3.615787967532335,-4.63142089064517,-0.8279405716605621,4.904063272752403,-0.3506551907752664,-6.715548973570068,-5.019982808114937,-6.002457469453125,-7.134215162880393,2.9000030320384544,11.512122505337045,8.449116017244172,7.216746268137548,8.462491335586751,1.1314294026786618,-3.2666274269692077,3.3823290387430878,5.349175630107538,2.045817765026852,5.98665601569267,7.535530124514156,0.013871808002274832,-1.1120748583373412,3.056527446466749,-2.759385555196523,-10.581299669027857,-10.675940891323037,-13.007959995128822,-15.256300898053281,-6.120777873952926,2.724424366863475,2.0994400856333435,5.179854210192963,10.570989598582585,4.334342391715946,-4.369755018837681,-5.427716547552873,-7.484360190063402,-6.67061623707841,7.4451201609608635,21.59211569955,24.893332374375973,27.24956488595835,25.94836455030674,10.48375617151557,-4.634989490569132,-6.30705760016858,-5.75930896125394,-4.832961683390505,3.8613373032395555,8.36019643294596,2.537067657531446,1.190542933035231,2.864898791272862,-4.8088116831359375,-10.840515773857668,-5.304839644174547,-0.8042648336906886,-0.23622933055626016,5.2691472039777585,8.668661990768513,6.361062488101036,12.008391727689457,21.048689545837348,16.188397653145017,6.274914572841273,4.534258972032321,4.0211278154977155,5.944302381485442,16.39579033286258,20.02719323760608,9.408758224645723,2.1878946011342784,1.5789190069231211,-3.204759879535615,-4.709403685500542,1.083028268199159,-0.8397320797290115,-9.156530527969595,-8.984169004658067,-5.724366991469115,-5.1732779346511135,4.13550859633585,16.63639250459508,14.21618147238857,4.404003755449682,-1.067078282482537,-8.072461925927374,-9.91714103512808,4.439808212248431,18.26726273323205,18.095342921979572,16.432916246353713,15.487189240945504,7.713238249102902,5.063459257854744,12.146785547713906,11.813863361384863,6.205551784349387,9.91064175756675,11.829678606503258,2.156872627867706,-5.57304110440528,-9.586262859904762,-17.16912373045841,-16.38131104514868,-4.9005746706339055,-3.509196852299347,-13.600767663206469,-19.518089480581196,-23.377341363610327,-26.809068547976896,-17.56859189836346,-1.6248122790928736,4.607144163183083,8.188801875431459,15.756800449381593,14.487230022484393,6.827606822162959,7.624045580016096,10.053515959467726,7.43811590644353,11.763559629948396,19.480739580695758,15.618324827899498,9.029805853172006,8.939990578683517,3.435546016859486,-6.001950857609634,-5.808880355736298,-4.231436297269533,-9.179892753192885,-9.198019558854643,-7.265254582282811,-15.923572531390748,-23.40140058717561,-20.09767946722733,-19.438765164657514,-20.79994547583635,-12.007915434069155,-3.405159324157623,-2.9022593758687103,1.6441806680778426,5.562759312885302,-5.0008246646008985,-16.011256721851495,-14.008512804004713,-9.457798336447642,-2.274654349568791,13.837202870238047,22.392854427008665,15.334568879687513,10.145250836218304,9.307100292065611,2.8020979334922114,0.5180288352751086,6.391173697455095,3.53148290312449,-5.280236322801291,-4.407280620301185,-2.404213395767419,-5.816595514693356,-2.5712659421460704,1.4997580878040053,-7.341830390650241,-15.615774615383154,-12.152686791316649,-10.084408848582159,-11.652991062808992,-8.441019402868237,-9.253834394299535,-15.942811634814785,-11.220798834025018,1.8552104471931687,5.611842522346597,4.824500262804001,5.7584049148610745,-0.7346965389175009,-8.251976608687784,-3.4629594457000055,2.702482264770006,1.8931913682599912,5.155100413850858.34191714651732,-0.6723015979083593,-9.122238077091986,-6.377145127016206,-5.05217547151253,-6.660753900677982,-1.845466165396653,-0.6035074178348916,-7.739210295373197,-6.85739564732188,-0.7797265378135116,-5.641254033577783,-10.82191142899133,-5.093716410050809,-0.34805866686703857,3.2298153997225936,14.257774569708252,19.257468839505467,11.372302613696126,7.6348055351834,7.92028429176447,-0.15488282719693158,-4.5978180980111265,3.184387421507368,8.0131111833545,8.2982210044264,12.340942441903936,9.365149760119344,-2.4192382292642383,-5.224275352353295,-1.2066776501230745,-3.8739661353549053,-5.389569712654707,-0.6585847583239857,-1.7591474065227346,-6.005941255254083,-3.1742473810922163,-3.601780540909068,-11.337727039373602,-10.074763518112508,-1.1826564628348244,0.42687888075891345,0.7134981180273745,4.2088279264518285,-1.6209302009783597,-10.1877995564687,-4.450464617632963,5.358409275387813,8.180232845196816,14.38083406026997,21.787220761247905,18.664965582044573,14.835259785130898,16.52633541353392,10.049397386963186,-1.018723844944338,-0.8853165836111461,3.4620698368049103,4.882067229192198,12.035863223629491,17.075693220706572,6.715715786144436,-5.153075913355536,-7.5837237837866205,-12.068178651296005,-17.368368254055625,-13.863824617722834,-12.252139673204278,-15.957645369232141,-8.482608193881084,5.841575095963825,8.921727202238978,7.2365011478165915,9.701766330044405,7.686865673057278,4.8334171863855655,11.6517315753864,16.872679263606152,13.550641584431055,15.160472564077207,19.288633584987725,11.312760354168738,-0.8174497747861444,-6.2840644711940925,-11.066958074185091,-11.434453292488445,-0.4816206328150132,5.5477361316437745,-2.5050565440016666,-8.662576645194793,-9.086178084973472,-11.523740927657514,-8.536893206828136,-0.15813220090475433,-1.233520844843433,-5.815211720434273,-0.014214026810075442,5.752711068363928,3.879351055446739,4.212745383701174,3.4456684296787605,-5.05045429666231,-6.390963276226794,5.009684214140707,11.31062989227658,9.05772217861471,7.064914082024426,-1.763522895246135,-16.550705018031245,-17.95340051607647,-7.744741561418099,-1.8163549685302613,4.918171527546406,14.69579628400718,13.597667224929946,6.898514103613456,8.732634633375348,10.766359137318283,9.64749237870975,20.209322519727465,40.25861350112193,58.911300477847576,86.5423584748599,126.70920713376981,159.86737730872363,181.74098641534383,202.15032467060053,213.24860414637817,210.78548166875822,206.43854980207448,194.10266487860562,162.62955753370377,128.61070763263876,105.1558215254012,82.10523913002662,58.42374789180728,38.245104767797805,10.568544017132847,-23.636831529580768,-48.77960903677949,-70.9620855081718,-101.91558221542921,-129.30613409348635,-146.1828757353944,-163.26531055343818,-177.59964830590528,-182.77220906320252,-190.54449857837187,-200.15521440019944,-193.84746890530363,-178.24541097882408,-172.36444601942787,-172.89433266191747,-175.7801773360087,-186.07282075099937,-190.3199730395154,-174.6109035726394,-154.26462252539596,-143.25903975296873,-136.70258252313906,-138.95541813014475,-153.48091440216228,-159.21920912297887,-145.02084059294248,-126.8506799511895,-110.81806293121794,-95.04907330160205,-92.63531160013295,-102.63635088344745,-102.27959506403302,-90.75864921490574,-82.8187535349743,-72.38071258986642,-55.33431649328983,-44.573129366930765,-36.296855123519684,-19.75886873953384,-8.580941414009182,-10.845561850178314,-11.285867951437027,-7.011008493335383,-4.661368964389071,5.4407250966330825,23.495273016782356,30.095891778600006,26.066661202887786,27.562122983640936,31.443471869589494,34.36078356335313,45.00885536325001,54.5787813313502,50.48366713490741,46.421180648061295,52.23441148399644,57.168135393909694,62.44421675991779,73.89678303927117,77.30702004927424,68.66722768691702,65.26877232681478,67.33024704421142,65.59253687511284,69.70255605689091,79.57780572297031,77.8929144593886,71.06345005513097,74.9520760184601,79.54019036976977,77.84411565271952,80.14376572297462,80.98883716983114,71.32130509532283,65.88129676150814,70.99816229160133,71.64026588505233,69.23763136677243,73.5726584241957,72.85754926666112,61.9813603739789,57.749089135582324,61.71800514603354,63.654825629561955,69.80197298823073,77.13990532563265,66.5508752078533,46.590138644240454,41.31007379769866,46.9199162368581,53.392063161137216,63.4523302662917,65.88028847456994,50.85500017447783,38.527617041200514,41.924895412178095,48.18450642603732,55.356198871480785,67.50957105301204,70.77940820066507,62.15700631278374,58.80550709955874,59.74760269015083,52.140367826275,42.846798788224355,37.018690837066615,26.169325117248654,19.410026649548414,29.58269885530755,40.66030387427408,38.62801077123491,32.12947586061375,21.73597036677767,5.6390157565827455,1.483304313585727,14.756134783538968,26.752248700305863,32.359828137496606,36.03187389603705,27.756348198548228,10.882000143065206,7.844768745517995,17.343602495100022,23.263171965998367,28.22059002041653,30.29069277066131,15.833611719690158,-3.7446271901797594,-7.511776238955518,-2.40713835962416,2.0287448476905316,10.88460399710904,14.804051440937076,1.1951389095836653,-16.05955105523774,-23.21932206265878,-24.811740017694913,-18.421799154523466,-2.005848246551513,6.4968862770293985,-1.4870467405665204,-12.327087119991713,-22.561189368466344,-35.6411917411063,-39.60412248727848,-30.511843341017745,-20.949192858170164,-8.552799278288019,11.323266064968072,18.80625384798419,4.236125973559231,-14.494872419949608,-30.005942436497463,-44.18672631685378,-44.6293851297107,-31.29018055037749,-24.660340181572934,-25.7427638476308,-22.45438618949821,-21.919749561625576,-26.3335773770906,-21.86149951468235,-15.393374895056061,-21.732801072314466,-29.914656834649538,-33.32540902825087,-42.73193070289258,-49.434503019788224,-39.60445697118661,-26.571162582761225,-19.439618594719555,-9.869887311607597,-6.645459923523327,-20.243363453942766,-31.956634275056466,-29.98528020883715,-28.007623256986122,-26.620884214610157,-18.21940441475882,-15.30902451002145,-22.17405850163435,-23.86205509896623,-24.598279974984404,-35.646708078969354,-41.907071149135234,-35.041156313141684,-31.064511803845686,-31.57520741045805,-28.951745718956257,-32.23743794312898,-39.69541266557711,-34.190476590039,-22.201648605199555,-20.572217120312907,-23.257137627141343,-24.874934167822612,-31.710445888529605,-33.685559474217705,-20.27394414429611,-7.1490322310295795,-4.046401292261169,-1.0657850140567595,-2.5688390927629463,-16.451121025702477,-27.090811993907458,-26.25233671804984,-25.711722527521,-22.998526504496947,-11.638517464016548,-7.046597916261636,-15.101390184865103,-20.14623265671158,-22.33711702109545,-30.0188320871376,-32.220748337126935,-25.474069012356942,-24.129622562151788,-25.73413815288966,-20.807935487776383,-20.49676675155632,-27.20574691948613,-24.866728420912114,-18.37283685530134,-20.866995458457414,-21.25778028709446,-14.754379489747006,-14.022866288586417,-13.366665011055069,-3.395070547913775,1.1234824155378085,-4.300500487038439,-2.6343317127032053,4.057391614842711,3.4825554580493163,4.1396237596818555,8.28805696405075,2.1378955092381284,-7.501886452428509,-6.785358130648579,-7.319361039126648,-15.96180874938395,-18.82493839485578,-16.34293136138848,-17.494910430072984,-13.98260108798782,-6.405031762810057,-10.686511749283275,-20.005652181370333,-17.705581261727733,-11.387979017826565,-7.734084175885811,1.7920950846603247,11.263741672963574,11.096460163854967,12.645976587897202,18.440017223723526,13.416439814166976,2.746764788980464,1.219287690198139,1.6155509718020178,-0.48346871915657896,3.6245289359895785.723587716111158,-3.564024252646473,-10.423254804602086,-9.066588979801665,-9.81567412454195,-7.730131728302437,3.6441408947136646,9.393332256021793,4.2394178738644515,2.012817616958829,1.1025982372260494,-5.636902119555846,-5.504833948898138,4.775441597969728,10.161442243300405,14.505967428669571,27.467073726329062,33.64878213719795,25.30508739434523,17.65230139714275,12.719073592543634,6.356991131792055,11.05575722161473,24.66084356341026,25.13688774170073,14.473573238391415,9.092187274354504,4.413563669664526,-1.9069572183953885,1.7579337078250463,7.383730054044322,1.5468892601846043,-2.56908332132227,1.7874371232330932,0.6212490443156318,-1.7516217789234894,6.911494672104626,15.835985585553804,18.601519874282697,23.97107509030164,24.771889900426476,12.982989747860616,5.019085671107907,7.816877212639705,8.35867186276905,9.6345638430952,18.35087237271021,20.3648633406576,12.570951966868076,10.21464186383745,10.315429768420866,4.609067059667626,5.909934230238545,16.003139549147985,16.56525518319549,9.40184722509624,7.191085427679491,2.9186780983155143,-4.077254408988789,0.7263904111269315,11.310720366503192,13.820528371950966,16.11896944854137,20.41846146512155,15.854134087828012,12.03113494649089,21.423072851788948,30.308774012037954,30.375480397740233,30.826039806008232,27.534950227293518,16.24360751347202,12.321150779667635,16.56158304588825,11.667271803681345,2.447345473025484,2.5122560143236123,3.9775080787886896,2.8032376483716686,6.935110017084514,6.6328208919961815,-7.551191547337936,-18.545844853389546,-16.435830179022187,-11.49475095254548,-2.4103012984717465,13.246624922832044,18.199972454768655,8.291122464259264,0.858242333316261,-3.11153042531291,-9.680554359927354,-6.812150987987673,5.682141088118715,9.973374107470773,9.191527200216328,14.046751979222886,13.963091330034917,7.331361113382634,8.975070333747645,13.015718845752687,6.843606832392494,1.0247896522042905,0.7868114698232497,-5.330942667546489,-11.972530362480594,-7.23160135111715,-0.8281149380582128,1.4731332786349807,9.424729904003575,16.017781287943215,8.078898575837966,-3.567290384727108,-9.386659404511578,-14.610207314871717,-10.931105315367624,8.19804018790856,22.32835188150366,20.72603479206228,16.723034400360714,10.606076549756132,-2.186914169229973,-7.004140983468469,-0.34920864599589674,2.8911116822972014,5.8342475573840495,16.095541247906777,18.341603972640712,6.689444226989726,-3.155969998784984,-9.839579946848938,-18.591564937598534,-18.115515812450305,-8.074543236763251,-3.863756309423729,-1.83609457215239,6.664178363269869,9.391908419891884,3.0738328330589546,1.35385498671488,0.519839245418847,-7.21055793665201,-8.148724444798125,1.2734364476990172,5.482000681872334,7.307391188116998,15.489326436853595,16.508180084445215,6.614646685796248,1.2963039159455874,-1.7522580355534794,-10.275177698598885,-11.751215891052562,-4.409298139614986,-4.729841882952947,-10.256541298805887,-10.556976459908581,-13.447008636281797,-18.139258915600987,-11.00577338693752,-0.4451691554088417,-0.2103470610683893,-0.9709632762378315,1.147214020369856,-3.7804701994367855,-8.172954706844731,-2.0624600012397405,1.4078333359219548,-2.1369913476886566,1.1453942715493135,6.094484946341819,1.3084042004937328,-2.10657118086897,-0.7956726172804234,-7.107079784967753,-13.714010916075685,-9.45859649080207,-7.137644057324698,-11.65945580983723,-9.143329307409932,-2.595786904915143,-2.4337506247159117,-0.30871860216343583,4.083257816502299,-3.1320069855318238,-14.917083718685658,-17.676776104597835,-19.334633611218578,-21.931753168630806,-15.191456949502253,-8.090146241549292,-11.216210548109576,-11.895198717460305,-6.443968471174858,-6.672842281721887,-5.753309561581177,4.322588823080212,7.89432159042372,0.3768960334761884,-4.865213329000768,-11.983786863705841,-25.60824575976926,-27.023814035432846,-11.670771818631916,0.7880804271575597,6.592108971182585,11.286258491003538,6.017637055012167,-4.875954023208346,-2.6116671492739343,5.2773812768543085,2.5276014876850263,-1.4271459176296477,-0.7970792430636853,-4.774458109646137,-6.244984630290284,2.5475765846306624,7.075718280703128,3.671379351459634,5.511463144253729,7.225194679229211,-0.18002391279959573,-4.650088650677885,-3.0797530425387536,-6.443065715932853,-7.451227453673301,3.331152523982705,13.202477506229922,15.731228764548458,18.630538986595806,15.491146763885403,0.8579867389195011,-8.26530161069922,-5.184670845938927,-3.2265293761487364,-1.4889195293760185,5.399484287742501,4.462236878480052,-5.429358586473709,-8.048913021776736,-7.459596801467355,-12.916944557397473,-12.473219367426205,-5.411577320647499,-5.851243838207528,-6.513734839696968,1.7295635131358176,5.0118148369025075,0.7822688056216087,2.7982360143777245,5.454123962333034,0.5827937875856022,1.8794885191932813,11.073335508375937,10.667000269576558,2.2166477088864953,-2.811771219110075,-9.287953935066295,-14.250575738404413,-4.230750708997331,8.53634237497295,5.93976161488383,-1.4305345241491128,-4.9609135647781795,-11.040806863395256,-11.899114156987999,-2.0149517081241166,2.5246477184139504,-0.2866041605938052,4.10945616259937,9.159128305549952,5.016242664518906,3.5689353759921643,6.318028777488912,0.47099180901866244,-6.751186519391061,-5.695002552218284,-8.122146406758064,-13.91440689074654,-7.436877329246448,3.7698918992809984,6.494912515684067,9.475404133270061,12.39073842515402,3.784477188787933,-4.1549998098695475,2.247141726376868,10.268459556033216,13.117365969396587,18.857628549475205,19.361004285129287,6.274191012893576,-4.762943191397608,-6.474520552396613,-9.28465950125151,-8.597427799268152,1.4445740845636164,5.434485486665416,-0.512820709501558,-1.4852620092357989,0.3885198858953074,-2.97553264670705,-1.5992260468656934,5.34014986051645,4.879313415286562,4.162843109268801,13.731745441354272,19.644707186246087,15.92686029496571,14.520291037307517,10.475846111059537,-2.928102864658034,-9.354046153635839,-4.226982776624702,-2.714571404460635,-2.533825266150824,3.110013022873063,1.6036551470921412,-7.389383888640063,-7.3810733965703506,-2.761148635101433,-4.094190553710588,-1.5794991287400726,5.495454190460824,4.158172896938399,1.223716980715541,6.125198123960034,7.420034421309527,3.6738722034390223,7.753950429279308,13.442524157122278,10.550692541168667,8.356190462347666,7.752513663317013,-1.9611484203958525,-11.764569389699524,-10.548153497898538,-9.336547977420897,-11.456850728496123,-6.560881411711555,-2.492884228911513,-8.357471172151861,-10.81514975187641,-6.455688931478418,-7.632712386246311,-9.38652065610477,-5.698849493997156,-9.656417782486624,-19.25627124561001,-16.170457851295893,-5.120652424656023,1.2776372869938986,8.58853342977525,13.256295461803909,3.0827628882659077,-8.266976227484905,-5.572150945526324,-1.3452007067257683,-2.0481027998127734,0.3933996409238789,-1.2136068741842705,-11.41732228784458,-13.781829337127322,-6.360010424028013,-4.543521358567123,-4.194327873759368,3.615630408646545,8.098954842253317,7.543043189647636,13.21388942977906,16.945141641627288,9.763022405881397,4.957213961132314,4.024288730433421,-5.874360905980234,-14.536594702889948,-8.79439250518368,-1.3229825750782112,1.608539853227713,7.861533941650881,7.958719745321732,-4.318610557256073,-9.31967215176483,-2.1691169653061193,0.1672365086534534,0.43019936390003793,7.329563281989448,8.861742502095709,3.992978418486917,7.143698187042138,11.147786633820816,5.629766542993877,3.812620468186969,8.00202653292875,3.813103807709503,-2.4574527415242446,-0.15642766865171964,0.4634908659663347,-1.8994911200032456,2.61510075128196553.749771201882294,-6.897265219635876,-13.626571020671074,-11.45247473080875,-10.472674467452391,-4.968432001313296,7.830160411793191,11.198549462208739,5.251502961901231,5.998457702503569,7.805003633642872,2.842573924799663,3.5823508475919668,8.587664137063221,2.7949081112135516,-5.149584312440337,-3.4629184119749388,-3.0076237268489385,-5.602603758533981,-0.24030856377620458,3.3762855364953146,-5.282992551320708,-11.115371309285472,-8.814082995391026,-11.63447282792313,-14.935005072227193,-10.400373975474174,-9.14955129619133,-10.87589418818541,-3.1857444676071367,3.385462801180328,-2.388774586397344,-5.206826256552517,0.8593578916254647,3.32599623557725,5.882659238663271,13.12800981267041,10.309777699052848,-1.037682530541717,-1.9805641364307163,3.5055111009238002,5.170046936892627,12.040324268753405,20.947038214395217,15.191973591200258,2.4599142332019217,-3.130046322909244,-8.21369577286526,-11.827415065199112,-3.489652504542166,4.673938080943119,0.35501958387304855,-3.911642519280627,-5.033434514327292,-13.772316002504187,-20.506889878389096,-13.87821803221334,-5.747157587134821,-1.1893065511740257,7.268680344346718,11.055353928644482,3.959997657751094,2.68433693895024,11.133279229082847,12.902816471636978,8.806570280872585,7.5712127865709835,3.3100891271255595,0.7381151454355825,12.926141239124204,26.943446497508027,26.27902683478881,20.204014703058498,14.721102881112671,4.633564976132369,-0.02745060580993741,7.5368267880533955,11.363768934928913,7.420805149136408,9.143823360189378,11.414394581568994,4.831766311195469,0.6630572074677246,1.9569929945888171,-0.9623015559536436,0.49329970867117146,14.26934322400804,26.52562398409694,36.46376950051999,58.93638904357076,88.68777674611178,116.30959322412488,147.87014757731436,175.36806820394818,181.65998847125317,177.41477361623134,177.7695442954751,173.52816792221782,161.69429049666599,148.20869532026654,120.55331449073086,75.58259037116704,37.68298257153973,13.694203129396332,-12.956489975022317,-42.16710524445257,-67.2794723618547,-93.90504874072508,-115.02180313722765,-118.39190684699379,-120.14701621907932,-137.72988124269477,-157.92935054338017,-169.7693569203459,-177.96263154890073,-175.35700359255165,-160.3862038432032,-153.84775063903464,-158.2052246294159,-155.7083272073074,-149.91033835291128,-149.7353993323668,-144.77470026349462,-135.18254785381367,-132.68392795818966,-127.54258882967862,-111.76592849343658,-103.42850344971399,-106.89034964201973,-104.92540101013684,-97.64308138904636,-91.17025778970901,-77.64044895042667,-64.01240713459084,-67.17647581926609,-76.03616730157462,-73.47972787994792,-66.83956889660635,-59.69209153610758,-44.238522217489084,-29.024306139990628,-22.358373120177937,-13.051483331378321,-1.9570690766016607,-3.235007628680959,-8.785190999493354,-6.776079166943317,-5.856719311742344,-3.511151570849086,12.069242244583407,27.753426280012945,31.130411811431728,32.89776004978126,33.578877754541104,26.167777075584752,25.238429947699952,38.901434829889645,48.62879445130715,48.27687035997759,48.606454524831676,44.490189348397635,33.38949670499092,32.92974951983271,43.47824526532615,48.24577250160007,51.42759015171185,58.12805917410205,53.3731807210543,40.82700521883475,41.771550053664214,51.86396758967523,59.335465323272835,69.54231203535082,74.61959265655125,60.04007067110845,41.47777891778018,37.1030928873646,38.67169751510678,43.95488704474511,60.95013684140001,76.35082165290977,76.49149374208771,72.62129054197509,68.70412907375608,57.09347896599553,50.48387832688411,57.90086836470954,60.796194926964574,54.07349959032076,51.93509393875196,49.75381430728188,43.037468203936626,46.95975108849223,58.25757141118611,58.76219309683731,54.91181337517211,55.32979231240006,48.28744610057328,37.341656066347625,39.34457472318202,44.65355651797572,39.2861620898903,33.860144725898046,31.916561931877403,25.660973817254558,26.460801301623874,40.55759781933193,46.78552001001985,39.09256295071093,34.80556548088763,33.93833148169897,30.553214931772526,34.458082866911134,40.862258256363575,32.75277834063192,18.78308630756289,12.576767540156396,6.819892518397305,4.127186039368862,15.746378002947774,26.88844124546864,22.114788533039345,12.534685690637563,3.2280327608653416,-10.41499217306145,-15.968050199645543,-8.23575884859227,-4.79482518836702,-7.166866255240825,-1.306074142047106,5.994235307464039,5.0615682771233015,4.774025853866679,4.673635921555273,-2.380098289895535,-3.4544301036310863,7.708389513864693,13.24539693928985,9.200593398529623,7.689202290313887,4.460945375986006,-4.943919740555228,-9.225540834390186,-11.618462731651851,-24.44943229032916,-34.944997999001146,-31.224031422945494,-27.466687019534056,-27.34302081449801,-20.24068171700755,-14.847306847343702,-19.50508362215253,-22.60684633870111,-24.431643212543293,-34.22472341144031,-39.16860810647414,-30.08802688355638,-22.413558487313242,-19.683880058868006,-11.025387531140028,-3.9366268825513013,-5.8431107239008195,-5.744314107950341,-5.234165694935321,-13.805145017639804,-17.64557779516827,-8.263512050788721,-4.227993189630941,-10.70191838749333,-15.109846971722163,-21.74503081123596,-33.226794145631736,-33.62193098944456,-25.830686004305676,-27.69110952988617,-31.61874995155551,-27.55166970859976,-28.042087673090954,-32.217884987058525,-25.348677032911525,-16.130160497470502,-15.120449620300464,-11.60143151797983,-7.7641496782609725,-16.707285240649366,-25.7591246456954,-20.98261590377853,-14.686399075296634,-12.004039529642029,-4.734512445411321,-1.183299354930657,-7.658894329242992,-10.572398874370144,-9.92012757608527,-17.938648130481777,-24.292690930995466,-17.405581437440276,-9.629932277465748,-6.778823429419717,-2.8826900678998224,-6.299707365828463,-19.09316546808476,-21.9239480833842,-13.382218174591745,-11.02850622436672,-12.100601876710684,-10.170552016976252,-16.804410286599957,-28.758711111412122,-29.265289562514745,-23.850914359627478,-20.75019236340379,-10.63261613516428,1.0235974715971778,-1.9454874495310954,-9.844103988140533,-10.050866291221707,-12.058600822441491,-15.857423305223111,-10.60045631083986,-5.523412587899943,-7.967188406002817,-4.641095567432075,1.942231719527139,-4.568577255673003,-16.121030382039148,-20.733595878482248,-27.182052580426866,-33.92492903167509,-28.771654083770393,-21.537289947673553,-21.683356261699544,-17.675546199517758,-11.628387858274959,-16.486144435617575,-21.265119164436292,-14.66677437637373,-7.1096577212261245,0.22032194202458277,