-12.325544934887832,-28.00223005339822,-37.821938134368274,-35.45345179902835,-38.20240151825933,-39.59353301636557,-30.0405546191989,-27.227262798117223,-34.325507493129145,-34.116992879637564,-34.31641748473577,-46.356906846248414,-52.32760056582271,-46.193063311234106,-44.348490597680644,-42.06287641623941,-31.344817118377982,-28.96821324218692,-34.75618890063875,-29.41148391226971,-22.890066354883896,-29.63156238359754,-34.01306876788532,-32.4414240666593,-38.66927484234199,-40.488232881615,-27.823831848179594,-22.703739284284307,-29.04305344216334,-26.878754732443326,-23.572447960840503,-30.580518745853148,-30.741430310407857,-23.05514504070733,-26.551536123056348,-31.651901749119972,-24.80021997277215,-22.126118872413905,-26.316036125076273,-20.60107980516883,-14.251451042256193,-19.416540901905694,-19.55832119173119,-12.373550666993253,-15.253767719939816,-18.745185047588837,-11.252688755524833,-11.067685170989105,-20.659846190570978,-21.76387312001476,-21.569295840756133,-28.419436314973087,-25.191519831719546,-14.932102572215154,-19.395913716567605,-28.846089490207387,-27.82253389537874,-28.623750699297865,-30.766485887472058,-18.916136326572907,-6.261887538302941,-7.05877683443264,-6.5842051295115525,-4.242697283209583,-15.284602273396267,-25.75009272052986,-20.401492762612207,-15.838924650391405,-16.729124418080627,-10.181606104750024,-7.486247573345767,-17.269239399919012,-19.417596243503347,-12.324422217821112,-14.347008479491404,-16.686304063507656,-9.46631231214135,-9.993507594356913,-17.587833511152695,-14.507091300924372,-11.157253520268535,-16.458646473507724,-11.98438739002804,0.22705513799456867,0.2706449346990507,-2.8291357707104146,0.6369470808194233,-4.719850854423193,-15.363941206946897,-12.686593446414935,-7.410779506207291,-10.409980761110756,-6.4263655485942675,0.7986612259480879,-8.658888823729288,-22.98649079480963,-26.32937941538425,-29.726476717659672,-30.92808662081363,-16.90604985442713,-4.864212483692022,-8.058315500681578,-7.481167795302513,-0.8308283781242496,-4.522353054535952,-8.562819234322388,-2.985870674734504,-2.961884153691987,-5.285605816395042,5.912544136991787,14.754190480282658,6.732103608518637,-1.129949680096367,-3.9520780381251797,-11.60201968009773,-11.277856112785415,1.8765484081621482,3.4655330779566174,-8.004232517109392,-11.497624322374191,-11.879153166893662,-15.848631432128016,-8.736878177958614,2.3939105908464007,-3.030859477433948,-9.877197668520234,1.407297892759325,19.333392743173523,40.805774823254325,71.25056459059067,86.70100408755951,73.47717929556093,58.991156528432654,55.444177049593776,48.88053680482129,42.91823246361939,38.92515301597176,20.261302923327083,-2.4450062395617422,-4.199532634729101,2.928810761618724,1.8411549991550622,3.1526109779788265,5.197918114311008,-4.2461848475255835,-11.343456090570307,-9.251966857028787,-17.20420034110064,-31.004948899235682,-29.667930195666713,-21.90156157887021,-17.99016350489529,-6.510437799640168,5.393418708409094,0.25785202304329635,-8.887525557370093,-9.646867683814218,-14.480844832555423,-19.4128586446129,-9.193842925510626,2.6564779948505195,4.552960338798787,9.719528669435638,14.410049052113651,4.880599347599229,-3.9699175843134946,-0.9462358122587111,-0.0193870504683481,0.3823838197497413,9.966071585786517,11.636206364391823,-3.1709512073740616,-13.454801541424487,-15.467536978239869,-20.81984829898222,-18.489753899097675,-5.0269964892543575,-1.4011425788558838,-5.4383639097376495,-0.29893837669530177,3.2509189140321024,-1.6075007281028526,1.7073383619758271,9.292176893282026,5.948150170758511,4.608676024239188,12.976640794936344,14.284720743159085,11.610107397177266,18.581267981477,21.151360240581447,12.192965752228655,9.657562313508695,10.696336073003918,1.4469180881742383,-3.472317448102582,2.563357846454825,-0.2791149992235109,-8.748772404798363,-6.859250130638495,-7.7463258370403345,-17.08571300650559,-15.368884759851028,-6.912506791085356,-8.046511290502334,-5.661330310262596,6.23278653513103,8.632311104832489,5.93384140592754,14.335575463307466,18.971771912082588,10.352740594201233,6.5932304531143435,7.13756665046014,0.24128414609185267,0.11397329694408997,10.03018486079569,6.422162327419651,-7.9996070629681375,-12.192986533027081,-13.395996319166198,-17.780199170658282,-10.872566593308683,-0.5348075384713389,-3.199170644761238,-3.548898012349627,6.637186603496497,9.277325382032123,8.161632475568865,18.034983165865103,24.24005691408997,18.559890723982733,17.677854549151863,18.593744293597428,10.363285390046318,9.36628518845109,19.79521603552967,20.1159213531197,13.796997334793707,15.701904584765673,13.118313143826205,3.3393282107979143,5.972064592293284,15.54808504692362,16.701177977076483,20.422220240093203,27.522579221161358,19.466428876262707,6.815570511534204,9.460086953857662,13.799827272531033,11.40279305837013,15.45213894178465,17.271582576085923,4.95300614177016,-2.006546892272783,3.7305761442583862,3.4263391161194847,0.9245093140626506,8.836205357526733,12.286181759260678,7.2712946508797,12.38871005540104,20.523366533446588,15.520924628689295,10.986193590534105,13.232000954989937,6.9453888194177225,-1.1070439076658278,2.987622105147565,3.3236295079496037,-6.9829403389283495,-8.871455084783632,-5.933441069994611,-11.983065339505528,-12.20863706679647,-2.1159115366997394,-0.4663150256221522,-1.349092691869343,7.5144639854794715,9.125477007833547,-0.6900160240672726,-2.0150245428011395,0.46181863092210573,-6.647406562645726,-9.81003936054805,-6.715322406080336,-14.728598999540369,-23.95191575671641,-18.077759420323893,-13.312332967916053,-17.834750434409475,-15.79811384477617,-12.887028153137223,-20.286337318552956,-18.969351520855017,-4.091934432769317,0.5496487308134191,-4.089798562685085,-3.9317173413590485,-9.519622529352336,-20.52310097667722,-18.212523374078785,-12.61867145645442,-19.840164563255723,-23.875998881444048,-18.3139973294254,-18.549131695025324,-18.266300484845768,-7.718695360982477,-3.237510790063304,-6.463798991406724,-0.1571462913590027,4.280927493778936,-7.909504119839639,-16.808180675751036,-13.768290386178503,-15.49900701731405,-15.770921277018017,-4.295319114446491,-0.5981743597183833,-7.981497539343762,-4.83258799120394,1.9615928173927764,-2.66219948739008,-2.9976735089084725,4.652326268119749,1.4690170067117116,-5.331763296304265,-2.0201454937219783,-2.3517589749877255,-6.3451840030393605,4.415142578897775,17.691236394791222,15.62033578173542,12.582460178871207,13.413452358761447,5.345704650135594,1.3275200222255334,13.050323566865012,18.677109772138653,12.108599661812537,12.762171080985384,15.907631690215895,11.728632805729791,16.09197142256098,26.83676372479279,21.40730231212688,9.366342910183711,8.330000439876542,5.379843633388633,-1.6233584299669475,3.168566802226374,7.754285826449458,-1.3878104185548352,-4.894748204209696,1.7142683636841243,-0.5541977646692984,-4.246158882885318,3.0569896659657343,5.810485974916839,2.644517235744226,9.811364385917996,15.372505691378047,5.564282470754358,-1.9622700859082904,-1.564654208535649,-7.089083718590814,-9.213550241648509,0.7584306014860749,3.4321852429766526,-2.854722329994937,0.3309382343946874,3.441994161153144,-5.746506040111037,-10.804800396784318,-9.873150276490042,-17.271273920696956,-19.223116787261652,-4.489909980582455,4.787509021015174,2.543504350580121,5.70078194212427,7.514803835697037,-0.5317618155219761,-1.0046731932564088,5.613852209500319,0.16901836626990407,-7.63120659843347,-5.249255785406692,-7.685179719474804,-14.709948167672449,-9.710718472117183,-3.2250311588692746,-6.599866670567892,-4.45598940302936,2.257688807717451,-3.124388475098236,-8.77272271379679,-3.769071474275832-5.553400035624535,-12.515216565646934,-5.702196841177702,2.4224233420670136,-1.6728642115395806,-1.9193925844134188,0.481100300755956,-10.304171103474108,-18.210905525473155,-10.065753741911053,-5.249346807128444,-6.443243173465515,0.8331920856221995,4.5799373640097,-3.9585608809236397,-5.3537634942592796,1.2168484990365358,-1.5737172667932744,-4.760872196524894,1.1273172339068909,0.5891978923299872,-5.215109460407639,-0.9761096267978489,1.9369890529187193,-5.191813339428146,-4.92379119864847,1.8988984631055468,-0.5960881455049014,-2.2410479972544053,4.385400788131795,3.4183860354031217,-1.188518487135825,6.241210174101386,12.27304390260724,7.145443303331042,7.365701215052292,11.50657164035054,5.6511762209364225,3.082910488473724,11.883098354736683,12.352688847301426,3.172546123077677,0.011418652766925108,-4.192620291104316,-12.386540498371016,-5.715055631832549,10.409583807991778,13.152132227633386,9.120795773323236,7.8183321025467745,-2.2554908747506146,-12.776895671164237,-5.920430046138398,2.5597644816640788,0.013946199400015846,2.5668793178587412,8.05626646192186,1.0682815728388766,-4.672814251593248,0.15182704753303167,-3.0342273333062435,-10.965334298790822,-3.5770019989667317,6.368095652076392,4.4226416698748885,4.738698686187752,5.3235890004239,-7.602567991759313,-15.857488792494681,-6.335076472644981,0.4540465867948694,0.04174746162346343,4.696202788615301,3.0248733630344553,-9.238597496083322,-9.71512830592406,0.5705087534094981,1.6297345714688176,0.27099629241932427,3.021890841486001,-3.987343516148668,-11.500252776026795,0.0814243583683929,14.099727044125071,13.898277105811587,12.481253723623286,9.81038055891768,-3.183910586893309,-9.352479620229474,-1.864025589160136,-1.6680376170077889,-6.832117863142808,-0.5775990099633996,5.602809969216245,3.5680713632576326,7.28172078452285,10.674231656868766,0.713658065177885,-5.519342691435009,0.8667350010929251,1.7476620143271477,-1.1466798063947408,5.02855320237652,5.91009290978158,-4.527556062678933,-6.71960689750296,-3.6741243101157983,-10.465659570228178,-13.227698120813095,-5.0940631774005425,-5.09045125752929,-9.551698017384778,-2.252789320941571,2.735129686473843,-2.073313860263367,2.2396615192318583,10.488688876166009,5.406117386954698,2.020993387931311,8.787245544139967,6.690805001166279,-0.029432871511910097,5.353250021488112,7.605043712531474,-1.908004759625065,-3.2499516411955294,0.5165509006472804,-7.56096883250855,-14.30845020014154,-12.876447474291645,-20.196962637503166,-26.938783787278272,-13.509339007737296,3.4861322631304255,9.49951149747092,15.86022032710262,17.644784714999503,5.917529084324538,1.2504932043857875,11.95317210557145,16.76113343994207,14.3529485314147,18.19285333308466,17.97816557170262,8.548274067316786,6.664065648052855,7.474546204223662,-4.074256918139591,-12.467874663092056,-8.720974111554387,-10.73976197399852,-15.062208494751887,-7.776203598150437,-4.194610051873897,-9.195746368892056,-2.9780705754926413,6.651189532696875,2.024113864616015,-0.502014529479288,7.891031141488742,10.223194332575856,11.150580014341871,21.827484277436326,23.380265192426187,10.128140442715994,5.176829704316524,6.858798796448648,-0.9783385917545919,-6.64848983069281,-4.854128487761336,-11.950719139997016,-19.641403148564866,-11.893696759783001,-5.851541755181705,-11.531182088587174,-12.662122949541327,-12.173414476710866,-19.643947574016284,-17.22802976430205,-1.3654231140335389,4.3446880095016756,1.4834630525346064,4.7386851772356255,3.8760360408333976,-2.6919157893031938,0.809032312134935,4.433936615920747,-5.962543454016998,-11.284070198657258,-1.7115539306569927,4.070756803441598,5.457167308825779,11.681679358144612,9.31515348840884,-0.6058563451061811,5.304945550087446,20.41396941187756,25.72782933302156,33.77121793691061,53.111712323220594,73.16197351886554,103.71457963293145,153.58002282653223,197.34281391670325,220.33757040751274,234.65244743782512,234.36041420233602,210.81252436620653,184.57978141500593,163.68862455905423,132.45872580910256,98.26933135058442,74.61928499792405,46.64953311965472,11.805705360572546,-9.959063665587081,-26.585842994474213,-54.83045669979149,-78.94176388710778,-91.83102846719032,-110.17036746507101,-127.64705081628566,-132.68830520765914,-143.2448155604974,-163.46076636735393,-172.83410245203697,-177.14898685659838,-190.667125550818,-197.07411750556298,-190.05016283404686,-186.4387030636542,-180.11830043818514,-160.31310320240848,-144.38215539563112,-135.92879091238206,-119.23483238424217,-106.84412682630226,-113.17144329272756,-117.94633038668826,-111.90643935490556,-108.75525578275305,-101.86878804029634,-84.74871251705696,-77.680683462597,-81.88820105717905,-75.6957262895075,-65.5716548200047,-65.32864175578678,-59.739439132326844,-44.92825540998416,-38.70331596449897,-34.75146888328385,-21.649704847978498,-15.497223878002067,-18.495768952285317,-12.428816954191714,-5.106610982626704,-8.677500671111515,-6.823369114357311,4.083517489043498,7.923022336147694,12.834978960398743,29.106468424704392,38.174719136106575,35.21409356438915,36.405825727371045,34.252309142368006,20.61046928027897,17.74106997268281,30.540031757352434,36.9340868528407,38.04162964132338,42.87959939916302,39.46925822522439,32.95922637238362,44.46600424747942,61.306321443642375,61.792053980081256,56.19465016072187,50.88536777785327,38.56392806606272,34.94601428975002,50.14538922156177,60.13785065266769,57.69161322655078,60.37171499304161,61.54424890430162,51.512898538154545,47.86002509953311,51.725266670757016,45.663002458953514,41.41401905935456,50.85799181849655,52.54896841369579,42.18902640397698,40.077351012978006,41.20672620790744,36.82929813155097,42.70940382462105,55.31294459644827,52.56333176267082,44.03471089783772,46.06257218380706,45.70419660717513,40.91475511007705,46.60638651054427,50.719380065824936,40.34242133620899,33.92243956294081,35.86546215950475,30.82773341649373,28.73966736410024,38.9577494989557,41.806753291713875,35.30227862707744,37.62414945697529,40.38061921172954,33.2915073083524,32.4033968463752,37.4325539629691,31.504807299326625,25.22769396228002,29.236075568897736,25.70766684938922,14.064938220374344,13.675554998565927,17.62540046162409,15.826188159506515,22.01859543505332,32.88234159860028,30.119670703726648,24.435806893856906,28.447763867328234,27.90038854116534,22.627290770420018,27.33968813361324,30.378637519657424,21.37182624826012,17.7493683700125,20.239992277148893,12.771086049014531,5.8353563919915015,9.141306374300646,6.344310325245437,-0.7411429711628834,4.736964864156471,9.643554936518179,1.6040693527656424,-1.3477727397238177,3.814057097704234,2.6839677768277803,4.267182932200136,13.661371137485705,10.633687193934318,-2.8234138804960374,-5.335370735823471,-4.539510827924335,-11.684018514187578,-12.869761024376682,-10.249795776215283,-19.474836838926063,-26.63575683783451,-20.06051963398301,-17.52696379030891,-19.177048289111127,-9.54521142691767,-2.5826827436159827,-10.310098555840952,-15.148183018279806,-15.78309913629959,-25.456286382062153,-29.95592867044222,-20.19083308844388,-17.13790600943288,-23.107063393386163,-22.608667489878677,-25.33743065215534,-37.11203693913165,-37.72323027804597,-28.438654448214226,-28.597423861263806,-29.89211289034127,-23.65046180961806,-25.557310021002543,-32.51945285945467,-27.549514136169204,-23.212392302534244,-30.50850005105441,-32.77666657848681,-30.21599504217103,-37.10686089974559,-40.58274024041805,-31.688138012565908,-28.350111529934146,-29.554398263375713,-20.39869897312439,-14.067106092864584,-19.751013008434427,-19.83539822221751,-15.928478480525078-23.193407277481636,-27.619955798458236,-19.36378290841092,-16.7475042916192,-18.801823648308524,-10.630256226519085,-5.931162276033267,-13.134453791310758,-13.475743105764352,-9.00296899482746,-15.581933064636601,-20.10851831292978,-13.654602685776222,-13.451793634005298,-17.818222785477303,-12.630181011973834,-10.31283389388228,-17.43882997348463,-15.784723249975961,-8.984818980950621,-15.052476200340529,-22.596716234304544,-21.604611719278275,-26.042591055056413,-30.10518781451007,-17.451274489927766,-4.129722207085481,-3.3388994241293877,-0.5812712707730159,1.587685966427186,-9.25749423737274,-16.081971884853917,-8.600094067788232,-4.525611496140667,-3.1117055352190026,7.680564788556516,13.19028321691803,6.369757657485715,5.409997148121565,7.3641526299408415,-1.7378734021262598,-7.668876137080447,-3.557560986059144,-6.26971364569763,-9.775432967136563,0.667422415751493,7.795634122887409,2.273490981248083,3.094515109494976,7.757519442322479,1.8464244210882566,-0.46688565488165357,6.282657615316043,2.31156792052467,-7.599162081855646,-5.780803193586252,-3.6420270186385775,-7.457047374183729,-0.9801377065085681,8.553873160134682,3.0767910379814367,-4.322785872240841,-4.282280909776556,-9.836070176963913,-13.651283133622076,-2.5877248414720597,5.780380068294227,3.1096618893218038,7.1512959759816885,13.069647702574128,5.576352205581465,-0.14901722261792794,3.8910821694955144,1.1888631575103448,-1.8502940866665576,8.324656281488203,12.586007410680358,2.126325342289438,-2.552039453483207,-2.601991989455213,-10.499395853235402,-11.402216592613453,-1.5278178499068322,-2.171573196603995,-8.285258503074152,-3.0722430812511017,-0.7573669920237023,-7.8665788023691565,-5.291237735990639,3.0349410019866245,1.5592530288824433,2.0785281501898902,8.226309055407182,1.5704182216736178,-10.33826801524545,-8.2852633759155,-4.2561140892852585,-6.018323918966193,1.018806567352688,9.101643135115815,2.846954592129401,-2.2548639345848636,1.6613459821863628,-1.124882054214896,-4.060314858530379,6.549851811584549,12.929766660243029,5.921013468147488,3.3353422715757763,2.7220513960532613,-6.758005099260472,-7.941029372276809,4.176178440794843,7.650908322756315,4.84833094160199,11.114723248360756,14.082870679092336,8.78577923582132,13.024463964461397,19.88570567654469,12.637135659001473,6.0496310921959555,7.343311265640498,0.2597953459093043,-6.922763827305711,1.2099008132386535,8.328382355079484,7.047123981954021,12.651099287724572,17.381392404702886,8.907680456788777,4.651057439516393,9.804941542615078,7.8670819216005174,6.98427698260343,18.889652309930863,25.371107899039252,21.33957537366767,24.21251497105127,26.80180525905899,17.683498131220965,15.211525878103222,22.883681027093523,20.170230396025218,13.85844247428572,18.613913518787434,19.907650854220293,15.370614768898683,22.269766268950203,28.0488288834619,14.983135323033384,2.304257730596408,2.270524074906932,1.0224394950046418,2.779571834941178,15.09766229426818,17.84632673326049,7.216179149613664,5.779606680798779,9.654720851869094,4.385719470914262,3.8087016474313007,11.252093339909477,8.196923203204687,0.8588019843705426,2.54428401313672,0.3220310764894654,-6.019299693107361,1.2576572975007827,10.340757604551351,3.240968336097581,-5.04914811693127,-6.3285381405011085,-12.042911727769946,-12.833250758683768,0.0039908500558496485,5.15039202615854,-2.8460010448164486,-3.8348460742930683,-1.560023913605194,-7.694499242551498,-8.095751913605,-1.639060284943317,-6.2800233775314,-12.167354334052762,-5.002555730724245,-1.081290161260126,-4.599084970782259,0.11245982457064807,4.05968498229082,-3.2364973357686604,-3.931395997830865,3.882800945904943,1.186011413551943,-4.407574234848217,-0.18501275082590052,-0.7301555435377182,-7.110652071970966,-2.25495381891745,3.2181738736473373,-4.765866082591539,-9.597508330345377,-6.7335817909551645,-12.286449668989642,-17.785219767130496,-11.277440915203783,-9.064356481813967,-14.465476626457225,-11.082054862280403,-6.73382190422212,-12.525151434045402,-12.67854235737977,-5.193586336412589,-6.9109671235337045,-9.196209077431241,-0.7517584118297878,2.26293811538293,-2.3162063415934373,0.7889229324205504,1.2668458084506387,-10.898137811343545,-15.12271868243638,-5.115640390234104,2.3044609622138563,10.312452985057444,22.676638450414657,19.64855115640308,3.131254528003348,-2.713783806179431,-2.6764101829937363,-9.145638554621625,-9.768661980418253,-5.629604815543335,-11.994798700015293,-16.648371836361445,-8.247857401165867,-4.697219781841843,-8.319806688964519,-2.6832509275671015,3.109073355581395,-0.6038672218221786,2.8934832371636285,11.745527677632015,6.436319827034449,-2.141584604689697,1.1197438831288027,3.5503204146986356,3.950706240139514,14.154058412742192,19.10629084136015,7.039907225996386,-1.0669344476311213,1.447670684443873,0.48888455705455724,3.9850287587605937,17.976191031258708,21.968195313984783,14.472546309796709,13.514876199924311,11.189031638651159,-0.5833058504518709,-3.9960637344764587,0.7322322890477251,-2.756845765241086,-4.186856429680057,4.250358929868389,3.3713645248755872,-6.829319672824141,-7.706361386395708,-6.7605077674272245,-13.036727653429088,-12.09543460457136,-7.280895215605446,-14.681404602839425,-19.39601168191793,-8.745050659698697,-1.1575228159921171,0.7869438463558083,10.43587652374758,14.730611241982665,4.596213721082673,-0.9383670131579592,-1.3475331934854011,-11.016317224764164,-14.87706553999832,-1.3159889605362034,8.620798860958955,9.450858416544193,14.618816647282317,13.915003483888043,1.3373593589818862,-1.3436005981535513,6.264287937432977,4.036126502778798,-0.27079356849408787,3.416719368735823,0.27173418200562294,-6.8813692470243195,-1.0901855563045197,4.2677057399805935,-3.452457741057316,-7.0544288662979,-4.9322964860329,-11.245084392543777,-13.329403106367856,-2.731535577113674,0.2190181943069004,-4.36116279553757,1.3859051270909388,6.22440088717904,-0.7325554817430171,-2.8123122032211194,0.1915551800342723,-5.362583698004537,-6.0959991469082135,5.145530420668137,5.714371385132996,-5.487858930635108,-8.900120485086337,-10.71481314345383,-16.597768651456672,-10.817706546626304,-0.7900546165604241,-6.312118601000545,-13.138465849652533,-8.10065358400524,-7.327712017712152,-9.747229000705769,-0.19929758255310315,7.575866799594528,3.577621189618136,5.7366026563186825,11.928060194028344,5.417280353581688,0.5545676838841087,8.355464029001787,9.212675566152003,2.9788762997187357,6.71465196146278,8.91975864262703,1.1781360871726072,1.2125047986875528,4.837063506765734,-4.828449144434242,-11.664864805800025,-4.186876522708549,-1.8092630895868569,-5.118325390382948,0.5303465402752741,3.0375511890304425,-3.8049312093530245,-0.878009719000342,6.922131275447543,0.8575182269562909,-4.433327694353885,2.7402101008235613,4.9950545148716925,4.187625710735624,14.310000315282252,18.63615242124124,7.78777672796194,2.9255307952156926,4.230164265119157,-3.0940560179626933,-5.451563277196447,3.725144794459332,3.6217781805443994,-2.8457680132467544,2.572566242437391,7.77615280559591,2.9075633471546634,2.7322082329514057,3.628942721064733,-6.862526843838205,-12.183701102639844,-3.6980371698394077,-1.043052473639087,-3.849892481827604,2.113841847391943,3.846023907078443,-5.38607826030413,-6.006573785627362,-0.6348695229139278,-5.517613763927469,-7.6077323315724055,-0.28537072754135995,-2.848628053695257,-11.075232069329902,-8.37858937392075,-8.264561527252729,-17.23875311799338,-15.584747358605615,-6.069566264193549,-5.015882136184647,-2.416519738291221,4.9025605678128406,-0.6801059981444904,-10.6360632882269,-6.369606829110619,-2.847566156463207-9.700685411289069,-9.396001108033067,-5.598981862249081,-12.55313288232312,-14.199894110108328,-3.80779019030771,-2.6228884734944056,-7.345289315974656,-0.6669481752093844,3.4661007236720054,-3.1931909824850697,-1.672431783233403,4.207086263577472,-1.8982585353378312,-5.498191722620963,1.3641133902761782,0.22387831655927015,-5.205027579169194,0.4205576162351523,3.768782621799539,-1.1660836424808507,2.632194919424515,7.775001793636,-2.5986918092566595,-13.209672554363296,-13.621839592698304,-17.038198312561786,-17.10476812561358,-2.6338336129384023,6.224708049261933,0.40321143541193205,-0.5218376359311612,1.5897968864573433,-5.72766741162642,-7.194210876612601,2.2266954870604208,2.6365668176347232,-0.6266535803779383,8.25000423767606,13.663755435019048,9.060809576807554,13.460731742815229,21.08905539529411,16.82718584213014,15.64627672512443,21.94935975508654,16.125470550672738,4.809349168208829,5.883909329611799,7.625067730584221,4.267844182148165,10.509032958681237,16.47699517168122,5.439767372747742,-5.209014839450392,-3.9705352075222935,-5.275953157900003,-5.271762603639548,5.577189799533822,9.182263937761626,0.4959458903135556,0.04842449631656098,4.565914805405898,0.5012053889623957,0.3593453302420634,6.892893554150788,3.5883047774732364,-0.9775398566500357,7.266296046110783,11.894866485121007,6.3861847577690245,7.83384637202007,10.839564356109127,2.7301243287750596,-0.9986277528326252,3.97368919119619,-0.5004382662186,-6.671296962522075,0.4376676386469742,4.384114121704082,-1.3920242624221335,0.048412611264802674,2.938082780888715,-3.9551604017789903,-3.875178126431967,6.5148175408997595,7.681889182805074,5.475004750018432,12.856449401761644,14.88097412425349,8.590364206009927,11.193453422228039,14.162648655413282,4.800699230150304,0.384331578285974,5.679766204972099,3.420131726962813,0.6346572208925689,8.77655249468646,10.2884629660632,1.0405683499086087,0.06881192927143354,1.8973648768388185,-5.650940300291802,-7.3195237583135855,-0.672752622952089,-4.054717723870085,-8.946740343764224,-1.3416367979226678,2.3383374318078873,-2.905136170634688,-0.719739295336546,2.029144361945675,-4.79380724693874,-4.76077246529651,2.987607513015889,-1.4325336036297092,-10.292738975189657,-7.766186418769481,-5.661620678121998,-6.641867779111298,3.6307980463835805,13.206221610319322,7.149776078776144,2.794434456319803,6.075804026920237,0.463449441526127,-6.429270653012221,-2.829994957500147,-5.004747870240264,-14.352275628563897,-12.12321901621194,-7.185984976934976,-12.50199763475898,-12.166268470167223,-4.2734334524753805,-6.608045183886578,-10.803010545198745,-4.698947621289286,-3.463985204260793,-7.8678545349014914,-0.25747120716982597,8.580165979095371,3.7304711650112776,0.9779629667250291,4.1131010163333395,-1.775486263163208,-4.7046346597919975,7.451221382753512,14.0396053148345,9.704167724569565,11.81512711172312,12.499449359695918,2.3047529388756676,0.42417027855221745,7.410244114906742,2.6418755907161824,-4.052461992693457,1.8313442011336085,4.669014188749266,2.0641524997106027,9.315269477946801,14.103196073542042,3.34981591919555,-3.7731066495296095,-2.2034191449732696,-8.489496293236712,-12.91212457305566,-3.0279026988761517,3.5082500535983985,2.7915153434262407,9.877774757206163,13.982291662671468,3.878993633350351,-1.9559989713102242,-0.07611610809881597,-6.6287136300055725,-11.553487964691854,-3.0179934511390245,2.0081848734430396,0.3693816880464973,6.268219556094126,8.486136061287757,-3.2935535726104535,-9.6116505468713,-7.1731482297478255,-13.658127765973935,-19.970915483109888,-12.984925986540212,-7.51846694501306,-5.767492465206642,4.901865506728243,10.375108543982723,-0.3583212227892716,-7.085395791389633,-5.756518291348845,-11.971402968888036,-15.956665363590695,-7.371525384601182,-2.8847237350775323,-3.3606955731069323,5.648701432727432,10.715348981419439,0.8385137093601296,-3.5308053654262044,1.6250779358954226,-0.2036016811785868,0.3063420118389256,13.272293388641774,21.110550459934903,24.302928355216714,42.71425524526509,67.94666327358229,88.65507849210469,118.21450188209676,151.15088377033223,165.8813080904061,170.56034947602086,175.771191316889,166.35169233096966,143.67277755744544,126.2362502113931,105.30302900923651,70.83902509693647,40.19382020452293,13.827335024773726,-24.033628387262738,-58.53994213633687,-74.77831702003128,-89.5865327161634,-105.93701208588358,-110.39940916146321,-115.98060335367835,-132.90257791746194,-141.25552867477694,-139.6695431102554,-146.90998320734175,-153.31243130869817,-147.8726358348913,-146.61247337825884,-147.45096265645034,-134.58374265094452,-123.21810943226274,-125.8078752801497,-124.15016622181349,-116.78273469894785,-119.25691777313689,-120.0220518275697,-108.94394358585532,-102.85677766257723,-99.51375784553228,-82.45200828338656,-67.2417469510362,-67.45068979039047,-64.7237596412703,-56.52225865645491,-57.062676940794205,-54.65175678790693,-41.87991893493978,-38.030911520129706,-39.90513675448332,-28.182914373976153,-15.345288670498851,-13.494478280278189,-7.578969673481144,-0.0321877732223137,-4.489738943413658,-4.795763797183883,8.842033191801315,16.484672829152693,17.6324470446313,27.4203102006771,34.01213813522957,29.716377465613412,32.74229571465806,40.66711069721416,37.154067833131194,35.532630363392215,45.23229913683801,47.26304813295632,41.732861537369246,44.956706166284434,47.31553195115033,42.905832278311046,49.122313907623585,59.34596848253871,52.953319691732375,43.10167410217807,43.14994588807765,39.29602437819965,35.071448647643464,45.10625784970499,53.68798026771279,51.14955881160036,55.77723241361691,62.986849513379,54.47307294511601,44.57685758948616,44.71726282141128,39.71803504249753,34.17721326010778,43.196005811063785,51.15518652938451,48.418602575642396,52.10174029794221,57.44165559026749,47.91498450636519,38.85902069834064,40.82251904104175,37.4713818298192,32.48178962745851,40.778609196650606,48.658346342198165,48.286303012028895,55.55508186882783,63.265091184102886,52.69201157435141,38.297181000736984,34.72990243825673,31.414214011042777,31.72363939521879,44.98857893429859,51.73802985119115,41.81016602223804,35.07628861249731,33.10371990040726,23.22281981580725,16.738914271897286,19.24715380398864,14.877951080645165,9.096621942916611,16.435683051741048,21.439554851324232,15.097307607074011,14.68033030521094,17.426808797207574,9.63845811795739,5.307549578182385,10.37344316620102,6.904291587790606,1.711879236731272,12.05059379377158,22.064870210110684,20.500291147190705,22.189681786412123,22.843261040480854,10.562420512288421,3.375850848605357,9.301070289966946,8.590158853795142,2.603222975928502,4.0831892833808645,0.1362305313743064,-11.775845766006482,-10.676913245414585,-1.1641523294835152,-0.37647041976434026,2.2068981792777205,9.431874687244322,3.6043034085630823,-5.718492481141352,-0.31496966066037535,4.0016722654939905,-1.0800221635058418,2.5613591976967225,9.167679198594469,2.2281637075313774,-3.32708067526079,-0.22356986631914122,-6.169298820466201,-13.846125995977793,-6.519468238504453,-1.7350437325522632,-10.365688756585012,-14.48637761875968,-15.14791017580725,-24.076861877129083,-27.118929243584788,-20.280599583154732,-23.018100713528312,-29.1675274101691,-21.356388103040857,-12.821217185748399,-12.246589987717957,-7.323201621771897,-5.828361044528695,-18.601317644550733,-26.114140887103957,-20.516536037602314,-19.68488066697958,-19.870883169025255,-10.319707303577227,-7.680526836212994,-15.897688590517934,-16.279633291941618,-15.35350532165675,-25.918550581511344,-30.964766300435816,-25.15833133687141,-26.51678838498286-28.620183107888025,-18.151400528946617,-11.668442441160328,-15.625209044786505,-13.417699051798113,-11.712483086796546,-23.651850419023972,-31.42012487842158,-26.725124118831793,-26.96235855403832,-28.077626787771774,-18.675676534070767,-15.67122460089459,-23.28841806728239,-21.237311181985305,-14.923200706944353,-19.553803196903495,-22.07115540585383,-18.570771078340975,-25.371634843779635,-33.21062626945226,-26.659030881606956,-21.92230753346174,-25.034667720036715,-18.742099744353624,-11.316088356215168,-17.740061146725076,-21.522203994355184,-16.489161158324624,-19.30664555971248,-22.292665818869143,-12.426404126798268,-7.408881863205198,-12.775075769177107,-9.641669685345665,-3.516896354986335,-7.339554549950375,-6.489599776574075,1.2187935353575372,-2.4004836025284275,-8.387847518585776,-1.4443807647146207,3.3670186061212384,0.35892635211634705,3.3991477803874677,2.732911481939355,-11.73812745719573,-17.740350685840873,-8.392813564238438,-3.5379810489363948,0.07866275980182225,11.247229520186067,12.329350882841256,1.9127118894357573,0.8108440213962649,2.5064580422253746,-5.879091788132158,-8.220964370033094,-1.6066339693761047,-5.054939864600933,-11.638864396469483,-8.191415569629509,-9.389687081492632,-16.80462971160087,-12.318383217014393,-5.881436344130366,-12.368662572744373,-15.484659195022418,-10.785454337694311,-14.415806945044586,-16.157854775914284,-2.8975966533468878,6.296580985083122,5.67560757542634,11.949248961132268,16.280584377846683,7.531418702532782,5.368563791849853,13.110281914481108,9.887203065028492,2.1944141654772684,3.9311944257407454,1.3402373829279528,-6.291449351513805,-1.606095495646113,4.320116898032862,-2.4237972073786302,-3.7484998916632417,5.0823282380522,5.436272049651642,2.6188587807914345,7.157544227405001,4.261851686401595,-5.075309651765783,-1.304847789507872,5.902835876428516,1.657971476056713,0.2944886667414617,4.034917985499309,-3.225896472324366,-10.798879679852922,-5.224504419884384,-2.653127536043914,-5.680825652378879,1.778933475873155,8.68198113484528,2.0781782560801894,-0.12838390817377016,5.49706332853901,1.0730763462817197,-4.504263066505768,1.4533168904295848,3.185748259619305,0.03318098618009624,9.147868332027556,17.821281996082053,10.858229201653913,5.076228663383581,5.003663658581965,-3.148715474451816,-7.183079607200729,3.801870013793695,9.161886563690036,5.399563020793369,11.34777654589988,18.71192758794625,15.158378889515758,16.044172212532374,21.16012922986991,12.497916977330902,2.824741860468845,8.028469554706763,10.985226735560657,7.028146293761189,11.989697929983928,16.17576601891738,7.571882630956566,2.496606585267026,3.395669230806016,-4.518096196453188,-9.893530781280464,-1.3971383896762095,2.597314246902152,-1.8245876320295298,1.4756634404735265,5.50195785639995,1.9529690109645172,6.04244673754577,14.417105361772794,8.695443898069048,1.5813572354470233,6.682874412563679,8.195199722024569,4.836840054369434,9.56268234485637,9.197927222928922,-3.1845223478633393,-5.006192730646449,4.77955360034099,5.81591781181859,4.299263273029416,9.016717196908425,5.241223908959483,-2.8590460400008033,4.261383407197082,13.951462902113636,11.331555940097667,12.727061991731219,19.566760972503197,14.65849038605663,9.272133136857832,15.800434138423213,17.14607025815626,12.196080145819046,16.686889620526944,17.740240228627115,3.9854561854208437,-4.343904586317662,-2.6142310785017555,-5.445913688354546,-4.22928608513761,5.8460199987934836,4.0751242549730815,-7.579956495548807,-8.239921386135531,-5.452091593069458,-8.292504410366842,-2.450420132880321,7.02705273491244,2.1986827477848667,-3.881640698546687,0.5634780842432376,0.032145563300027824,-3.251927382712038,6.0396976279381605,12.53082761451155,2.613615186748072,-6.872176824333826,-12.129609675338955,-22.222525672976772,-21.737725186340825,-3.6494069663595026,8.110918335266236,8.127641232716888,10.726266700364064,8.376859032198967,-2.8859852239111388,-4.019813126701701,2.378898959577231,-1.117008832603923,-2.923953443569278,6.070020537720347,8.132783441324541,3.622893435318766,6.993811631468782,6.706355705106212,-3.9035299422758167,-5.902574667748,-0.21743490498838192,-2.8362103873975393,-3.4859257383860887,5.032059638200442,4.845027943911078,-2.4461352173591937,-0.2104519428484588,0.5292280960587246,-8.376257729819974,-8.797393383072308,-2.4055069032287832,-4.9750050757532875,-4.35750894637927,5.7732339430123965,5.6472210055644645,-1.2707071463157367,3.2874604917220025,6.941080993578983,-0.36534287017237466,-2.5977693785860523,-2.3065909329418632,-12.491102498521991,-16.52321001462474,-5.3942058043278545,0.25780121545681023,-0.3411948784821748,7.356154821272105,11.571450310429093,5.872733345089338,8.245037565003974,13.061545132535194,2.302503424910821,-8.002536901266453,-4.958503518466048,-4.660851959209809,-4.6719854289511025,7.384655613331008,12.31615826787834,0.9285809840375032,-3.1015871323034077,1.1929781448820767,-3.0028810796536476,-4.200892795663393,4.217631888678133,3.1770933659597747,-2.560787968676883,5.668681671083967,13.496582656085643,9.015777444637738,8.632509538202612,10.166411361058858,-0.4868458060945917,-7.942220161598864,-3.2349681784588475,-4.1822433971375705,-7.2708535076178356,2.0324301144907495,7.802510888061867,0.5881873073438943,-1.4629039219408964,-0.007951173843289139,-9.118942690228028,-15.055470067970468,-10.139658798689531,-11.619164128580982,-14.236750810833481,-0.7937361921696162,13.403757801034264,15.159410584744522,17.65099109812894,17.36991603436266,2.954119659688588,-7.174446233354232,-3.007752025919695,-3.083279860394403,-6.021402180822178,1.3859654078385226,4.966496440814958,-1.6035544446600016,-0.4961029438166831,3.1201019668366303,-5.146823004889029,-8.999896847759251,-1.1912520200315102,-1.3747094347915316,-6.68695402166169,-3.211237138238,-4.050869625601467,-11.656888879053117,-5.868723120254144,5.677156042069755,3.096117423273645,-2.2484411571684424,-1.9577658659357968,-8.35856307965618,-13.323895522051581,-4.050949638481143,1.2752491151178853,-4.880801019465563,-2.656486111563491,4.689368608423727,1.8037619052613014,1.3781365371922325,8.092649184979235,4.436412122186994,-2.1881953675383454,3.8944039188672,7.056725915165284,0.6133824785150508,3.413408658147837,10.777545466695464,6.51258080846329,2.8589796797378906,5.687718758805151,-1.0765928296147416,-10.466078941497258,-5.749313003528643,0.47291717601326133,0.6145156728595964,8.409251033129385,16.157920734069755,9.328255363434815,3.9597528575535357,8.14264332929633,4.884892677776227,-1.141164830460947,4.155132857567255,6.500976157331616,0.5635037095813953,3.009909268824722,5.2713051218909985,-7.585574284025006,-17.217016570732387,-14.33903581533282,-16.010110052217904,-18.843980011403183,-12.255922278897238,-12.5555012567713,-23.226899106140532,-23.085171279011526,-15.95587176360905,-16.93063979983745,-13.366180827302303,-1.1678047578193955,1.2565777395798499,-0.997844590467678,5.29585593257953,4.467740237928742,-8.116927912973871,-10.995856176559698,-5.70556713193261,-5.685459327070262,0.30809091698408864,12.457374877724895,10.002370145794252,0.9148018623857634,4.285142463705645,7.466753634608369,3.5421732322905735,7.1842409068930095,9.840266550558052,-2.1031398565358836,-10.457569097746164,-6.877100059048019,-7.575795095516545,-7.998832811461532,1.8760865649030105,4.592973109264184,-4.83393768867766,-7.479951552916216,-6.7347261539997305,-13.799834495451025,-14.262555302949139,-5.533026375908242,-6.40859153686413,-10.278921704607809,-2.871599983168717,1.3420301640809464,-1.6396123398435156,4.108227952689279,8.353841192759239,-2.963527734410839-11.037386649287617,-7.740089105181356,-8.863011954881522,-8.488232034632537,2.8717329654266504,6.733808568925674,0.15866420894432132,3.3421763176344568,9.0361221005516,2.256079220812751,-2.1233310398014305,0.5033652229199514,-5.247842344388325,-8.966125561254596,2.9141594218724007,10.565279386980272,5.5392006904154565,4.784612957118846,2.915798966692625,-9.870338538694222,-13.996376410125244,-5.386872439448871,-4.830998574542266,-6.916185950703076,1.2758248208518923,4.683461161988316,0.5439337213364737,5.691068134262281,9.930937097777225,-0.763541239104935,-8.320675545896144,-5.8550917280994135,-8.115758096787513,-6.487669690489394,8.80068645854683,16.935153045898712,11.794464063510556,10.38703823488293,6.466543662999049,-8.188728772828345,-13.34314590332037,-4.9014835629865825,-1.8071671132831049,0.36800114167073983,9.744173700685863,10.636542180185447,4.479372744278979,11.048674593116406,21.002212581409662,17.39089221949824,12.417837739612935,11.43086060180346,2.398425707880712,-3.419033486868121,6.416526341732114,11.855383272962921,5.585407383652799,6.540590482953439,11.104714892032245,7.696078854290913,9.871322948821325,17.61810476887931,11.21184002204496,-0.9090017017100176,-2.0743487666838014,-4.029956266647424,-9.646211255889206,-4.144903724159613,1.671088711195645,-6.121605993790923,-10.570575464663378,-6.740367477981812,-11.02205944407359,-15.685148971159567,-9.23574730124074,-7.135758689786575,-10.672513812670825,-2.7845567155663593,5.3838871509475235,-0.910242520942103,-4.9846331181478005,-2.4556245187319012,-8.528083148395222,-11.995355357731803,-1.5551016903325152,2.8095408738360157,-1.6621120720245401,3.637883364282471,9.111406934743657,3.481714413385384,5.024442305752956,13.221872263962512,7.210273953727789,-2.264546207067514,0.11167289526617008,0.2966035700645342,-1.0707470473397516,11.264851716768247,20.838410668407974,12.404306988641874,5.807673601188281,7.992312740760099,5.832804347643856,8.856408734131495,22.707366674737006,23.626489357124004,8.802744813027449,0.6182203478083433,-2.514982133857478,-6.818792194669861,1.75346461128578,15.356984979345365,9.594959306629644,-4.870686876567197,-9.077375126782325,-11.761054822771893,-11.89226057542475,2.198499860907692,12.945512390076804,6.566935010170965,2.2065514160361857,2.860459214250671,-6.871898278991162,-14.588428653630952,-8.01305313397387,-3.596817798363259,-2.501006048841262,8.1246705798435,12.481798571193114,-0.8071033745755756,-9.751748613216904,-8.197027486801751,-10.120248410392756,-6.895337000801351,6.219661999745719,7.951429081797036,-0.6684587316577479,0.9198031305978795,4.4217519626050565,-0.23898112212082223,1.9873009126038512,6.799610390240108,-3.4163824720106897,-12.832101925624649,-7.416970745360783,-4.636468167330112,-5.620804183617937,2.576624533364854,4.567244227313367,-8.585777403229375,-13.943875137911185,-8.445917764605689,-9.966351682853087,-10.226544769360263,-1.4428726989892056,-2.2463988561146193,-11.347265291836981,-9.687051040185068,-6.679591928209694,-12.255961298188378,-10.60275145296676,-3.9095624126080457,-8.699480421467012,-12.412934424663167,-4.245227758438768,-1.1425804555416865,-3.4639992042522456,2.5376506272677872,4.804080711472211,-2.9333869387557154,-0.5466095321585298,9.228773027926813,6.672086053930492,2.0140491202221122,5.528926246145711,2.3028681980771224,-3.917679730577722,3.079814050051479,9.114632155986946,3.266817056255256,3.3482314405879494,8.692523835806242,3.177183142832443,0.007068879637781245,11.143410459792568,20.234832203090164,28.12853704935597,50.184672896911856,73.35428872159474,89.11156998447414,117.64855573996115,156.54765567061577,182.1671983179607,198.33448072156585,210.9192083427308,204.13290987814645,184.39644097486578,171.1270002385632,150.2049871674045,109.49745198909213,69.45975274282108,36.67105334850034,1.1051914270982675,-25.120505872591696,-36.97041682376856,-55.40963892827187,-78.31714485335077,-88.13045261962444,-98.7254755705436,-122.106257219153,-141.18158508965973,-154.4801697827137,-172.74766134829719,-180.87774863968883,-172.38392104453575,-168.72611144329608,-169.30965724222764,-158.38003681590098,-149.46529727625284,-152.6126508561362,-150.55662129920137,-144.3658297093439,-147.98158695060235,-147.829449614086,-135.91613312663853,-130.31133531915066,-128.2266080655396,-113.25524892980907,-98.89994329912724,-96.14226906905772,-89.17978455294156,-80.17666666868232,-82.52258225448577,-80.61328873231203,-65.79631569156477,-57.92821370288689,-56.36873334860667,-44.902173379623775,-34.28042639141028,-32.31284419260957,-23.314531036257595,-11.827172625716239,-13.709859350407894,-14.836340254665508,-5.207340243919915,-1.665774130239201,-2.2200596589579105,8.14704360334511,17.640441691153313,19.622952480346665,30.766715240152138,45.272331133532155,45.742524446401575,45.683710844509854,54.091464430272794,54.28280734199602,50.62082553677747,57.758994181893456,59.88692844722398,49.328278297427474,45.797961749316734,46.90716190599876,39.0906882375327,38.25237381450761,51.138102807739976,56.504597621324294,55.42779404583516,61.96861355547374,62.14079252792797,50.45604217062156,47.89686916270638,51.96126692949322,46.860458166741694,45.98825741913487,56.102936554400124,57.82528383617672,53.76362607181983,58.867691511191566,60.18281739102706,52.53291629702075,55.10872648534138,62.684111794658605,57.93456100167184,54.014735200548344,57.955110179880506,52.4712263670432,43.74789295041394,47.514309491092924,49.668950151045344,46.06233183449748,55.606247740795,68.65718101611228,64.68740750013384,57.71164446901015,57.54598867314209,50.42686929292381,44.47906212955011,52.70390963611557,54.55363221733354,42.107316558402005,38.10186098851648,40.37234860917651,33.29090587148778,30.211077290363658,34.988731302127064,28.314214360283174,18.367441642672745,23.523012686790647,29.491659935957422,27.617542967383457,32.15164638251074,34.28987057103389,19.324851544322236,7.594762138934253,10.999133455066136,12.072897267277916,12.226062594372566,20.80063621878646,20.370203275243895,6.549028428946296,2.044794581474238,6.171835550483403,3.817036606594528,4.885546072474798,12.437468686884136,8.237051364657917,-1.037074723724404,3.277758359214239,9.919311269570576,10.180498486530684,14.911433329990873,15.064507530200213,-1.4147906511429529,-14.581765631411631,-13.0287088208823,-11.625038798102114,-7.445693886799457,7.791920074872751,14.678441931058066,6.5462732286818,2.7721200983114453,0.4476104600560376,-11.180587286068658,-15.261547299345033,-8.099050752442672,-10.396493398564724,-17.051350311945573,-13.09680458670651,-12.322449632211521,-19.655957090285877,-18.64092130936082,-16.860771889560084,-27.080299206952617,-31.195572579461043,-23.462673063937096,-23.943764699088273,-28.92053884692024,-25.092308183215557,-25.434314235651005,-31.873848738095965,-26.202803769132206,-17.03531131073975,-20.400326408007498,-21.43515900837985,-14.66324995924332,-17.508204199510004,-22.50033979728962,-15.368118136677296,-12.702139229001379,-19.581489310609463,-18.103733653458363,-15.19841915324455,-22.846330032036335,-24.17283948564326,-16.469734866828457,-19.653210970827942,-25.890618740005937,-19.05681328593694,-13.99807309972142,-16.889044749254253,-12.868398972773482,-10.57651980049944,-21.648467352470675,-26.82204719641847,-20.864378449311637,-23.830402589834257,-29.869887707899256,-23.984485984114173,-20.65771235762374,-24.57919841130193,-19.375248617095394,-14.608124188817731,-24.265382803554374,-29.67076265999148,-24.718533319164493,-28.375260765773984,-34.32840085798649,-28.620725510554216,-25.940284285252297,-29.1378174801073-21.230068274802452,-12.650141224304141,-17.956657565902805,-20.449172781498582,-15.448843662037003,-18.43903302565734,-20.07588360910033,-9.472496076222932,-4.936505958145416,-9.890291950619323,-7.342714161281739,-5.797713492320682,-15.710130534628385,-18.44443688941421,-11.036241509000284,-12.190378016413197,-13.99484197715995,-4.3550095083301015,-0.6262694984594893,-6.135735793932835,-3.205129481288516,-0.747251053556125,-11.101739458503843,-14.963380835156261,-6.86549614920921,-5.977552718752588,-6.8556370853564745,0.973569718006944,-0.2698171770858895,-12.117570527868361,-13.110369576806075,-9.26609028161145,-13.605431336391757,-11.664572277823932,-2.6612779147859777,-5.182929425838094,-9.717106577501196,-2.193382194844551,1.781486816518098,-0.700528009689029,5.67011173451235,9.962983680007767,0.5670834763851502,-4.581910111604729,-2.563887222271611,-9.552744688570483,-14.977420168784,-6.14254563100606,0.0951365603267299,0.40391316121965826,10.102237025063909,18.24638235939548,12.733789113587012,10.872843592652547,14.88892616303347,7.71263046430961,-0.9563227489470085,2.279935307155378,3.7910765335805143,2.7385560711011783,13.10356826856202,20.468425570753993,10.530206921857944,1.8966981821031612,0.7569934263362654,-6.481977413231005,-10.22071345025239,-2.2472285939737704,-1.1577679395043607,-6.083497872954715,1.7789890328809972,10.65369492205343,5.913413471298097,2.3983850590158817,2.256720774376671,-7.587008175805435,-13.359094065291298,-2.982927970753215,5.032668227743556,6.500127300128559,14.937798187082446,18.87709613386112,8.320966437319552,2.6715254265705175,5.918756575306569,2.7638555934169338,1.5853847093739204,10.401844313864503,11.61769119685221,5.458800841237082,9.778594964097179,15.316332074844961,11.102060641120229,11.498920598096493,14.392555170067617,4.040690677673163,-4.9562438714090105,1.2654550874550292,5.680128737323081,4.41285212952046,8.679674571724474,5.551197627107812,-11.376652592929492,-18.102973685953575,-10.217732303468797,-5.800128502962232,-0.22917858626558507,11.1096825872086,9.942595985654425,-0.1647922634031338,2.653245653854565,9.559673340800396,7.301040214263863,8.905374060590772,12.707855109609273,2.986331107765311,-6.491523612073799,-1.5373553545261522,2.424378263962105,4.021243762250145,16.79760217589625,25.766871983805324,17.847351843209697,11.32548904494641,10.360008584465021,2.893895887085539,0.5000350216389333,9.00891769257479,7.262449957240374,-4.08537658572431,-5.351361286635237,-4.590334509561931,-10.357759671081109,-5.749449799675855,6.457188659889608,6.800707321743543,5.1833169186476304,11.030140482203707,7.288861630337252,-1.7277434613126825,5.219411716370758,16.189033599737073,15.860400834693259,16.771259775695164,17.16378086814452,4.226192302692326,-5.178109981279118,0.7712546973934837,3.4276864933318105,1.2680908585079886,8.703939728454833,14.109281681313881,7.962132798614513,6.459095710792788,8.952035635598806,1.5954708425029924,-2.5443716028585563,5.28067511732616,6.235582639252323,0.8722148587308234,5.7961044241916015,9.581965935095049,3.0484193875657515,3.3246790510171103,8.518142504199362,2.9152591541059003,-0.5835968990802942,6.878265850248464,6.1295545718219016,-2.292546203071664,-1.2552261468641093,-1.1092026937875017,-9.479741450367602,-7.6439400534266255,1.7848737371585792,-1.4095920453907111,-8.509666056524534,-8.958840390948824,-14.586183451494529,-18.8135526070049,-5.974566651383332,5.940574005667635,2.014641585360251,-0.12991032814944548,2.9304182282280657,-0.3535232122895291,2.0871320884485605,14.244671580391582,14.162946164796747,4.574970136161176,5.184616049167343,5.755615093179909,-2.308426178492936,-1.6761728521782762,5.072224643114398,1.5393236061298987,0.2097984305756453,9.17128075623729,9.426809787896921,2.8405354855440326,6.493692274870946,9.446214504042501,4.3957708877565675,8.215412897691749,16.13745082327892,10.785624020951236,4.201819822169528,5.2398195685611855,-1.0855293738745453,-10.195542146452107,-6.858576926451001,-4.202299267127885,-10.056820588238995,-7.74963293390126,-1.9607082881366127,-9.422813923942586,-16.556312088065294,-13.262900523554093,-15.180405990077336,-18.337340213068806,-7.891578680893521,0.3293909689873713,-3.5811959508032256,-1.6509400496491056,3.887975713382838,-1.4345312435384767,-4.197361758694259,2.5765984198590726,1.414683815509708,-3.6409473036834816,3.1556848847992196,8.686203756644963,4.335005233942629,5.8895336045670135,9.425366399756053,1.67389790176267,-1.798182672935217,5.445747098421903,3.278808559532419,-5.005418554143422,-2.98828045056725,-2.435586568336473,-9.053564428389128,-5.900928722573676,1.3038716836068502,-2.825102645007999,-4.6325770419138905,2.091520214283626,-0.4212765909741232,-6.8359507726851865,-0.25086521007381046,6.794415558891856,5.3677022002719115,8.338929375057726,9.077023803006655,-4.713378214198616,-14.147577272898081,-8.909806705707357,-6.9953432891647624,-7.062794790621687,2.700904360815885,6.491233946336488,-2.0355770653384337,-3.002548776115104,1.1691119444024851,-3.3115935000602303,-3.563807084322177,4.362597436638363,1.8890723549955322,-5.1590428450949215,0.2156593744775459,5.7970536050267985,4.0798152356408615,9.290756554830184,13.732813729701242,2.2393648193541114,-8.289580723624974,-6.949730677792738,-8.221358599360759,-7.4824490125639045,6.238466260240943,13.996338654976284,7.930074794693746,7.598405720008627,9.766816135161575,0.47996916340320084,-5.279341298482262,-0.9087871178087474,-3.6806462191942355,-8.214459702117347,-2.059343289791494,-2.1032504682752573,-12.07746454671662,-10.009598887398369,-1.3850194285253137,-4.047341976727017,-6.2488638435868324,-3.1842471399751435,-9.96705976232073,-16.146583017119966,-5.889793230066463,3.6967628716300096,5.23758044369885,15.563910673125292,25.898425401139292,18.24621009242764,8.060125405928256,6.517134556882636,1.9478433615006474,2.1158423520725504,16.1484286476142,20.372259607319734,6.288055568179228,-2.540023316022555,-4.419921342428496,-10.84797663264618,-9.590830241691418,-0.5153681311884357,-4.940168418130132,-15.491251775509346,-14.534509763871954,-14.886074617766628,-20.37056082142999,-13.694602917783428,-3.8324907394372567,-6.8180905431394585,-7.870986656849503,-1.289356893309051,-2.68790407927596,-3.9572512651393192,7.379948767833417,12.998535112066438,6.135581994967469,4.957802106745044,4.940542302691938,-5.946345183424848,-11.228486415042147,-5.810222159536856,-8.299533697695734,-12.226787780920846,-3.524116155236177,1.0094331292473235,-4.8807016491586825,-3.0014837294694168,1.177027349732972,-5.75425597396955,-8.88086787509554,-4.195148456480643,-9.651502336678945,-17.15549742565288,-11.047877522844061,-6.474190923602923,-9.232438161883268,-3.2079067577171387,3.4722704054237967,-2.7555088225504893,-5.777195975279522,-1.7705730175688232,-8.428318651348187,-16.00038387562246,-8.531686012855802,-1.1275655224919872,1.429044908592054,13.364941426244801,22.23539546291979,13.040937110210962,4.291246041593471,4.386544398285731,-0.8758982735167553,-3.3627706396184585,8.317179599212912,15.228750102439436,10.315456009604699,10.583474072144032,10.696676295713269,-0.4123564401042801,-5.369341790845163,0.0078016345815346,-3.7510229834489097,-10.464713739061596,-5.855302311783927,-2.979817117729958,-3.9024130034230606,6.815875667705103,17.240551234234214,11.966919764759593,7.53127998465867,10.401661790617432,6.653999110109658,5.296433962723403,16.64824591572916,21.42817005450212,15.20991516147133,15.98644471790197,16.389486273858154,5.4443180240945095,1.0218323258762347,5.126803131799896,-1.1312598496699842,-8.532841595686294-4.5362348501659975,-6.231806426881144,-15.042208663838073,-11.497044210500345,-4.156571382610911,-7.250213419604227,-6.868521304684826,-2.8815775543589455,-12.969726355314775,-23.421649395387718,-15.756491902522558,-5.988513972535403,-2.029418566165579,7.042444248673818,9.278389940341247,-4.998797742539634,-13.27857090909095,-9.564886286363588,-11.979796913592788,-13.252508797468629,-2.661872850348217,2.4142918185192186,-0.3111108777132765,4.727346628086805,6.314439298374661,-6.17415302502936,-12.771716209423438,-8.85028567499136,-11.294197829957803,-13.06936790790485,-4.65177083453325,-2.550802819924787,-6.9489352831223385,0.17695530204392274,7.972197699930352,1.7194559450346718,-2.891886692844147,-0.7723778531167247,-5.105395060060726,-6.52716480995924,3.037124801027098,3.800980653673712,-5.356495830895144,-3.275557899437973,3.694433771325633,2.7305315096551985,6.810455383897459,14.711178719580568,8.686999047108438,0.5669157387238055,4.616438832344565,3.7948009604725588,-4.594902567440254,-2.7163452363409535,0.9556930308991284,-4.319426466102501,-1.77689820362944,8.024249884480888,5.07725638476991,-1.6208008613747378,1.3287883832680625,-1.114352014033862,-9.914391871696514,-7.373483777753195,-2.2387739386188508,-4.374538681626484,3.2703851484126,17.288486031353578,14.639475674200948,4.786498736809543,3.5904818522388835,-0.18629376944963139,-4.061621461164545,6.965700701546188,16.223320081072963,8.491149868102754,2.653733723069725,4.131682101860491,-0.5363605803795704,-0.7894477702595493,10.785163945073396,12.757696517351093,3.43334110117301,3.359582581867549,6.74163228138515,3.3479639344408865,6.861032918006899,14.135272276021045,7.687735950033682,0.5568596830479122,5.680579538694442,5.459397328375136,-2.8939450527441966,-3.4083144989188687,-3.2333810543467894,-8.471611022537752,-2.340461989999788,9.941399730270353,6.911519106469617,-0.7075980006963465,0.662205454220181,-1.8976188044033027,-5.843777939006353,3.3692456275047222,11.393772226136686,7.028105421305819,6.29081919885721,6.946807362972802,-6.26258963775525,-17.82652719017664,-14.241603581436035,-11.893269389571133,-12.141175720668468,-1.9448701620499622,5.369287402004419,-0.30174624259662597,-2.163665106058109,-0.6472050201773352,-9.29602880705721,-13.29242689968914,-1.7205969866325246,6.01885495435903,5.428462531359022,8.726706573569455,6.229223982234595,-6.850761208933889,-10.501867784271443,-5.740451843321693,-9.53148670765878,-10.797926901953032,-1.5716476529323118,-0.8640465475394994,-7.292857819549179,-3.141255244219022,1.4672944985326204,-1.5818627632402222,3.121397498972816,9.655673749798828,1.0625555673933378,-6.770508147204687,-0.7009411432382535,3.076892881985845,3.8971976579721135,13.426302025761032,16.646500276753684,6.301575662256567,4.2681671547053295,10.580691963608311,7.794304719176775,5.569340466743112,10.762413523901161,6.789167478695278,-0.8182118122802904,6.105207487886354,13.216596037013812,7.859170150036789,5.726331679006094,5.867153552290494,-4.900212223893192,-11.922213956665999,-6.049963342329359,-5.280116352478092,-7.975267887756915,0.9234487158293723,7.437636472165567,1.4042506348759485,-0.1895196401153203,1.5330133980138405,-6.559312202137625,-10.09837631907643,-1.4147037754183547,0.7340893239457889,-1.9352580335373577,5.077928107998867,8.52317937755545,0.718544095990838,0.32081682163810554,5.788821129226515,1.6853580459160828,0.3193344614423335,8.338408898025211,6.031456630421421,-3.661705381521873,-3.17337536382137,-4.107861225665984,-12.84634183154419,-10.090248013642686,-0.3115816224793133,-2.9451965287636015,-6.516120686417189,-2.584456874694677,-7.676110066384848,-14.394105776973532,-3.785219353394848,7.276769606580183,5.374031045379894,6.361046974894678,6.656096370019972,-7.225219792621854,-15.94077407013008,-7.980471620464629,-3.4784983707766957,-2.865068726743985,6.687382467630643,9.268877221245642,-3.833151487084537,-12.460663241248804,-15.207453668275107,-23.876481381273262,-24.290999433815937,-9.687617338184367,-1.2590064522687339,0.22818594769355882,11.196255356503595,22.81212553548755,29.79569999815435,49.44588770518772,76.28540060331689,93.7984560251295,117.15577303835917,155.25229755201556,187.14718199975678,208.6524974537051,227.1663607634599,226.60266524698557,202.75203035581774,179.55535672939314,160.27283049796205,133.27269633794143,110.8069467188343,97.25894158513833,71.78265764621963,36.436967149119724,9.079695455946357,-18.7668819902291,-50.51360539782671,-67.7515282573513,-77.34008056320255,-98.25694759869171,-118.8897147362897,-132.21378323843697,-152.80861821907303,-171.2198654006516,-170.19054447204041,-167.11040410842503,-174.60780952958257,-178.28328040564668,-180.75210201362276,-190.84942650908215,-190.52843429518276,-175.51642093419787,-168.4704285313511,-167.65078628835423,-157.88765801862883,-150.46166458102314,-150.25668587261828,-141.93783528444885,-132.67079533898132,-135.13047958133836,-131.74401955423622,-116.02180213885848,-108.0566288346086,-105.34877563862304,-94.17894865094226,-87.04465970909064,-86.80449237318793,-75.8060437474586,-63.70416983510047,-67.17128572720344,-68.10863892410153,-56.19603877802679,-47.502316254891475,-38.37028926949359,-19.76433588405699,-10.62225104951905,-15.720911325214626,-13.451433133572193,-6.567536747240062,-8.655165246865886,-5.499189960316265,7.373093231150589,10.725935364209644,9.828775808390123,20.62656293358334,30.491761956197138,34.47756613291737,48.666755005282035,63.13034045202198,59.64437733857062,53.22367296573963,53.80051901770763,48.98856042835538,47.532305622130515,62.00836476434502,72.59780389321197,70.18278427320614,72.27322278871102,74.63455178658002,65.5785382230582,62.05917800549273,69.23576163887526,67.60473536905297,62.808687785309104,70.06538165749075,74.31444442150804,68.9920451938238,70.82956644521994,73.37990421831455,63.65859230217314,59.20359989614782,66.28162470672895,65.21214235709442,60.0348937748292,64.22825873197058,63.39732137316816,54.981004318599666,58.62000019649931,65.98224708543466,60.61892903810731,57.103531574299666,59.71290889949402,51.995243412215146,44.245244832705225,51.67603702567351,57.6976268521186,56.558307962347506,64.03472296093834,70.71790823720477,62.089617348429655,54.047831213018874,52.53127826698246,43.795288047393385,38.85897008730308,50.463763243239704,58.21284829486674,53.51604816583949,52.61203672880772,50.485034506623585,37.73437322587891,31.736936331402653,34.699403039295746,27.391899407539935,19.078401437544382,25.50885248227427,30.65644564398786,28.015091464111634,31.839625712655714,32.6946952655034,18.851547278201245,10.444624565797133,14.393462893932753,12.033698782524471,9.145355594596797,18.132133681826357,21.51228321372082,15.250812760316446,18.583835603850314,23.820744725638473,16.88563474305058,13.418632990758953,16.541422646709588,8.42249290621361,-1.9304383120929778,0.8159700512305066,3.070243136372586,1.775842121701634,11.390348984609641,19.273462057092374,10.306081933519163,1.6689189000223654,0.3296079979256632,-6.274187934263557,-9.08915128545611,0.09384752448865807,1.2188483971961948,-9.155195703107733,-10.770553921368345,-8.679082928177884,-15.661814220097236,-18.603911002661256,-16.836622819547785,-26.058246672918948,-33.54056007803425,-24.7105374725448,-17.59900673262396,-19.333774579340837,-15.825314424673191,-14.869627194721927,-25.93329851107555,-30.318064733388532,-24.379400855707857,-26.31307182258649,-29.139928137417716,-22.06129611465588,-22.051526803480357,-30.494814397887946,-27.815008901517313,-21.6023167996416,-24.787289803487685,-23.42179518412362-17.670998982921525,-24.431427540068412,-31.816973311286585,-25.677331572783096,-22.30144128797337,-25.381693308308257,-20.37972210477464,-17.677425691884338,-28.247440683572854,-34.51684779908636,-32.71037432704849,-37.329432346529835,-38.43915712956112,-25.979797633088097,-19.4438338237336,-23.293164813392885,-20.918140391152622,-20.284838016529104,-30.32594258319294,-32.10349117914359,-23.97991464485561,-24.14601788723987,-24.47987298210551,-16.33262777983002,-17.899943415283918,-27.234475614312103,-23.140185827640718,-15.687696925951656,-19.35011966526265,-20.509045498432176,-19.894823652348823,-32.80544104451355,-43.823101487089545,-37.38413725716375,-30.849683249624572,-27.946053108356637,-13.878080967463696,-1.4314706677262834,-4.032000795336153,-4.590896031180187,-1.1449333620096835,-10.332363199520188,-20.57856151906176,-17.91703548902864,-17.512996436727718,-20.84768728565406,-13.157707547609986,-6.761962561576215,-13.21226722386708,-14.705527049528857,-9.456888584973557,-13.531158038358452,-16.608440715811778,-9.121700132156805,-8.730191809801173,-15.285373593624747,-11.846407675513557,-8.742283560686584,-15.246077490379452,-13.899004300597987,-5.842433246870208,-8.434385091809073,-10.22421715424243,-1.1182717886463127,0.3466497305249665,-6.509437170808877,-5.180564962318802,-5.381725818309269,-14.342263705328957,-13.345140111086646,-4.6258273083610355,-8.011043017034067,-13.826383026472948,-10.827403529142362,-13.517221461863986,-18.991859546177537,-11.33120892070745,-5.015601617338413,-11.34873742630621,-11.186695150139219,-3.7192045887039127,-5.797482272268846,-6.49431901042181,3.147335037532154,4.903286519284142,0.21582124477456066,5.767020704908372,8.729654716130876,-0.5607127662138724,-2.340313063688147,4.2215145867502475,1.7970716303308327,-0.5588318499908298,4.727302391265597,0.3261034578715427,-10.443665186779583,-8.677347662536716,-5.235095935094575,-10.163778256367824,-6.575162998106952,3.273637252836178,0.8311063033876276,-3.141527303198848,2.720081990597257,3.8903525088259414,2.7283265576294378,13.230490576207535,19.262606196765265,10.229434630325612,7.492526254875796,14.006715303494238,13.555580225479712,14.142817274995558,20.89876057343258,16.22988312031307,5.697449343852224,8.647188722014045,12.065839780746428,4.598677500401511,3.584764824942692,8.471276690876097,3.513607064941327,0.7324153589323018,9.095280099062428,11.047163693341302,8.663234256842447,16.75062939152249,19.97161500765818,9.21128503481312,5.979087773979046,11.841329059803586,10.176567458892748,9.556167763733741,14.905792916875052,8.484218334355726,-2.6573991142270095,2.072888800630083,9.081171332186862,5.422582820725486,6.37967777978768,9.674629590827132,0.26679504300452095,-6.780775547867717,-1.1389703816647767,-1.5778917255735414,-5.972468860064904,2.633085537080786,9.907664634677497,4.87324368325966,5.028531380117538,8.514320119076023,0.49410570960599287,-4.075646993729444,4.134692022494738,5.6904001931028505,1.6047605505823408,8.030879078886962,12.411841018496212,5.862212512638319,5.629361342283062,8.250472471042624,-1.922375047513249,-8.725676437102871,-1.2842921972278227,1.3786281600675236,0.5827873169089564,11.813981954564504,20.777764540991683,17.73413475797352,18.910271753916746,20.225944271085257,7.984384411128897,0.47763483992029254,8.69724537578203,11.47388327819601,5.98071860201091,5.572744664624242,-0.34813504786101435,-13.784349646354027,-12.369655845075245,-0.25418492546428606,2.8275790444708293,6.167690441741836,14.420578836305593,9.882619789331644,0.6968733797255955,7.530940714274541,17.136788338134217,17.723315720429913,22.756611608025256,26.47667650384204,15.264615061198182,7.931060639040201,14.334142235684192,13.50974489681816,6.406676916376337,8.909191822971874,8.683085029240418,-0.5449380916304292,-0.6494975963513339,3.923140196962455,-2.2868709399951532,-6.084349171893692,-0.8471406469576537,-3.2631721514659557,-8.143505794347968,-0.01246029482147648,7.888643113337341,7.755738351499742,13.99337972374098,19.10306256538426,8.072151136784072,-2.183870217545697,-0.9237698387644131,-2.315825289778905,-1.2483579535328533,12.948025712155511,20.28244889611124,11.54987738943614,6.458177601937421,4.814278468178982,-4.155093726816278,-5.3684707303603885,5.262230102124656,7.11830657732159,3.5636190720408125,8.629959359039136,7.79103377926895,-3.7541280103959824,-5.0590091574497755,0.9279949364976559,-1.0121243233272361,0.9170965746062443,8.903876942318437,3.273441652499791,-7.300903562848145,-3.2906894373316105,1.617033850532673,-0.8123945170438189,4.823211200889297,10.788759884562781,1.5520166852361292,-6.3712342126611965,-3.8908010107285302,-6.764011630825086,-9.387331152596618,1.3776621899989054,7.927289146690146,1.2499142320651582,-0.5329305173750715,0.8129075909146585,-6.549558087894015,-8.603938182071195,-1.4456210743327378,-3.9487489334595116,-10.656018776759366,-5.841879223192302,-2.1699670705586867,-5.700054855618424,-1.7353258607576598,1.7504833189321085,-9.190237453228711,-17.497512540905102,-14.640278783497738,-16.52271651808417,-17.954696794552586,-7.053603892262649,-0.9706073054620021,-4.962517564640248,0.4094404749980596,8.112326915951233,1.7308657599256634,-3.2734595913956754,0.303306324834109,-3.7912166695637914,-8.86383548622037,-1.8564021999030764,0.4326526880478308,-7.787996185623266,-7.55814987222519,-3.8252104967310054,-10.70205861525488,-13.72260219310104,-8.22068039674921,-11.832146820071527,-18.21554193552779,-13.621559235692569,-11.723733894801011,-15.47446886362685,-8.385603623148373,-0.41877387890933093,-7.019655456643414,-11.820502276689906,-8.056582387713618,-11.145347978372053,-12.780270282023313,-0.7539022816430752,6.327970085809632,2.9562835999940695,7.880172793090283,14.685309318656076,9.35102927465396,7.09279332945038,11.98020747997448,6.364919197056745,-0.5907461337055171,7.104035858237184,13.264884790179643,10.25537614133598,12.477297055693235,11.830800203954334,-2.5550256059746497,-10.450176932650955,-5.173216937170308,-5.033516376472075,-4.6668040444369385,6.311546296538953,9.809482569763023,2.8501026026507663,5.2310228206022815,9.12903595909558,0.2534294018034613,-4.607187731491707,-0.1776621568477199,-3.2489025414340973,-5.185929088479353,5.894188785886856,9.793527291349243,1.1162507998585443,0.40857093120514953,2.8830858867292304,-3.1035007340590104,-1.0069607835560135,10.445480158318855,9.268389371989926,2.4141513948979623,6.222050975895966,7.388088041280374,3.0441705047105505,9.374123850422302,14.080887355681618,2.0387847215615658,-5.6882902641723305,0.4745622775195337,2.712544735639466,3.7998236181463287,11.38971640885713,8.719745507321022,-2.1973437094398176,1.8077495260018184,11.893154470754004,9.55377311715744,6.767096059781059,7.342746457820826,-2.1791817184097013,-9.430035510313244,-1.1143054974360003,3.5757817391735736,-1.4633716877992722,1.0704719876449384,4.521985624816842,-2.368055166441086,-2.514823247300529,5.943875430095705,2.5805879017258877,-5.100410428866419,-2.698068342124727,-3.336164414880997,-7.745746686754186,-0.5012322087460452,5.95099539763851,-2.4378357992601956,-8.797975516433235,-8.660866583025275,-16.37387362696611,-21.176334036023363,-12.07977802880313,-7.945521446277409,-12.08706203417723,-7.442002117736097,-3.3892883793354116,-11.215867328932664,-12.61535909720725,-5.2544135813521144,-7.693898325135011,-10.718630017391003,-1.7199544488716327,2.3283927426127984,-1.050225359281911,4.800810287847251,9.2411933105084,-0.02712445438139177,-4.89962577505848,-1.5215135982881152,-5.712446717800232,-8.382953298997178,-0.3943435795860446,-0.1490351512447996,-7.550456500798811,-2.79525769724717144.678580622719532,1.2316912553681685,1.2749248249996892,5.304918561962619,-2.4796476894893362,-9.972124211763925,-4.933344332430243,-5.374642914252005,-12.682323423268913,-7.687344486225506,0.08378899609655432,-3.0592577410786417,-2.6194019528213164,1.3195831754567904,-7.171715226556506,-14.643853003879318,-7.715366683845623,-4.687427802558203,-8.719593877766167,-2.7608390735046338,3.6587585776507416,-1.0929410620635962,-0.439825622362674,5.89853459464355,-0.2808369604426102,-7.707071467718154,-2.12370009254231,0.07768854267061331,-4.031870733118337,1.7159362273196703,7.281237130370773,1.3235110777368155,0.940063112251186,6.685235753031918,0.11317422579404024,-8.78199946143199,-6.270586863401631,-5.897295691603118,-7.604522084769862,2.7675823501637686,10.640504126418731,2.6869539627543952,-2.7900244537466516,-1.08738800764609,-5.762472604374514,-6.803206008922162,3.3908058447183103,5.1303776499892475,-1.814918734989285,1.062052624807159,4.03656302642791,-3.675290707903616,-5.735393378871523,-1.8319895526500374,-6.951019619311216,-9.357476774521233,-0.2635084073435392,1.1350355378985153,-5.019262904898728,-0.8171080976231839,3.6387223005754237,-1.3476509762278703,0.9929140507936252,8.492210088291852,3.5501785742582044,-1.9756938930929744,1.8061257349725959,-1.9105714774523754,-8.702290719859867,0.8379439670132403,13.21083072239379,13.127712577625566,12.4881164830077,9.642488651766733,-5.6265609475469915,-13.889841259585715,-3.6786139804900873,2.3332094180749285,-2.027958857382249,-2.8165218168780117,-6.797842746908975,-16.34638431056327,-11.266499013114903,3.94139469986984,6.533513956152518,4.382150417356344,7.829113966525433,2.7867092392458646,-5.778801925006935,0.7764388784050795,10.073271905851641,9.415999256315413,12.270337419988463,15.739924107216247,5.0161243420276325,-4.479364176678798,0.8003151737985053,4.507201344730679,4.360387533967094,12.109955459046322,14.799672423852668,5.269397705156882,3.699497094685424,10.245865037636465,7.511584576230735,4.0361778695644235,7.674308407955813,3.866873283551208,-2.245269953413972,6.361785046838921,15.566826030090807,11.70530894864892,9.348450468790315,9.741114691625905,1.3067627267450193,-2.5178057663636344,5.835943080327979,5.691159208121444,-3.242355630293921,-2.813735100209305,-1.8804305292257848,-8.632112794620523,-6.857223909815955,-0.10275548332835349,-5.21512121398513,-9.739568778225124,-4.8524309917572195,-8.035881568784287,-16.025048809756495,-10.518498081141189,-3.0073463447387443,-4.705568947690533,-1.5900268859133524,2.7517845622798385,-5.801376387047219,-10.948913449287058,-2.8173122279565233,-1.4018866028775354,-6.273663719547861,-1.621300659483028,0.6554523490312467,-6.247797397866357,-3.2432403832849683,6.598052763947822,5.522965523283427,5.636043948790976,15.329319491588013,15.538952784209684,8.328964148079175,11.273151527479403,12.624135732114665,4.101900531682791,4.451133756571632,11.440300444078462,6.979384416860463,1.1407296285535797,1.7837382348278712,-6.773469836132839,-18.073216278893135,-12.841214661335584,-4.696123215092924,-6.297549483151552,-3.2680321798081122,0.9601188998429901,-7.824190533179037,-12.953089494094646,-3.4851844175275373,0.8361453362529498,-1.152111018291168,5.461957954200683,8.797225878039105,1.9219526934315172,4.646516153294729,14.131617935187167,11.330636115367302,6.981286769785427,10.045163807509317,5.7402219462117925,0.2905294821837945,9.497994850853592,17.101632457085646,12.23491229484521,11.377133655163162,12.823548214087845,5.1416353251609275,3.4934067273427356,13.192453657082227,14.336497729937019,10.29819550936568,16.229818830376246,19.043057052302427,14.05705776013681,22.54298354575524,42.64090539944295,59.808355775629714,87.87011789043231,130.83940003523855,165.24401742154998,191.74697441946176,221.74312557455173,235.38284148327165,224.5370553440109,211.802912081165,196.5311511762964,164.55802653934705,131.05269151062737,104.86197462572463,71.26922684980734,38.85890028444214,23.938484634245107,8.351460459282814,-19.262519579673118,-41.382527952245624,-60.896623963946695,-91.15439962430308,-116.0494036040085,-128.5606459338099,-147.40443333076377,-167.60376660084725,-173.76249798060263,-180.1213351774879,-191.97485279473386,-190.1280390622543,-181.3138614226917,-184.34194658637162,-186.396382060089,-179.94225435887557,-180.79654759512226,-181.36311163259816,-167.19179783698192,-157.20203224024328,-159.8093743276819,-154.62411810361294,-144.53519918635965,-143.47273362908393,-136.8806089957921,-121.32668258359429,-117.80358281459279,-120.03987730854273,-109.66863124198093,-98.84579388741338,-93.7579356395067,-78.72278223925038,-63.01204501420344,-64.64794876460091,-67.53886169089431,-60.4021361890848,-57.315507737317,-52.51440333929094,-34.06725558382415,-20.559153368543225,-19.703164893773177,-12.377124747044718,-2.587066744272592,-5.184883626998917,-6.277766812131494,0.3426422391482409,-0.9151267375418648,-1.6448654304260868,12.209240528401986,22.514413870891154,21.665096956889506,27.754172413905426,35.70474773688815,31.691762022642422,31.07740255513533,40.26049753543502,42.40788145428423,43.532921842197894,56.11868970227377,61.738623844033256,53.53852649072809,53.23321897471254,59.657140287509435,57.856630042904605,57.977113150210286,62.344699876856644,54.7295002520499,46.33527136213052,55.408759978583774,65.08503692927172,64.66800141032228,68.78865798314568,71.69852381816763,61.7956258223485,56.47970786733059,61.54276457083817,60.016197293283724,59.61438783349842,73.11648214361756,80.996920854269,74.66362168320478,71.6877287888914,68.48645104004551,55.64065560651564,51.10398730655304,58.25610082638656,56.87779028971191,53.03112137612854,60.404747404858824,62.93398906007272,55.95326462776648,58.35027589075444,64.11203011841486,59.06769241397649,57.114511422515235,60.30578481474088,49.84552988900154,36.368049659509154,39.245725578902515,44.43074083265789,44.38905351641003,51.74167736456566,54.900888541305875,41.18286775516515,32.033361829074735,35.6186211406055,33.79517548347681,31.79466994069255,40.94746104827163,44.07197514233994,37.602234828544695,40.61972879436111,45.0086860622952,35.507168340672074,28.193647720833162,29.022964904818398,22.410257409340502,17.579565711434988,26.852752267264812,31.278820365976763,25.023307075148118,25.535965346976063,26.974067555660056,18.67632382016309,16.06575392269203,20.3509859434099,13.564885993322235,4.446469334925584,6.414210544698952,4.830158143934327,-2.3246972161043034,1.4548767158404319,5.973376724670374,-2.436786128520734,-7.480633201586605,-4.629348416981527,-8.193465411253914,-8.32603438485566,3.9769034992163173,7.527593553884638,-1.2804170235151835,-2.011044612988931,0.17384027504674304,-5.947061586220192,-6.689854240091581,-3.6290759662853453,-14.29014376970788,-24.81329663688849,-18.174539183922672,-11.024998442080072,-10.871531623096653,-6.729574075547651,-9.73088836813415,-28.402284786093514,-39.97831078205899,-36.99866168439832,-36.278335259599366,-32.36995975075136,-16.152118387574244,-6.1228136309999215,-7.027949272050303,-2.681029871983868,-1.6105181214339161,-14.124779062815044,-20.288091745834198,-16.036903533819142,-20.028125255077434,-25.452451649352618,-22.037689162549224,-24.987399253133237,-32.48836599780715,-26.245240294806237,-17.858775165649188,-22.15111268024267,-24.71288810696963,-23.079794541462938,-30.703916885333083,-34.90742518138421,-24.871599738714636,-20.353534663291644,-24.237807468369745,-19.36790607013776,-15.075659117340514,-21.906579738988544,-23.16248463860426,-18.885831924171583,-26.214886905639837,-33.66945287388032,-28.768961227426825-27.857145177302478,-31.80706540284379,-24.940640455374158,-19.663976077766083,-27.904185640082915,-31.510739460356884,-27.227483562351722,-29.940617884436577,-30.296457462533063,-20.926679091611604,-21.516597546474756,-32.048651285055094,-32.008080398438395,-28.26381562405136,-31.17502202161856,-25.759377854947807,-14.44400771912664,-16.85436158161626,-22.720157002559137,-18.514406801374996,-18.941793539045683,-24.341330044275356,-18.073938434003942,-10.691788907621078,-14.238679750157868,-12.623531484509684,-5.145054194619763,-9.163819969917485,-14.228714691697155,-7.663142541043547,-5.499933763982595,-10.014757907434927,-6.606643903954205,-6.093600774924211,-18.271462922458895,-23.976338323246807,-20.039947174202407,-23.730627717400854,-27.408430782151406,-20.694869394240442,-19.51558176911768,-24.072642687599533,-16.41709750411198,-6.791198481814849,-9.003325724399918,-8.354259545803323,-3.185581267801535,-8.362103105584954,-12.153949529455659,-3.5065248392991126,-1.0758496147135816,-6.422797394198918,-1.241369204867476,5.062523811310877,1.0651371776496914,2.036841816211996,5.804658828637038,-4.465352501328109,-13.986729509196541,-8.389379231271965,-5.046033718348893,-6.701260320186952,1.229833043282183,6.896837485033256,0.16865488846513133,-0.344279823897611,5.876963189443165,1.543267653298722,-1.7470027106921835,7.410228155643027,10.70083638944166,6.624688034796708,11.76872026254513,15.672754737979073,8.504570388032542,6.964949221473928,8.961206236020255,-2.4265823751200237,-13.237001885610656,-10.046747702623097,-8.756519054908805,-10.074622296470794,-0.4737500074362839,6.499486079399791,0.40809653489531916,-1.913118875045261,-0.6442563561449945,-8.753909749533282,-11.222621499583706,1.7108678213787067,9.807637533823437,10.180541795355868,16.746274396505992,19.379255914347905,12.57714148223518,15.177775125246992,23.025996763989223,16.453504753556707,7.739222229013569,9.3745356456882,5.98201416462568,-0.6794269663496508,4.855663932411211,8.826224200155762,1.621861433413458,2.5134814795374067,9.878093911898675,4.8122734220879995,-1.403346203020755,2.455525185440456,0.5752442404636744,-4.274764985057612,4.541034837336641,12.655860578879576,8.324525580267888,8.858981543168202,13.283970728100329,6.174110849805448,1.0263163691345625,7.753229358021018,7.920312465487291,1.9380472631034833,5.453794500857971,6.466790687621699,-2.2352958364279685,-0.44949928537556527,10.417644795589336,12.098428315787853,13.450785278462556,20.094818042221135,14.333876551755452,2.301874139287095,4.625637676341238,9.485643824507168,5.284630403559687,6.691857759271721,10.63692955793341,3.393136793277719,0.7817301349411712,11.034065592295528,12.94009894748083,7.314243669632049,11.640755099787272,15.219414393459369,10.282511584268557,12.62784489392605,16.072283793230977,3.37327666591598,-9.341302334825276,-7.96566641946278,-6.598548068003843,-3.7835454705072347,10.914847890343571,18.188133121176357,7.303267323443704,-0.22147085544710254,-0.7928984029586226,-6.604408249623429,-6.040402742655264,5.13418245654305,7.091905161883458,3.533051282431834,11.30787872755047,16.775886622356023,9.945428309470842,7.6997185282122205,8.279017556973475,-1.8365188930335865,-7.445217055105206,-0.3246512544837912,-0.002727604197621858,-4.187270201298702,3.1102984608994735,8.520523233500953,4.576448145725739,9.736438574537832,19.01560613791588,14.038074844437972,8.077847562662665,10.819636277760132,6.131482739009,-0.38059328653314495,7.656729944523255,13.73429234369391,7.1178472886487585,6.040630016024164,8.614457451845457,0.7413990975453304,-2.4617460820782835,6.868319486330189,9.267193389149329,6.671748948453567,13.261458120567895,14.764572725302298,4.830761511930558,3.7398243391300827,9.645096370518273,7.59837370134745,8.918424433039341,16.696472747595795,11.999706187670787,1.803398089694627,4.501332929984941,7.801837927680082,3.9628064181466485,7.746840003549193,11.655524138472572,0.19142489795540563,-9.361584025702596,-5.672414101070858,-4.149440565279952,-1.9224018360222286,10.88996168863484,15.567729546080223,5.449292944103222,2.530852141949418,5.782138926333027,0.6537576990771572,-0.4816053478273313,6.581451357679145,4.274746244665758,-0.02673031990734831,8.157697379457197,12.272510178387641,5.869690318125334,7.39714008386642,11.961457817260658,3.9918763638709605,-4.25744722718259,-6.656256506726313,-16.769796384914116,-24.49082296314503,-14.35563423415491,-4.236956015772288,-4.573611662589593,-0.4100418110373951,3.501403302589842,-4.041304916479139,-6.659547333403504,0.3274348530666802,-1.3025427292025995,-4.980322266094879,2.9242710656345494,6.0848298459228936,-0.40928556944388816,2.1423977965956515,6.2051958824338,-4.391472468977933,-13.02813902008269,-10.679490030161155,-14.354885365361241,-18.978266081144106,-10.948810452310166,-7.545508473002028,-14.947770360845254,-11.17206266364698,-0.24190865332885547,-0.7247247169845843,-1.366477024173043,3.3356310253697643,-2.425677507219474,-9.769221757577432,-3.4973210821408003,0.09784404765155161,-5.225002573134319,-2.453599798083725,1.34084629599748,-7.546278496708702,-12.696445090127654,-7.718792300699469,-9.22799069179421,-10.788271283496865,-0.7067841918399242,2.4926561185238487,-6.8486265154350425,-8.560949069786304,-6.395188071788452,-12.51432715825861,-11.718073114291798,-1.3493101619716836,-1.2492176314883374,-5.257212590324916,0.9594656400514965,3.0938065918661426,-2.9030875551875854,0.5355424745445552,7.333070444697384,3.9712354602631454,3.152350983967249,6.945321726703503,-1.4020004017763106,-11.353366605941742,-5.617775306916032,-0.287625418596008,-5.000103746747269,-5.584445048288185,-6.521245503699901,-15.64492941816019,-14.589896551498633,-2.3805304560300264,-2.852892950278174,-11.151129974566002,-10.507094805655266,-11.639386693161816,-15.967520952131796,-6.814667502107348,4.72563688077711,2.144035542151525,0.19335359712546596,3.0293029838188508,-4.825981067668793,-12.064955419291687,-4.489991468681043,-0.2609004235207247,-4.534117693580622,0.3730056567606921,6.484490449481031,-0.14799006930795722,-4.62905041062171,-3.719091639402871,-13.533880020627395,-22.603243354015508,-15.20766566635816,-8.477004496920385,-8.771401692675646,-0.9804777894963599,4.877535552908997,-4.367332149026611,-10.779245845400633,-8.28825092217817,-11.58656157989325,-12.14733134783257,-0.7051088060879014,2.8325804219713495,-5.223816582573498,-4.78407636844824,-0.712396560514599,-5.098955818636444,-4.5984534773606125,1.3752567076564106,-4.032112749590334,-9.428162466975193,-0.01792933526333851,6.094076987133154,1.7829388268790745,2.661412363290645,2.286345137672372,-8.3151687407663,-10.643036542796626,-1.9908197286287344,-1.0693050876008816,-0.20987277796063702,11.63431346088816,15.902926360603821,9.043456865518976,9.032018871729045,8.877809756487293,-0.6812107166926271,-2.264535907712996,4.715539929614738,2.0265058129453744,-0.6479097775896451,9.15284127427178,13.574918509420074,7.878033302488224,8.436076725716108,7.74415275909387,-3.911419766176977,-7.915722822150198,-1.5887828978047684,-4.040868793253125,-7.589273533480888,0.6008602903010036,5.096229647418639,3.238560907390789,10.93735299299853,18.087267525773655,11.911731519690871,8.727520159279926,11.624560497253224,4.427718569488862,-2.9997290195558755,1.9699477258955405,3.130133722413257,-1.5949068654557408,4.000292879698752,9.263722358811952,2.449735805981145,0.8699128375778477,6.96065455358168,4.352235020477657,1.8380010814860825,9.225069406701774,9.611783069160438,2.845482195460219,7.14963356368695,12.82102633272793,7.208156111267687,6.338921747922891,12.4737928798859829.591998333408856,7.365798028664942,15.816775693865079,16.51689778976533,8.121852793883301,9.323843005172995,11.499439386268506,2.9106227853288997,-0.21558394624274757,4.081738095134165,-0.198402732306441,-4.139189817449314,1.2255822396442175,-0.9087875665741636,-8.98473483047765,-4.0332292490171255,3.789911657995515,0.8101707650547345,-0.3433355196114771,0.06649543469563401,-10.508385240180829,-17.102134364646492,-8.351770580284729,-3.986334988375396,-7.359959045211352,-2.5181933438202293,1.4989659621903697,-4.222914223716796,-3.2911432714131865,2.940017226191738,-2.0784378381910713,-6.051962318513359,3.0758925652737816,7.749324650701988,5.227239244691805,11.178658258233156,15.951610542710638,9.30945648060959,7.536496303840813,10.12039815962782,1.4721520153313605,-3.944707374317516,6.657657764456356,13.069669711217532,10.029809659362375,12.126516402739615,9.606078113523038,-5.0239462761359235,-11.533502939501076,-9.04983551746554,-14.086511015594146,-14.86371105752563,-2.2643170274677784,2.7533743402348776,-1.8567036014052438,2.078464472277047,6.433107177753556,2.477324986029997,5.675969459075796,12.110375552537395,4.599188755334204,-3.0610537205653086,1.4578910648080372,1.9817770636047412,-1.2298714261788424,6.316571341390052,10.83410616029589,1.5079987298830249,-3.087006784134785,-1.7447150818926405,-8.993295064967127,-11.66208479922906,-1.8684391589514031,-1.4437550832994026,-9.634432057708233,-6.849534591243444,-3.9595192610455285,-9.962497966949249,-5.510091601906612,6.75929977695888,6.650936386983443,4.351241925580037,9.07371322652244,4.255695155911473,-5.416341762038951,-1.5762166348397861,1.4360255552221581,-8.635610205989707,-14.277705452491427,-14.284971131365197,-20.472805396474143,-19.35130579016414,-6.152086802178199,-2.7831855432121166,-7.8209329954114,-3.4895180519619604,-0.13711472509631428,-6.019472481366657,-5.192022771300929,-1.852883691170053,-12.389592372764255,-21.523378439275547,-16.70057465657275,-14.483629314116516,-13.730313956091646,-0.02069815824743504,11.28360505198739,7.950534301187053,5.605838104035982,3.931021468249596,-8.077340266560835,-14.651601043672175,-7.252445543184957,-5.070017054709219,-8.793660142165152,-4.245295419592549,-1.8926139707876515,-8.122419946606067,-6.270695440917048,-0.6287846419776666,-6.504603867463627,-8.308120725370268,3.5937167755365795,9.16936214117166,7.153432347769273,10.874516739444752,8.207505443099379,-5.025418708463749,-6.769434401184377,-0.0315554175846362,-4.2448807929279315,-7.7036582938259555,-0.517695217490739,1.558283349905582,2.299008002092737,15.051027949775335,21.51936071262193,11.187804400174894,4.865371286153786,4.588248917875641,-1.3993810719926731,0.6674750398999925,14.661696316782297,17.998140464863734,12.515350176194838,15.607138672319083,17.133059975960283,10.452340537215013,11.292498385308882,14.53773417511486,4.7382123110376915,-3.565557398444797,-0.27269576261516626,-1.2288593391033074,-3.522104043926138,6.058124097656597,11.518186841993998,3.775499771513059,1.0189655413546275,1.5478652097821994,-6.788328158119831,-7.959056069304031,3.943110900056343,8.263550324835666,7.804536994449872,16.360823829882293,18.63910976190326,8.334868953163365,4.8429935600900444,5.233227374393129,-3.7843719413817594,-7.27977520098316,-0.003358992269963945,-2.4053677605980477,-10.641012759908078,-7.973470808415073,-6.8301957571338425,-13.796212479347677,-11.56959766849673,-5.80723351479866,-13.32846380305525,-19.529759521494665,-15.098404726089171,-17.49327909027813,-22.064450448846074,-12.157958625870359,-3.0247920984056256,-4.631290154000006,-0.7892861797799808,3.542311555382706,-4.8846273704825744,-8.456685475229197,0.7509246871830477,3.6385761869325677,4.058765154937842,18.03428322732115,33.412170735328374,45.51583221907506,73.3506305167987,110.93277054501345,139.9648717215806,170.8224014338337,204.33890189513727,215.9056266830147,208.46866667027393,202.05477767177888,189.00501127561932,165.7126579711807,148.3990579341872,128.39828516884842,89.569834697954,50.25295763696723,23.26904474540099,-4.977851330935487,-30.311808045009943,-43.06137938337431,-61.31516977638249,-90.24450549310069,-109.21376099629015,-121.0913623534634,-139.07483908092766,-150.1625437818248,-152.44326168556864,-165.36460473263799,-180.05637044058926,-177.14401948671315,-170.02734929540992,-168.01356471950268,-159.4529849394615,-154.20347215606307,-164.7284174957442,-169.8729055612367,-159.78283384882533,-154.44735111527962,-153.05991364474255,-142.4679055616055,-134.365719122595,-130.94087363168998,-115.41751599391014,-99.22588460630934,-99.99754219614674,-100.12459728493113,-89.85858586072303,-85.63632596038744,-82.89550943577821,-69.25274312875021,-59.672370255227776,-57.50092219055728,-44.458519736929176,-30.536010570885267,-33.2921544908526,-35.154161907122514,-27.1186485036978,-26.238676983760364,-26.7632991017354,-15.68772710047288,-8.352377684253348,-7.8720079183637015,4.708503891143121,20.447942984994075,20.91525460605453,19.740683861547385,24.811677218865135,23.006173677268883,23.58304753575486,39.85686538598828,52.64516886329839,51.753245946404704,52.91515095484332,52.984931474649024,43.63193263708619,43.49723354901246,56.57883595208632,61.31785089631684,59.887082958391005,63.44447467969453,58.51228129800618,45.82928925633171,47.37176592099302,56.68957592482623,57.25597515811362,60.505986119167765,67.752632544572,60.91896192465203,50.64196672087262,55.9014321045577,63.03917903187907,64.76029553400245,74.30176948930897,80.7503386675099,69.82644779271615,61.13896393235737,63.43409851425149,59.05188826170139,52.4907879077227,56.350781900373434,56.43222894076587,50.072000497535576,55.49973753015088,64.17464915098958,59.98095919325709,57.06376552363649,59.90604389559404,51.93041447121762,42.106386397266185,46.20028195422883,50.38840744545495,49.64533772035769,57.579252256743274,63.07296300420109,52.19474564279797,42.55881506120361,41.00867132252529,32.89043293326558,26.961387546157336,35.09658097997566,39.256421906878714,33.73583549576382,34.471281022100705,34.0681482287704,23.180705385453816,21.143218844543416,30.442272483203627,30.06509199404844,25.358480166818275,28.662785208902662,26.24033600258951,18.25383107199757,23.57910908706161,31.97963077675212,27.102506814305585,24.111706864095204,27.826021248444984,22.04918835253219,16.527417704929288,24.838640567201853,28.114384546752014,19.90713435859862,17.029326589939828,11.900562383448603,-4.751764090353145,-11.291549639814455,-3.401033289607642,-1.9505665942482682,-2.927676432595003,2.492869403819941,-1.2333305367243894,-11.046741098692605,-5.636631206883678,4.7875331378001365,3.50908277966593,2.4556203212757177,3.3931628907398563,-7.010209318236469,-15.195054646440713,-6.84197577619445,-0.5951137122933974,-4.346744088466077,-4.240202933230112,-8.046172506040204,-23.465547218538283,-28.979232944329226,-21.389108814597158,-21.63951006344431,-23.666136806561028,-15.948696830103131,-14.62221871519477,-20.92419406487682,-17.621809631846723,-15.330942072618463,-25.512848305151884,-28.893582494768253,-22.735799696211956,-26.11882342466336,-31.23128720570218,-25.634734199182077,-23.587627681860052,-25.85500209743427,-17.006073919395178,-9.203923388051876,-16.757853175034608,-23.033664808732258,-22.890158882821883,-30.621387162375783,-36.29119281509583,-29.102977926835734,-27.01947408218912,-32.852889937280295,-29.916381631205347,-26.308627217376944,-31.358311345980923,-28.335607500979656,-18.087728277278934,-20.323715446035806,-26.66092567743308,-24.61691504627639,-27.603554030663517,-34.43937089637274,-29.523075061112046,-25.69416064349497-34.81434009480952,-38.38755141096639,-33.28109294463325,-35.17628393774809,-34.42459557104878,-22.33344157429427,-18.291697180582396,-23.587789880950485,-20.59048819119193,-18.38029116146091,-25.965858902644744,-25.272951574408268,-16.278319680907565,-17.18046165971259,-18.920953491801036,-11.397665467223577,-10.88037226364228,-16.292217924911046,-10.049962460673434,-3.372131578754953,-8.779851611487564,-11.254901024880091,-10.849237153394181,-21.65191547915239,-29.401740534670527,-22.3346968635365,-19.122211698834878,-22.471088076784536,-16.819134075591343,-12.062239794215584,-17.43823207507553,-15.856732658838144,-8.89647434398566,-14.272321868752483,-19.00476031588395,-9.565293556930328,-2.9430256563191715,-2.3555277427987162,4.622619616124318,5.708302836065354,-5.987796122755018,-8.590403955475344,-1.3017442783655193,-4.017946179139855,-9.647921724056495,-9.531617411397487,-17.762787901688913,-27.16485124699416,-18.233761913589866,-6.812144190660559,-9.174266254257194,-11.25229379079463,-12.983261643888937,-25.511344232641186,-31.006500729189955,-18.776972736442556,-10.523082028875452,-8.704390146323451,2.7769941555784072,12.47046003860664,10.39894007247806,13.15443766541644,18.82453496163333,11.826187173971503,5.97123088116066,12.150178987023086,12.88125552850563,8.049712258396928,12.43663906586919,13.779693701995608,3.3034592520435813,-0.2653199996519273,2.9789518324216053,-3.1796598366505187,-7.9125005719676125,-2.989554307985033,-5.526299227510513,-11.355680482099697,-1.7569724858193476,9.376817347182886,7.886658022834007,8.650106574290087,11.133742753100655,2.0016392646210477,-2.878067048073861,7.522192341615359,13.40953441376149,13.2834971784544,22.18202112383371,27.398682002565014,19.50442269001543,17.66394608142214,22.298460588423477,17.239090166150596,13.644612194435059,20.302048857124408,19.96913334982964,14.803310872580376,20.532696878641175,23.24851013055855,13.062756117021852,9.3631783768562,13.111336246932689,9.035714149949605,7.136911629269761,12.718041514494908,7.510646779821998,-2.979467120714724,1.486312893430907,9.50794116768348,9.094483105469518,12.934443066792081,16.618904656790974,6.044021442417873,-2.8694315925754905,0.8365277231642012,0.7175868557653222,-0.8982835001459396,9.424521570823432,15.782544551036127,9.440001929369577,9.842236559283926,15.892308869544035,12.729053688195545,11.968630638259523,18.214313283711537,12.313025266156686,0.3334992109003747,2.309716555404685,6.367360355098378,2.3159221727585035,5.30300176403521,11.223614566057622,4.683704502180487,-0.14982270097597683,5.631523020989773,3.950297358783361,-2.882643415694445,1.1581979708324344,3.6480372930716456,-2.811594075571564,0.2362098396077843,9.130874107458148,6.3427557565840225,4.217784038276655,11.678145070341442,12.114792876191423,8.55721066657803,14.567157552643732,14.190249286181256,0.06039761897131157,-5.786995042078933,-2.959938717846976,-6.861538395214252,-7.3789659340477325,-0.693764256932873,-4.962702481358573,-13.257697397480255,-6.722206734449704,1.8567960099961651,2.5531410858402723,8.396925496446833,11.885644745658746,-0.9259209963567843,-10.679170211021258,-5.69809088143468,-3.6115059510558223,-3.5556157058641187,4.939328713354795,6.402440943722756,-1.8876901138845898,1.9202403294135317,11.723780631320619,8.334416083598368,3.744093439747778,5.564651914586094,-0.43068000832540587,-5.53271434846715,5.708752937668379,14.958746013332574,11.175838568553289,11.138153730070961,10.883688610281009,-2.2535376862789684,-9.07658963359669,-0.06095908142118045,4.001466305922923,3.3272392052376256,10.446771851119378,10.729368062361074,0.21259907138817447,0.79867506991118,8.35400328587749,4.676052716005827,1.3490961910320718,5.1016143535275145,-0.37390172351750817,-8.03121213576475,-1.164221452582229,4.935746609309186,0.9507662726599593,2.9588374629089707,6.024140982742123,-3.599384122227443,-9.357464062832324,-2.9152289718146323,-2.74449761365063,-5.937816055164533,1.1006050149302107,3.2695202350684296,-5.855697681851005,-7.597838010285672,-6.169906204278579,-15.24338183745839,-19.062789028145733,-10.718171303915529,-8.204212855185077,-8.28826635205872,0.6514682750204348,3.458284452246146,-3.6680128157440404,-0.9467645116322614,6.201999952420125,1.6674684306567906,-2.0556217217962702,0.5681107273990955,-4.5888664079057815,-8.139748447924598,2.7659913241999297,8.841257415791915,2.3483169350350206,1.3845840710971908,1.6146926145521818,-8.304300312817311,-11.70986492753611,-4.937491232607892,-7.808146511529833,-13.592495953519995,-7.014589837593586,-3.5742965467244234,-8.636709016257942,-3.9969697327874893,2.2125180003163987,-6.760310936365888,-14.217998405524893,-10.749118920852236,-12.498100771516043,-13.813414262254174,-1.8579638784471157,5.38137247532125,0.15027462342897202,0.5370177468489765,1.8951071374247,-9.150188230558609,-16.83981339934687,-14.2616479591979,-17.132872253073117,-18.18506036490829,-4.830458790104973,4.56252168996258,2.415544599620049,5.1404392593306705,6.977824556791998,-2.7111828220495755,-5.970611450363209,1.6511067166266038,0.44673099580534426,-3.620736053470288,3.950809595200633,7.918437744634452,3.3603722832493053,7.2540697007227095,10.99951855210244,0.9100538270587641,-4.831595263852156,0.03729711035330352,-3.326158856154726,-9.953508402984868,-6.719500858067999,-7.4977578026785645,-13.516031824648762,-5.0543891192653065,8.399073309546587,8.36202266615171,8.377175425564527,14.408645341972509,11.224695124292127,7.451632066612239,15.925644263736949,18.472310820857906,9.667292868180796,8.821493248645291,10.957268641955032,3.9171638786907184,2.582130698699295,9.054753623234092,5.589544608070265,0.35790493543173496,6.738719326449697,10.158636096894135,6.800750267560371,10.914324063131911,12.540986516036234,-0.4034379456020547,-9.553528923984336,-7.561348245767969,-8.356737349133246,-4.541104272241249,11.399838422534408,17.19365901544281,7.331863347478082,2.7167924563522647,0.5606253471916623,-8.843083852753644,-8.868166274396138,1.977382724902908,3.1003792423568473,1.1460607574181938,8.272709640390435,6.765992229502364,-5.845221583877607,-7.039366964624314,-0.9943043011376824,-2.3434075460431423,0.12891818753970785,6.253540122212176,-1.8523836029474987,-12.207819463238,-6.775090972323775,-1.3482134360612636,-3.6506961993609064,0.6332259047278432,3.5632912031840025,-6.082371058742044,-9.836200915703852,-2.9227864115925803,-4.3439301736702145,-8.392570862673656,-3.414186709778537,-4.667666790626475,-11.91104407636135,-5.115926440540452,5.123267286369001,1.4777007317693336,-2.5195314743433994,-3.1837399820712493,-14.097187538442176,-22.290654252126846,-13.482476809827688,-5.515805265906918,-4.483577960337209,3.823033856828054,9.144230256197554,-0.5504497730809055,-6.548604161299485,-3.008628602474535,-6.3006167432585265,-9.856612246592098,-3.7553353534717275,-3.6881106608007945,-8.902983516483168,-1.0626076683540142,7.820104659529765,2.614031604501913,-0.09818657933910382,3.934835823492536,-0.41782961826308007,-3.7568233811031218,3.268122899697465,2.372542572743939,-5.682939610178154,-0.00669593992554951,9.894187018887921,8.423491358463913,8.283164736966635,10.613475440612625,0.554132621543932,-9.513825007073061,-5.15527522933739,-2.0037247091413537,-3.068933988593245,7.27190938994436,17.388534210332033,12.530924515673007,8.38020475558544,8.521317938967655,-1.1582810640012364,-8.632743322450496,-1.4574839264773667,2.616291003143187,-0.5734113511740961,3.9466030534993797,6.742231081144359,-1.9516832049320576,-3.317592952162449,4.600281460243977,2.543719476481966,-1.8990577857130062,2.6121191759640126,1.7669366345588307-1.6843773376033933,9.792293437818225,21.36643074055798,16.27376830187343,9.619159402381506,6.01227331203769,-4.434516888257913,-7.127574412180753,6.900922767483924,14.337456216018916,9.208688355564643,8.618549453214035,6.476269718179447,-4.659768986450292,-7.356670509974798,-2.463324734781536,-7.790603567802107,-12.250692579332389,-3.9738463956331813,-0.3275320467794044,-3.962735837619757,-0.36948816919851923,-0.4080897173332181,-12.494530101576437,-16.216343331606062,-9.784740506877823,-11.202915778255655,-12.174170393287419,-4.730698442914318,-7.200077186008267,-17.585070890726595,-15.515464549672231,-10.043378590550917,-11.745999817672088,-4.617944676713856,8.556639796671684,7.601147115833737,2.1795154318126664,4.868329581844476,1.599306186451599,-5.992055193134314,-0.8532833148799619,4.981569520583147,-1.1421292526933233,-2.2987524398334482,4.007020601622761,2.5976527497827555,2.4073360924531406,10.693354193236635,8.885238492866684,-1.823929650791464,-2.0206748862778205,-0.35107520314535867,-6.0627416252033255,-3.2029185679998413,4.75232550135665,0.010184599604492472,-5.177104476139535,-0.44483790163370873,-2.0151471842267465,-6.439132930933413,3.1305259356968804,11.264309444500016,4.2160655835386605,-0.7522137085098168,-2.262607149326354,-13.808143512248028,-19.917856055553745,-9.502170019173068,-3.678893562788937,-5.743543138607588,0.056388165304693594,3.939094794635343,-1.3179966491882502,3.3197479713049693,15.303613140095875,12.974160153733798,4.136471942643158,1.5191760677608348,-4.152973053570416,-6.439391730860308,8.787428836708699,22.548311686563054,19.127297351555843,14.803356387460408,12.984776887349385,4.337974452882728,2.9095497625268303,14.132259548848008,16.49915386715627,10.007034360077586,11.711466739736489,12.399791514140755,5.038586991565296,6.7445573777297865,14.243581132674136,9.919519200897986,4.904781496428812,8.272553405632316,4.0103061236031285,-3.998327002769832,1.2906253327048214,6.181003682112978,-0.44818246242016,-1.2348438228041876,3.4020260163965332,-1.3765566397028453,-3.6733165622377224,3.0620413612485926,-0.7108899606674592,-11.08287698269,-7.36308627451252,-0.6729230696017283,-3.4732226100239547,-2.332962037533504,-0.3609085146105424,-10.902145147043058,-17.156649783684095,-7.413350778003353,0.17411602834669038,3.6956745544606697,14.031147288702726,15.655045110310915,0.6483885544379717,-9.02638823240888,-9.598258865525278,-13.080619964281462,-8.670320446392758,5.3051538861730245,5.295539762997727,-5.751094253543483,-6.684767286536784,-5.315899129918217,-8.773255250593753,-2.952446117780068,3.944124768872003,-6.3203470019938734,-17.709605033366774,-15.856194667311481,-15.410353836563477,-15.581698388456761,-4.011808285740221,3.4178416116120838,-3.5436238451052544,-6.111370543524472,-4.403228382006173,-13.65983840680277,-20.077672402430498,-12.799806073117058,-9.176553152925463,-8.539455829903055,1.8820450105219084,5.887885445603263,-4.908034603673641,-9.054030302451679,-5.647504457513145,-9.292470204644273,-8.698587882738368,0.17212059990856776,-2.74682543968812,-11.820666405363088,-7.1764292123693405,-0.41978655735464376,-1.9261970198468192,1.5007928066908647,4.410208639349017,-7.061636400109036,-15.250096322771064,-8.541448120737357,-5.453001346274858,-5.759552770384974,4.758208105631105,12.000411760636068,7.689964114820567,9.458257361304096,12.668238687254565,2.1391872485851717,-5.442325035938849,-0.4201825585783694,-0.813232414127933,-3.571907239809777,5.161462855376838,9.688287320530327,1.8047441342733084,0.22224595414117998,2.76851735376761,-4.584384510832962,-6.673350710210631,3.9706914732626992,6.4851885743020805,2.793224125986655,9.351782644934174,12.668241874783577,5.297617484023019,6.670541241761693,12.805886670067359,6.811349580528373,1.9895297433789663,3.741533441277763,-7.397685593591744,-23.556064795616084,-23.35711373678862,-17.9513905008806,-15.450585839587902,-1.9848364453392993,12.344287797838039,8.987483491197203,4.518903882422932,10.896321659759385,13.176881461868739,17.078833159848134,36.37392501449178,53.91999265301362,63.532546789131004,86.39715940076715,119.36704642558897,145.30309689268594,171.80002500114335,197.26947633655413,200.41693781788695,188.69733613638755,181.01956669918206,164.57323171366843,132.08789676267435,101.13305540235706,69.70174246738705,28.92204160896943,-1.676987015997856,-15.845761893512764,-36.12120826164863,-61.59109005946529,-77.31031700451975,-93.30330965563974,-111.12329414063139,-113.06145766597334,-109.65762045245708,-121.35264732321974,-135.42652477258468,-142.3219116272021,-152.78430787432592,-157.26480935852592,-144.44904508738745,-135.3188204546188,-139.23443950460086,-136.92225214567668,-128.85244517013658,-126.60492304038019,-118.31042202570205,-103.17360322458516,-101.49145825459301,-105.07281197585465,-93.93831795909526,-81.14626954197885,-76.25400257123961,-65.8791722915941,-57.27033992942577,-62.734114294990015,-62.71779581155779,-48.966525191020054,-41.87829939686563,-39.53382347478856,-29.31982444647091,-25.658316448425488,-31.481684344944973,-26.615844611076458,-16.976945953872324,-17.732103842775043,-14.612973460112338,-2.9638124928911176,-0.9703938739548366,-2.134230349912597,8.489714916526541,16.101424557518897,14.837559225838238,21.47103778428329,29.07833808495178,23.669161774152293,21.71552056746232,29.73251357882294,29.247345667644655,25.707910654127218,34.141008049797776,39.36498036240313,34.58392411191343,37.10199699120225,41.634906337770055,36.06781614594916,37.1023834683964,47.780488443792784,46.05659568723905,37.10423958603171,38.034002600379196,38.24019410483101,34.960055394318196,42.82892410053799,49.72718954721025,39.926717693431684,30.983424322120797,30.785320277086164,25.01851848169339,22.48044634299336,35.346631962170704,44.724241845442776,43.088757128781346,46.16669290804912,47.081988309525386,35.29717667937928,29.784456813984278,35.52012490595986,33.68307868451517,30.760997652864702,39.96081885274421,45.06392107624883,41.2299721538714,44.95781895549649,47.003945071931255,33.62934841274409,23.579167080852113,25.135205159509148,22.790237116354405,23.066878733461817,35.68658547292971,40.3244497296603,32.09062500026498,32.126933322028044,35.13279945339165,27.272462462414243,24.388612976891793,29.75035864515011,24.100966053361027,15.726976339230205,18.70673789606197,16.523376785512085,6.8959800465530545,9.811573269970898,16.82674678800894,12.600446733917085,11.556211950008091,16.304716376806244,10.317948120044825,4.664331271210983,13.631806699360313,19.167633241725536,15.314487752186253,18.333498720222572,19.621992085491527,7.6730628297698855,2.3540724923497516,8.553386548101017,6.156661278466318,1.2640771556308612,6.593869044277697,5.68246413847173,-2.713917914777077,3.034942146663861,14.163925838882816,13.003687969952653,12.668009690020078,15.819084451599394,6.52165995594579,-2.714465979660104,4.113517547433599,9.54881951286674,6.562188690011531,10.252266317207967,12.43180144829222,0.8067042843627359,-7.759085994009809,-7.658678235362352,-13.914285581620819,-17.959924968442582,-7.500541952761479,0.3575801313501692,-1.0107580952878008,2.360024110231771,2.5333799093723135,-10.087676834761876,-15.911926392039229,-10.238234118292949,-11.43969659054949,-13.248688178636419,-5.488941714771097,-4.6743146766283274,-11.28736088876699,-8.062201305826326,-5.764919303425329,-15.053252293482139,-16.04388159568357,-5.669003987287493,-3.6571627769072332,-6.126572351164756,-4.806713212392099,-12.522765162153656,-23.886177747057147,-18.768616229967165,-9.065954146945812,-11.758900431149222,-14.034412125608332,-13.389994230938694,-23.477485702072016-31.19309877340142,-23.49620230312575,-19.405299763448,-23.14458899204019,-17.97380591695619,-13.434305983124478,-20.27648937817267,-19.681481002468104,-10.804379622107408,-14.374210632645408,-20.94247463811147,-15.81190577253494,-14.520987653002106,-19.823024581001633,-16.319935042292848,-13.841897800553017,-21.564417506610674,-20.92696939387967,-12.257617558252118,-16.133585157046788,-23.731584976079002,-20.597375780985924,-19.335515963648128,-19.91679991513171,-8.564885532597424,-0.5655270515400885,-9.429741096465822,-14.991250883001342,-11.663358272671559,-15.330684800253907,-17.018199224551445,-7.340394881240895,-5.536076535085195,-12.376430484228958,-8.080355615641736,-2.7791913560281944,-10.614705383421546,-15.969086912713262,-16.442766480212118,-25.414257809549216,-28.90923265316696,-16.096123156382397,-8.339963804236923,-10.873805210792451,-7.999300951099938,-7.198609506625718,-14.964122788787012,-12.230477787288162,-0.525027653445544,-0.7827583840341978,-5.286785290026414,-3.449694606689976,-9.090072698658442,-17.628979797907416,-10.226976056604434,0.045575632050820936,-1.4063697982369088,0.10631571136370788,4.60942805836036,-2.562906031419394,-7.666631104754314,0.20511358062866591,2.0012368042512714,-3.4405818076225163,0.6048800975713062,3.5998792756841915,-4.06582593845247,-4.74757527479029,0.32831829575503413,-6.233230119821786,-11.567731752175249,-4.3131134519620264,-3.262149668134901,-8.986512115937032,-4.430969137454077,-1.2270553844239769,-9.125171697770332,-8.350469180696788,0.32982133854212003,-3.070561360548918,-7.280223578427603,-0.07309854381609027,0.9387276083388811,-4.668434959729579,-0.6806037804732328,0.6933343254271058,-10.880693883015434,-16.36825534813321,-12.804320025165023,-14.593972887342456,-12.477238171396511,0.21084738314872897,4.280259891272782,-0.9507665167671822,1.8860207623661707,4.914399850471155,-0.6651812707868561,-0.5984277836447771,2.6489917927096536,-5.5438993891439345,-10.993085625087646,-1.8098581400939127,4.057095244011352,3.344274838715506,8.82160853564163,8.96301275507627,-3.197390205240236,-7.849464588710919,-5.135196049444959,-10.698448917383544,-12.505389903237493,-2.3374678348035074,1.0698173704851146,-1.2375691296639666,7.091131827329379,14.433608118908248,11.696586126679875,14.805285008230356,19.940262383906834,11.911288964217285,6.511987367660317,14.458582891600397,16.326782248221928,10.845639652127783,12.99317778637254,12.231806821491695,1.77763117633996,-0.6278032040307181,1.5423721204326832,-8.810383565565836,-17.39985190721519,-11.430430300598509,-6.376298862058661,-2.128246566414629,12.177968084066777,19.951306854123615,13.06159421122843,12.07197958118575,16.89951101397608,12.71292986475811,11.441027449833008,19.481779218717215,18.111646219557432,11.078774049081417,15.461597289708653,17.817538419473404,9.757796073064856,9.652728813246192,14.216410202681143,7.864954366217413,5.208669640059972,14.529684649408226,16.046557205690142,10.913472010736099,14.684605571594847,15.315836720640009,6.638537900264996,7.728260444356676,14.296250309674004,8.026901926156043,2.055229948244329,7.587609771365927,8.822795474287405,7.442474310083032,16.596524982804866,20.16603306401326,8.897379949765009,4.4877611074876755,8.50394765272724,5.356370644470626,6.001520472420512,15.264235340100008,12.40120792896344,1.5859251398866974,2.365251355114575,3.9494475846881,-2.069975161141375,-0.4500276350324459,3.3442411185907117,-6.224340894598066,-12.861727671569444,-5.369269907788224,-1.6932341322485727,-1.9440469126346118,5.6682961903832965,6.801640337417334,-2.9628070059395584,-1.2057878370823305,9.925904511739697,11.394710693504042,11.518259098828755,16.015403907940488,9.316491085534748,-1.4691688379860275,1.6888927963991716,5.795462595218856,1.6315718951114573,5.162359922042059,12.096154828459007,6.217071568372528,0.10255835818826253,1.4931117780945777,-5.849415523705725,-15.385557114775947,-9.108217169409683,-0.9703215960602523,-1.4064383026563378,3.6824542880183886,7.8058832226504204,-3.418474410161621,-11.289350430184765,-4.309940420988291,-1.3203264168651012,-2.3327294545881685,4.509133383417358,4.772669533571086,-4.524207780227895,-1.2709634245102892,8.791658662653354,6.085046362770668,1.8651875677115612,3.5030221403008004,-2.619108414212793,-7.79694169528087,1.9077664577961624,7.518641863729265,-0.1761332612002824,-2.165139464926088,-1.2031478689012112,-10.243166381499359,-13.060003542786284,-3.047475371763807,0.0391420175668068,-0.9288635204487266,7.081729886643578,8.136848392459186,-3.007746871375688,-4.857859842990649,-0.31733487113202785,-4.42750817653973,-4.369721764974383,3.1866620726959196,-1.5280613205034186,-11.53935201552909,-7.445968206571199,0.3212996761652265,5.082791322946525,17.774498613275004,24.72398981811067,9.164553932577682,-7.669854968715016,-9.359986219597522,-9.361514141361582,-7.510676545732754,2.863302984500953,3.1992152092156037,-10.171232617707542,-12.825408248763601,-6.207090049682309,-7.348798703598627,-7.157059623963013,-2.9469763730338556,-10.522656577865561,-19.665771838183563,-12.644339518064873,-3.676463960779325,-1.9624691880526295,4.317453536833098,6.983766596065571,-5.022818581486643,-11.841737961786832,-5.2807652395602425,-4.002261120130607,-5.3526282590460905,1.7104161438257326,1.9142124975816395,-7.899505427085514,-8.994410214250266,-8.171905030350803,-19.51753374835029,-26.936719004782432,-23.104789670239082,-23.191630197605225,-20.755286044770607,-4.692279390539472,6.230232791729669,4.684152046966748,8.042856948571913,11.117665523354692,2.91766057471618,1.792128904238653,11.684863679287679,11.14258402525956,5.921730793853046,10.87756922228655,10.82426099728544,1.8741923947987713,2.0550121944178064,2.646591523942999,-10.316362157002406,-17.67499963403343,-11.861420016299942,-12.214420055683728,-15.102321337866966,-8.015676309329864,-6.306735916638916,-13.555888792162794,-9.956392728801555,-1.84564462424518,-4.634642759371776,-3.725790911139488,5.0611257935274345,2.1049218928305025,-6.139906737981054,-2.5110234190402996,1.4511998872327971,1.1324804595670745,9.969085990103865,16.312265555828095,5.597523279335591,-3.0872731391486976,-0.7285461525536132,-3.511202281446244,-7.433246316369408,-2.45538860863407,-2.665540718802563,-8.63894674464017,-3.142070535788063,2.8114895563161886,-6.365381199888432,-13.230335837292197,-8.900926984412518,-7.198409923442071,-2.332300520482076,12.90774472590867,17.679080913842068,8.249256932456184,7.140766758919812,10.992009346505675,6.1635888436007225,6.147158950844338,13.72257059896749,11.21531512030577,6.944628855504662,14.504995717417009,16.37064979271656,7.055759825789735,5.236400850102955,5.875966435082992,-2.438145038882242,-4.1424141737910505,2.253887401984189,-3.0836334499826745,-12.467990834577725,-10.291797004703273,-9.0051021429204,-10.217327758632159,2.416282137646607,16.71474638085774,14.701543574424509,10.428715161104568,10.243146370197955,1.9878199692954341,-2.795843317716506,7.783140631888646,13.348141244377464,6.874947674177511,5.550443170452099,4.2204632818585655,-5.953645927837908,-7.183496833841172,2.299936969683072,2.79632302857312,0.9151224006996042,8.554525444757045,10.870773137302429,6.969787873551309,14.05755541941836,21.862835430565024,15.891113867130084,10.601937326169043,9.44908824324617,-1.3075828393119693,-9.840749020618361,-3.472202688461281,-0.17294474168982965,-4.2568105842878445,0.07823553482418033,2.98307880451263,-6.592931368781668,-10.233583600807268,-6.125267286698573,-12.060492672268717,-17.51143028880089,-10.360564949118157,-7.05951811147973,-7.868837109468086,3.2048810167543467,12.12902665481993,4.569736444627893-0.9069913774063194,1.2934855295547574,-2.9006877479026176,-3.5204944230074324,6.968132360685082,6.346929980393888,-6.682737424439429,-9.468454562367196,-8.172144225110227,-14.624024647670101,-13.678151777206686,-6.276082653689775,-10.418159075456234,-13.93550637588486,-3.7772001779075524,1.316769879209453,-2.2051118250448036,2.796887034201562,8.17935395046454,3.2919068327738845,3.024320116965471,6.9572288219112615,-0.46645096193970836,-6.279206076011257,2.6895057170019805,8.46253986339161,5.102327548696428,5.502049141005431,2.4832146698658457,-8.790916440243883,-9.367689842003715,-0.21961891232995745,0.08881690191549096,1.8607056261650086,15.954074999333264,23.046930156214806,18.824129022423264,17.667144747787273,11.56737596940986,-2.466336313388023,-2.1834245597144633,9.397476643686582,8.58334910455839,2.8081686293143897,4.4269925470015865,0.790975666151227,-4.965836979182774,2.989013440459432,9.286968826641646,-0.4290463054869633,-7.700812160816941,-7.881838935060138,-14.646942876851778,-16.5425596238478,-5.047854538707381,-0.7083417488944781,-4.931963496234163,-0.1423148156763241,3.7161463478851497,-3.4092159396412223,-4.32220425334617,0.5851165540271093,-5.647954254489557,-11.566852437513557,-6.192696889358083,-5.7453840935181555,-8.495634950390553,1.2223066843647805,8.033913265319079,-1.0276958767457343,-6.968303836086378,-6.280313302331768,-11.993358433987757,-11.523607005609037,1.86522304452249,6.030959799592546,0.8963028612438444,5.202760889092284,8.612366916946037,1.3585606262788366,1.283593796504475,7.26765638073227,1.6218794910658718,-3.860337055264479,1.350222436100959,-0.3947215228479142,-7.2617284913646785,-1.418173877871622,4.330374866633356,-2.2191158748426325,-4.9522530639494,-4.259721551703029,-14.255615146222333,-20.255919513829337,-11.03204839804635,-5.4782502833702935,-5.4049875665470655,3.2729418948181275,7.566647063225817,-1.2222542326033015,-3.4440727788714085,1.2493463127255893,-2.9889075415826913,-4.774983707979487,3.8788212515563725,3.9122094079272043,-3.1728913364116162,1.0211599688331003,6.213110493759155,2.9825738394935657,7.003162774302198,13.94396390748727,6.774481982518557,0.030545789574507154,5.156790934218644,5.158310589300045,1.4132181122639147,8.361754196899701,12.213669783278986,4.066974472658629,1.6331966542989358,3.1503164261305194,-6.165043019741722,-11.44766614347349,-2.6247557700986945,0.3433917227196619,-3.4311653317607558,1.1548424561157526,2.5691732690656504,-4.96033267856984,-2.208781724970285,5.768855608165524,-0.7955715335279527,-9.470689325486367,-7.796083515988414,-9.223029793800842,-10.57997757246622,0.8846965988450473,7.6733885525495475,-0.27056182150536845,-1.5871737635307956,4.686206089161031,1.2865386940023238,-2.1645150536186923,1.7610215021445605,-3.272215121204705,-12.000348331875367,-6.548515261541927,-0.9295904352735496,-6.742568578044733,-6.620325835778484,-0.2146484312818373,-2.215811892866409,-2.5168764697745187,3.4948973262164715,-2.0955963638713486,-12.000645218328259,-5.900141172838909,2.5263146354490935,0.02265083527966283,-0.12422253284554341,-0.22134552308676253,-9.347930850231641,-8.354559675921022,7.769003346323622,12.429419606190018,4.8510641920910995,4.597654975223209,4.484696217352052,-0.618509698809643,4.601218256437971,10.966373243724178,-0.9094838843288207,-14.250296764507285,-13.356669857225215,-12.273470426335887,-9.907273686951942,5.119311944616206,14.372564036765867,6.8971513718152995,3.381830435475054,6.836648165535912,7.147004467502983,20.70193561510401,54.84268819595142,89.36263856445171,124.20818194497788,167.60082552143228,197.8064090413651,204.80074069319068,207.8331064474188,204.27935450193837,180.63639340189496,151.26542104007734,121.74314697877895,77.4252720915843,32.23031951863148,8.452931778362657,-8.715688761337681,-32.095619114585354,-50.14486146832384,-69.150126649788,-99.53386928391484,-120.71587741064769,-123.70242397343078,-129.39127176567143,-138.54520353113267,-139.63992515824307,-145.33669325491806,-157.85053803149617,-156.8588465442425,-147.28502222518,-145.7939044468971,-140.97559205197476,-127.91181791259476,-123.76283930173403,-122.97262983066054,-111.48652860402963,-104.95558151689397,-109.89824614143265,-107.01449475260802,-99.01654529014148,-99.14599480993473,-93.76251506420448,-79.16669554706098,-75.37935328851907,-76.69375560991335,-65.7659138007571,-56.48315068432826,-56.70980609039396,-49.22822647125309,-38.53165911362619,-38.73941108822819,-34.91711174415466,-21.50604851350912,-18.38314835708666,-20.623201838227022,-11.279320840829964,-3.581687814620447,-3.97395183870823,4.964167853850869,17.330123860471204,17.094011197208285,17.50680332113252,25.152590647430802,24.36854846313217,23.104341618293095,37.43326986494016,49.83586482943889,48.34166249435286,48.34427424951092,47.9785234407377,38.51531161603397,37.76567751505765,49.706075071142614,51.64302605529774,45.56269657680618,46.32463864358491,42.99017460957903,33.95191241500243,38.865032252716254,51.15720806844617,53.49894258743943,56.75299002640104,62.86747189131967,53.048082919463965,37.73977906567564,39.13767600898716,45.9903132599531,49.27792137715637,59.29047610042299,63.84405543561146,49.58261629093623,39.07966915745992,44.18981814149849,47.24390760252511,49.322148920485056,58.978762476403865,59.4949144013146,48.78017863357918,48.529624694576356,52.914120426808864,46.02849042738462,42.2326930924863,46.81139941730795,42.77040623817399,38.182611151150844,47.135005217676095,50.81470505079763,41.044135902852204,37.27596080238327,36.80004386896194,27.596455111335654,24.969586967050088,32.62816782241189,31.24590312847902,26.48055316660588,32.32174469891672,33.654510660732996,24.878875863115518,23.92161114829014,26.617080465348682,20.758112591782506,19.81306263651746,24.94637169213966,17.439687425007012,7.063644379268648,11.351169292531381,16.248448934007452,14.958512671597477,19.833911085629783,19.516406965451527,2.350180547702708,-8.684707188294116,-4.490550277216539,-4.641507263435481,-6.0695925958373,1.2830242255608515,0.9188989341355314,-6.5897787840558895,0.7895932547762006,12.570899624897507,9.815005851223969,6.122972217389077,6.399352045213419,-2.8038776686850926,-9.209556624372263,-0.0565325771328169,4.7745507606097535,-0.8355297862531028,-0.27908145221815794,-0.9978104627784856,-12.988934998030352,-17.98057124474695,