68.75143953082238,88.70142227848808,106.3211430466225,122.75366048320424,123.60181025473332,104.43546400253899,81.90263772225394,59.77618680047844,32.956239766972345,14.749759270360116,9.862418831933352,1.29970786537493,-9.561099170648157,-10.220579609393983,-12.053279311392414,-22.215179348202454,-27.647105464944776,-32.582437535366694,-48.55511895935318,-62.177765492071,-65.83433356762689,-73.61459061117255,-84.18295365308066,-87.63780625942326,-95.25480864243973,-111.0662509930998,-118.61999106724693,-119.54232221768534,-127.34227698089866,-134.60889581705894,-134.8645256035228,-137.77179381233745,-139.8812845236044,-132.23412067657407,-128.729193712533,-138.50778547101353,-145.7563642120119,-146.25272111439853,-150.7421953062141,-153.17599558635726,-149.8556288126805,-154.96042092910216,-165.26375544974044,-166.66611058480078,-167.8545394319508,-174.4988698507491,-173.7560046660544,-169.38373039863734,-174.39730782211353,-179.31550395705207,-175.6381441525586,-172.35874121365387,-167.20690028439458,-153.8571002351905,-146.69091857004037,-151.4523288599764,-152.62669561513783,-150.87615856214487,-156.69994730161133,-160.53573901163924,-156.45799532519152,-154.67067204644263,-151.0404144284783,-137.49543992099282,-128.94166681962488,-132.8762221895693,-134.48110875212708,-133.598614439742,-139.0393561499911,-139.8121195834707,-131.72291177950513,-128.5477905059501,-126.53674532813878,-115.03647427782572,-106.80645916567555,-110.10712039689565,-114.02678930847608,-120.06087356889032,-133.35012435287013,-139.5586337845669,-135.0388096341165,-135.59366135615747,-140.29213398939987,-140.48505777193625,-145.7279915305526,-158.42537047849038,-163.6859394042936,-160.05016728805296,-154.38890000285238,-141.12569018652,-124.69993588421174,-124.63658708186689,-138.23441538704415,-145.23068276170886,-143.48065047390415,-137.63460508768523,-124.54796507188942,-115.64435188759307,-123.67132116570677,-131.15486270830434,-124.24901476000068,-118.17535147616138,-118.46799733433426,-119.14032728073731,-129.20354019447802,-144.9416598182086,-144.1709454319681,-132.2192835134785,-129.66187958323147,-131.93328165800847,-132.5731529608404,-138.31178677454292,-141.81481661825546,-134.11984914013075,-127.56076846374421,-127.08032740459728,-120.72695337270696,-111.77953082128305,-110.91918350125154,-110.91121938813285,-107.34703465076632,-107.4326777715062,-104.63476257998317,-91.88871256283551,-83.45453443656247,-85.02464544581692,-83.8019736642366,-81.68047688697465,-85.99088595862567,-85.23538092937378,-77.39650516372755,-78.23055239340928,-84.32433654985921,-84.16942750974206,-87.49846310284832,-95.63870203849004,-92.4231538956053,-83.21239833009301,-80.35747936684506,-71.95736660205903,-55.887391001585854,-49.25597040186376,-47.07305959063433,-37.095896557840966,-30.944643209880713,-31.601269919657245,-24.10104863998216,-14.010583192932032,-14.013974539112434,-12.656998594629849,-4.2834237652855345,-2.165116132870145,-2.5689041423729275,5.380426335869355,9.233651135517167,1.5979419674011468,-3.7062618823817997,-6.493015095440486,-15.585752282928295,-19.778797909907013,-13.943085260604638,-13.163276836906814,-15.94846289520611,-10.891037903494794,-7.045449655473503,-8.292981886910372,-2.8225714853216,2.432074818656395,-3.6872979537380925,-6.496591743735515,1.5677077567753983,9.442179546988863,21.835074256604667,42.3221108624448,51.70372898469056,46.692503239892574,44.91837764524717,45.68220410119642,42.85755695185128,48.58687749167982,62.90396829489852,67.76411496682232,64.12741941137753,62.06170857369423,54.06907086707318,40.73916725615542,38.325975797449026,43.161165647321894,41.88449192562377,41.46032228954706,43.747469950368924,35.51565178960549,23.38306114961366,20.959407106891202,18.864247153906856,14.450425971556019,20.508025225283436,28.3117469047065,24.16073891631534,19.31542602013637,19.161879991146222,14.363290750438765,11.026622861007509,15.230604032837388,13.403607666520474,3.1164592838354146,-0.9794881513452269,0.43468042217698666,-0.74670197381778,1.6464866885857767,5.978830837269432,-0.911933839460394,-11.450639908248068,-10.95907821912953,-6.7460787099870245,-2.7555404383933872,9.432906393905034,18.08473839231165,8.345656394407234,-4.977768595292224,-9.983693791732122,-15.243994506361634,-15.635996524934633,-3.292643434359798,5.189490669357033,3.849363569938052,8.379306222459528,14.794257368268372,10.771980475801662,5.806653810755238,4.5148381305087675,-0.9217234689125062,-1.3768709086933024,11.483472725757387,20.653924348684136,16.233688632852704,8.84407834798471,0.33431268769682565,-10.015674568991702,-10.032557907238052,-1.8823388770343947,-2.5244809497498713,-7.360953798822241,-4.095593031385786,-0.6811396193971101,1.1150329778389136,12.88835146563802,27.53308458515575,33.44906401898691,37.97790078320157,39.14023734823057,24.67319431724151,8.221363311748064,8.896650076059997,17.290864237042893,24.15278572772753,33.94293027010056,37.856032312153374,30.46921941792958,29.461692727327467,38.748903788408064,42.61025069647198,42.900722560365864,46.77116934665376,45.31733310178469,40.70654633658371,45.53323260098009,50.935828090917916,46.1754249870411,43.654345330745514,48.03854037768065,47.879859979540484,47.89410352857989,55.230470200034134,55.86406477090115,46.68293795721039,43.52324763922552,44.013278166850164,38.54689155629883,38.40699519620112,47.61066945542004,52.259998589338736,53.89541070575628,58.515542821244324,54.74540137077772,44.1303743252164,43.16616747441465,47.18395141981934,46.4660604912655,48.71984036136128,50.043288750356226,38.407308551449916,26.793227182474112,27.750961349264273,29.84732443040841,30.204077677291107,35.33888562736267,32.7332459840692,15.861317297695056,5.173149824668371,8.823425537387966,12.768319423054368,15.201498695118818,17.622148198348608,7.768161153483735,-9.353318545397402,-11.989299124501974,-3.54873751124995,0.3096035575563033,2.524510968626895,2.212229839893932,-8.876852250772934,-17.59808378876111,-12.108291826165354,-6.9810069491868365,-7.9282632171270695,-4.156209607668848,-1.1073252441134307,-3.9561325787704122,0.5933461859469418,9.628945145461035,6.752998809173644,-0.47795055359021754,-0.7329294366474411,-1.1252508386066125,0.6838794763446627,12.823895518108879,20.956986803534534,13.642984102977191,4.8270673287702035,1.421417538614859,-3.9365684650557764,-6.065606027677741,-1.9863626650480524,-5.951247590469548,-16.019726999962835,-14.358430288585733,-6.936032349945493,-7.9564702900081485,-11.51499216428443,-17.05048588508453,-31.392077707794574,-39.36142993008556,-27.770610699437235,-12.547280189961382,-4.590751793469307,1.6134788550000752,-1.8067339495164254,-19.41446024273718,-31.689197880553408,-31.201546367610014,-28.96671676791756,-21.049473009229875,-4.60910901775892,2.6347658821226263,-3.950408531552769,-11.3517496094373,-21.52864265887892,-37.697636412453726,-46.23791665529172,-47.084538388256924,-54.7987969634947,-64.22148809240207,-65.25481346011642,-66.86839413031201,-70.81397067678067,-67.26240975286294,-64.13837224131728,-68.84336586602541,-65.05282819917284,-47.07212323615196,-29.01327040170264,-10.674002673982756,9.212702334005513,13.6469604516378,4.208793585318638,2.9244177834856817,9.234678221358363,13.718116255930706,23.744964964604936,34.93949701873281,32.10767618663334,25.08969816147862,26.899304676274145,26.653046191986924,21.559287992634005,22.839095514057007,24.848373709897007,20.279673932516825,19.95872988291186,24.230818338846568,20.37322823447163,14.307787317657667,15.399434180610498,13.810619555577134,8.552928989557394,11.804326285940926,17.694262474198133,17.616893708546925,22.2644779208541522.61673023565151,17.518065259108496,11.599083213427463,6.858511489008791,-3.2655892015076167,-7.241185684487881,4.684369512482792,17.77879036291136,22.563073654139515,23.7215770187913,15.989863328335566,-0.8583048113636309,-8.027871987008673,-1.5158062102646377,2.9291908640776922,3.511960639925639,4.977905930287893,-0.8068937836476815,-12.50279993216589,-16.450110481978854,-16.072881426807896,-19.12452956557702,-15.767171677010445,-5.976845836992052,-4.870685619470288,-8.296661820007426,-4.622852514285645,-1.330005237865286,-0.10799475065205272,8.58376843612419,15.770531294253265,13.209156034630498,15.388330394511403,23.887298695577904,22.670646825040762,15.07783390753088,11.622517882244273,7.581155906952343,6.639192243005264,19.417199951715798,34.1932252663796,37.384233362853486,37.64856597581807,39.092402576425,35.70910550447669,36.4715925373481,48.530620814534046,57.353751102827665,55.99501601208536,53.38924884597379,47.46726606659906,37.03765255545609,38.05457581531802,52.232101590404824,62.569388982917246,67.69757142625343,70.17511960775107,57.42776262307524,34.94592383286805,26.91324904718209,33.26391967930263,41.25691625406983,51.154633701644016,55.62193142701527,46.99178346689548,45.628229752796656,69.34411129807356,103.30872090912813,132.99043467120637,163.24263858077,192.1012563078796,210.38241351631876,221.37813572025806,225.70030333557926,215.04027393172925,197.2166325386691,180.20423665277372,146.5759236215033,90.09754611255178,33.394630078613545,-10.751779579199525,-44.496601637433265,-66.72030873690335,-85.77093274027246,-110.70950075786685,-124.65376742263544,-118.02595868696946,-117.68007563582455,-137.70168005608778,-158.8780930416915,-172.20709722820848,-177.689386809288,-166.43945703541428,-147.94819071218245,-140.17228775305034,-132.63612188848754,-115.59071026087612,-107.13061243288388,-115.93335162256358,-128.700568045071,-138.96108538367372,-142.90537325388703,-131.10012691790445,-112.29651888836946,-105.44496132408078,-106.89429715938616,-104.57980820901426,-99.42999095736448,-87.50434108642807,-61.85111492030915,-34.491714770992076,-16.85920400255632,-2.1730435353944184,9.967021976762652,12.74937699081151,15.667828020000112,27.681466906681653,38.896183517444385,45.03800248798804,51.06319345993952,48.70937169700518,34.91890115653587,27.615776783400015,32.71230207597718,40.377157893342186,54.03359624672061,74.36826731072277,84.97558642323195,84.10499095521504,84.80693046660951,85.33079259906205,82.79461121703847,87.38330126950166,95.67111283247111,92.81924890547349,84.65133623723742,81.56378389302911,73.69245753941134,58.66603769022356,50.410786883264436,48.11515404451512,45.51008301133692,50.759366873348874,58.9171892166229,51.78948803291323,38.59176016664823,39.63388083485686,50.286931076805374,64.00407341376483,81.41711343946758,87.81836188544607,76.27010978332154,65.29460781561548,61.22372626418195,52.83453513647859,43.34507657509036,39.14090020700904,33.81016997076979,30.906851732894648,39.12864037970979,45.79159428825528,39.38257163392249,31.277977474022663,27.52442565122599,22.90957505677752,23.65861718448747,32.62729733771128,36.701937840963794,34.92629077707642,38.32549677758664,40.522828762747686,33.06162528305537,27.872774599456683,31.583312695911374,36.96917804450658,46.7156635527257,59.84850659593256,58.52318033244494,43.11472376508842,33.69211545766845,31.311318433482803,29.435092528319927,33.82958274431867,38.238750351241706,30.85655745749751,23.505571179701953,27.213507452260213,32.0186439089152,35.57867788190023,42.89519343448735,43.43583289305166,32.61753745601905,25.528950840640647,25.679817992898634,22.5126253410956,19.335585540317798,22.469818751077458,24.316167670382654,25.423015518740662,34.59908157701261,41.24808116263496,33.82354173930942,24.74398507820241,22.43416983061011,21.23063673045224,25.0048753955107,34.41732465965506,35.304594763697175,28.73384052890262,28.212274345295278,27.904439424110556,19.897697047555184,13.0187709671678,6.771750657629097,-6.44707501367777,-15.463004754229228,-12.140693855025965,-8.997187873699001,-8.259661161647333,-0.38380668370113646,7.152615116484285,6.633329083984769,9.07885142932457,15.752478936238754,14.414849811720678,8.86348332972747,6.408191026846009,-0.08884161297308069,-7.548742254548423,-3.631969619050111,4.129306432975939,3.5384330317169232,-0.8142606685507234,-8.382807423756423,-22.85181539482877,-30.406839785872194,-23.6898597084312,-18.882765556603644,-21.193010179875298,-22.614485901714932,-29.29682038449115,-41.62477014720851,-43.16590654381568,-36.256606383533374,-34.90436616253234,-32.742297726783534,-26.00457857786856,-26.276225964609665,-29.995206508193675,-26.67180309657614,-25.284832415279695,-32.33327268459317,-37.40461113489002,-39.71940680109659,-46.73821647465632,-49.89624571474157,-42.330256556334675,-36.84686068560806,-38.36748573372011,-38.480254994436976,-42.292130291715715,-54.0460990588909,-58.497271893789886,-53.08003580236363,-53.54004032424545,-58.72557363767416,-61.587251429340746,-69.6911643982187,-77.07807756492375,-66.36591855296865,-46.72917296566176,-35.43912503827838,-29.296930835527306,-29.28737354348024,-41.0824650495871,-49.026681857937376,-41.31994392794857,-31.086988900317053,-24.140759001933272,-14.110911345585496,-7.898669907975298,-10.618590899145406,-11.12414908206468,-7.536625618042849,-8.4901570110519,-9.687954243990118,-7.589586236089854,-12.65460141798549,-22.83900325812006,-23.574327601560142,-18.720769553973028,-18.648473973644172,-19.159645739437856,-22.006241401161382,-33.65409856144645,-41.00286527244774,-34.868603441390846,-29.91119065793739,-31.77229333428083,-31.8758376113973,-35.15607085517883,-45.09893755266145,-49.573600997882195,-49.36700080119559,-54.3373704246876,-55.881616332679066,-47.71334296873812,-40.36929039322537,-34.25971627595304,-23.31773156015897,-17.3166119867501,-23.394062866815084,-31.318585329491142,-34.815606927263254,-33.63432293520333,-19.041665100381586,6.879117949488062,20.939664188091157,13.460346927726254,-2.1628263816611404,-15.796944926726482,-19.284726818510272,-3.5790744495026967,17.031549067630202,17.688527158524707,1.8258508428636562,-13.582827533849729,-24.30628076656488,-22.768976135286614,-3.9338816261706233,11.6627082422164,8.756344626509632,-0.0297737963681306,-8.021837960385058,-17.602404816324558,-16.58174710673549,-1.9224232408162951,7.653750878110431,6.561190277183536,2.987077041162846,-5.153828819495354,-14.463658091114473,-10.456176278671546,2.9174759299013187,9.930082171268847,12.863533283108353,18.988773599861805,26.235958310955173,41.93080015866489,73.59973134518907,104.75687402631898,120.20109890967257,127.72547625483523,133.23274158777232,137.96615996491778,155.06545751727072,183.77959302192835,198.27755417707073,190.7107139434188,177.61378261853727,164.52099022329628,153.33812144574156,153.5568884428391,155.95168433727295,145.09981832585993,133.78452853524922,136.3684272424531,144.26466852797006,155.38805206149067,177.10185744700942,200.75677618155396,216.4915233689407,226.10812874589058,221.18375254127642,192.7643584818807,156.35383623919438,127.07789758644367,99.94869662348083,74.10395323916435,54.96751770681455,35.25744769194279,10.372454666407478,-10.270459930851768,-27.21575050132211,-47.175342924904406,-58.49271262201261,-53.45077252382201,-45.884814586002484,-38.188080506541965,-19.76618644508138,2.268722267220599,19.337718455979555,35.58588757469904,41.06170664865773,23.155771187192244,-4.001725499253898,-27.03719589070515,-50.01434955859065,-65.93886854610466,-66.55882245768261-67.69724354695478,-81.03060843286164,-97.45883383818438,-114.98258159718699,-135.65672788723887,-146.88896427136444,-146.23181950467082,-150.96675864692133,-162.82002079856773,-169.08490061377393,-173.9141783031923,-182.99715174709672,-185.87237825269838,-183.45649660666032,-187.72598226768764,-192.19221807997533,-190.69844859478576,-196.18155868615426,-208.95158503992047,-216.2978825747905,-222.469098710084,-228.82070990334785,-220.10996386243139,-199.7977488982445,-186.31465980371274,-179.48576039399154,-176.53820858729227,-184.76784936788994,-196.24750173416962,-198.3618230521562,-200.06270571073844,-207.5349189310723,-208.45015919930432,-201.424703679122,-196.39271751482835,-190.35336007454632,-183.34158582584274,-188.06744139961648,-198.65967661527475,-195.8323076274304,-182.65046117707368,-169.36335045172427,-153.1401134120169,-142.58132367796037,-151.08195177554313,-163.52792924478484,-160.3124394355284,-146.3560191376804,-125.44921503831917,-97.28313089934059,-81.75612891873963,-90.69410916295351,-103.3001201221141,-104.08561033780643,-96.0726301989098,-77.00777515699177,-53.96033841591206,-48.75585236199797,-58.364540880113935,-60.45924741320974,-53.955758470355605,-45.774007243926874,-32.87617555107121,-25.025901357244933,-34.58879400307408,-47.226694912213596,-48.46484601312763,-45.7572660919208,-39.81738775217741,-25.02300687280891,-14.98437258181487,-18.356438093064337,-19.892172237226323,-15.06504699741187,-12.772737361388597,-5.240048909507319,12.754561977590793,26.350508987514974,32.87958853719984,41.61181330818032,44.38356966435731,37.20915138506478,35.809091649144804,40.333120533427405,38.692314018928734,38.437172124799716,45.839210221614,49.73829456093607,50.252469248467726,55.189997818416764,56.4698481336427,52.59448872426792,58.730046967050626,72.04983332569782,76.58724323446908,76.49029286998291,78.99410544515007,77.36426471483144,75.6803683770768,83.11347740630075,88.48318980366146,84.51508308546742,84.81550277911919,91.04592647667144,91.84781676794611,93.0295311279334,100.40413736890106,102.2021004566297,99.80031664529002,107.30773342249802,118.56140270949834,122.97266255090052,125.43030527408108,124.26215325540026,116.60999309141484,118.81668804201689,138.27204643979826,157.48133253903578,165.4651335304221,162.84704072941713,146.26619261960852,123.8589446855311,114.00665426446439,115.0132174577956,116.69673963021161,124.62883608968328,137.27703282059815,140.09673878580742,137.4832456021749,141.3407329803071,142.713674755931,136.28929172698588,132.81004188046217,128.83104812782767,117.75027802669831,116.82240768734121,133.6443023728746,149.68156114823387,159.5145151194892,167.89600405622383,163.5885173809729,147.04908636832863,140.3415951907082,147.33658981993983,158.76444013724984,181.65843069704763,216.30405435164133,246.36294777536943,273.25100672955324,306.8720928583465,333.79677555131565,343.86198146877416,349.1501732586221,349.32152607922774,333.4756655698259,309.1556781150227,282.0504748727769,247.72187176067789,221.5908794060271,222.5690043599732,237.47255560183942,241.01243622882578,221.53299542522578,173.5720138363215,105.92064276863059,50.24932831456961,23.032047938672704,7.041998561799445,-11.080580141135169,-33.3116924957158,-68.52659666461503,-110.6256313009359,-137.54067701493287,-151.21676649474517,-164.8500284847231,-171.64085354075834,-172.13052896118205,-181.47514427920808,-193.85086387624943,-196.63505516166833,-198.27385574737892,-202.2145898079109,-199.13416517384513,-195.88476955253134,-202.38847717737033,-207.04852980369688,-203.55111848256382,-202.61802786034957,-201.17670245910864,-190.59525586428046,-181.7193332515075,-178.9779660077022,-170.91439055778366,-163.37586107844214,-168.26640682791066,-174.10060422312915,-171.3445604497257,-166.62702304854827,-155.24841552101108,-131.41481282748876,-112.60896990056227,-108.86736243706956,-107.00059561236408,-105.77555889164766,-110.07545462576763,-104.35090883862318,-83.44715490056218,-64.89507056571316,-52.60040996468266,-44.46708156844039,-51.244142813766956,-65.95068523512845,-64.70095158011284,-49.27724723430951,-38.38654327457367,-35.574034297839106,-41.54859274088864,-58.883226212053444,-71.32428490467275,-63.05813358257888,-45.254924041305486,-30.99192554474937,-19.496023146642194,-17.933840004102457,-32.15398212609888,-43.93824148257089,-39.32222219247738,-27.61461928736535,-13.23971309084996,1.1313955112363319,-1.5967315813112337,-20.340586393495222,-31.691014721185397,-33.026991981312804,-33.802991501207124,-26.98603881238008,-12.418415707878726,-3.871937351554858,0.36146829810541575,7.165888662402572,7.034508944134934,-0.22085632050607895,2.0137453717184868,12.42279430203369,18.842933579237137,27.36669256767437,40.93672583778014,46.56318084703053,44.71254716348602,44.9446248934688,42.18511258977435,35.857075464272455,37.37389987613942,41.22234729753636,34.88061831036303,27.47662794041451,28.746492217291596,31.964413337761304,37.49755956262252,48.42169912634647,50.15579795045382,37.69219240748653,27.839198745553965,23.990101323634082,20.18780110443633,25.271658693776658,38.72323112360675,44.5056558151942,44.58842695235755,48.493882483004796,47.98721251666224,41.29476933756736,40.67947849183135,43.025269125333715,40.68522080786653,43.22739724027558,52.09694399203951,54.66410331476185,54.1153044423458,58.0796939859558,55.52011572303543,42.31482715436783,32.83263578996706,30.205849172753553,29.395708690839825,37.821448976811276,52.50151208313487,54.011266761823386,43.00346616582986,33.319285978609614,22.343154681208908,10.829881736129792,11.12188161479848,17.729258608291907,19.072235806578842,22.393838712326016,28.525557201215946,24.705496816481983,15.832187105647922,13.56515671185991,13.056441659586499,16.026561890442547,33.87836079863223,57.16134775999164,68.63599367057483,70.91367058124881,68.27025084247629,57.53541664541511,49.33694597501234,54.90098483377977,62.404519704706885,61.50764230901224,58.96045351656957,53.12083971998498,38.07561299388177,25.189493495618585,20.393467154654356,13.949187327678908,10.326865046839853,18.727854593872888,26.392727077305587,24.62022075090427,21.909238979197987,14.632002794265922,-1.8030591809068461,-10.18523883777275,-4.7892184296517275,-1.5328885573029603,-0.33723043510536793,6.112363020867049,6.601912578108389,-2.9485961773725284,-10.857257393192768,-18.491067238020786,-31.071311001360392,-38.08812286245249,-37.48776181510142,-41.98358919964007,-49.253030362883976,-48.27049249858722,-43.4885381442122,-39.92813299253075,-34.39013282074189,-34.5309692784061,-46.856865111317624,-57.12979405912025,-57.1245579353076,-55.569513445705525,-50.51751453568842,-38.6032221773373,-33.86724619496868,-38.530789852041494,-36.8852247138663,-29.963078443918903,-26.46543081137633,-20.31756982076339,-14.859319665902238,-22.835823193388446,-32.94471917796108,-29.51076071742647,-22.907493977210898,-22.048384308344946,-20.21617437247737,-20.176374457096156,-26.248266823452994,-26.420507262306835,-19.006033185398117,-21.02351134197718,-32.932793145057076,-40.96856605092906,-45.024821471879335,-44.10116804478679,-29.991037501289266,-14.66077943157606,-15.746327808801139,-24.956930052132236,-31.261556881515716,-37.24142567009997,-35.87697341115041,-22.760168035565734,-15.80707810950036,-22.396676587480133,-28.745698906780117,-33.474186026120336,-41.76914680353216,-45.32260242359605,-45.1101803486203,-53.383330875877256,-63.685388596947185,-64.48975181877515,-62.823720959994986,-62.11583308158148,-55.17307120175201,-48.070789730498234,-48.19254027375357,-44.05306132662361,-30.889595505866456,-20.885041791184918,-14.639855371831315,-7.192492646603284-8.478870085658635,-18.70954940713198,-19.79978259177307,-10.834863170484024,-4.60545359418847,2.0765752124071364,9.778244395241718,6.399373972818372,-1.47024086313415,0.09648231943550711,3.119915665634159,2.217586216881736,5.923050994111825,9.502103322102874,4.966462124639523,1.4923244528944886,2.2427389138290494,-0.539504855297116,0.8229712126284319,15.016223642998892,29.175392224767727,35.46093594526511,41.3600770749845,44.18094049536104,41.3347965220682,46.056155950171814,58.12966369243516,60.90099483409048,56.70505709540115,56.81332296166058,55.327546361095116,50.19036568132743,52.072724646049934,60.12590334573804,72.12088299047996,100.19617766830451,139.48954517604028,163.61356796660073,165.74705760643548,155.34631446141753,133.84559370329546,111.39169970544982,104.01690849760904,103.26108858394318,97.05991498416523,95.4249552397749,98.79665573049344,91.96592947178804,78.24274344227456,67.77108482726935,55.71308916870794,45.6249103575139,50.09043245560669,60.69910769744977,63.32127636137508,64.12724044997849,67.91642431480273,67.95867878098953,68.20882244356005,73.28434627625056,69.1390395423018,48.48948149934685,24.462706066228307,4.248703839695768,-10.5948369022253,-9.423942856240036,5.07441092315937,12.409500429598955,8.689626316563608,2.8800326600089683,-7.940890241602732,-21.436364934533998,-26.541417840064497,-31.025320432829687,-44.41965141550932,-54.47326918459715,-56.73778898162075,-62.13885141100776,-68.36670442996387,-70.79675741851925,-78.22934380889731,-88.66585477548499,-90.88403747432466,-92.3766578555121,-102.15455019881463,-109.68719252995594,-111.41472460056102,-116.42917644971702,-120.24795152610596,-117.45610919026106,-119.74133773817084,-130.42162358160655,-138.7455698416226,-146.15054767332407,-154.8377485620522,-150.7511666136084,-134.32156603695424,-125.72813520689496,-126.71318315398163,-127.63095553044828,-131.98460551241902,-135.85329210685487,-128.496648454202,-120.56255419316584,-121.88215411486405,-118.17721223996642,-103.02800488344019,-86.89686976415382,-69.70826703836265,-50.81113702094312,-43.753018704259226,-49.1936635831987,-52.43599602261172,-54.485604425174955,-61.26406423798221,-62.725211119448595,-56.72743477134068,-54.37772446735018,-52.87888755292744,-46.95856080211321,-48.57001150412921,-60.90069291240242,-69.75781634010019,-73.49357018998438,-76.84923723398273,-69.85429806867391,-52.665669191256285,-43.1890572616361,-41.78074932897041,-38.22566650456348,-39.57727233647113,-46.72170449842739,-46.22240912646525,-44.084514450812435,-52.13215065701206,-58.9723716369332,-58.21232740792327,-58.782005273255876,-56.362944612364345,-46.89261062488657,-44.42703701533778,-51.14100146960219,-53.25030920835403,-51.72983084858641,-51.76600436669281,-45.073319974511286,-33.514694160441735,-28.625735110965273,-23.232784012864073,-7.513372027047291,8.757818545903637,20.94762755920079,36.72570980603399,49.5900392993559,51.24455895060512,52.419544446404544,55.184686109596115,49.05568253872822,44.41141052542259,54.667951652379585,68.29592608772266,77.16928934150269,85.5814840569676,85.59238679278354,74.2448187487154,69.6708433585635,77.53291910566794,85.28370818074194,91.67405531343394,97.11091799129589,90.22838391292034,73.91868506737316,65.39591811188289,64.79476893356258,63.86332719120402,65.92897745710943,67.15247558021696,56.91048950941888,45.145877113562086,44.4966789025311,44.65884752753374,39.26796049667388,36.78809774823628,33.01850454997422,21.24777202752528,12.707727485263224,10.346820505131138,3.711554845305814,-0.5305968894713182,6.596351137693232,11.998891996108895,8.947822439063852,6.48495124881204,1.2338525907806537,-10.086335385610607,-13.633034683054523,-7.935686619530031,-4.868341078627156,0.0069203971488212,11.17575189690941,15.832812348535896,12.166605292562512,11.518776606024003,10.044110601863458,1.2005814672281967,-6.035707026641338,-8.857073250280227,-12.542359974360087,-8.279034327401963,8.313783530332781,18.29079290378304,12.256040155108884,3.1891187802941756,-2.441459135298679,-1.4733979519366731,17.103905089831628,45.55054699151144,61.41633012945631,65.49647906491992,70.81708484068022,77.09088359781961,86.23535182600587,102.92306030288323,114.34228966329925,109.55685417659339,99.84755320883683,93.41619634007661,86.8099919390377,85.21397519684113,90.6939114441908,90.49627600507125,82.91242378966899,77.02948899490329,66.84798967548305,48.27276669317156,36.82140067880879,38.214630450312285,41.253860812226065,44.05616779994472,45.559788527848326,34.01778165954524,14.49572109262669,5.786068404941695,3.66591482790648,-3.2829990982630033,-6.186265148952176,-3.044364213366631,-4.608287871419056,-6.028640049098367,-4.6958137060155005,-15.127072396806335,-32.58643304347374,-37.1146710167337,-34.10687839987122,-34.52998601273287,-29.72743078871369,-21.744599403662605,-22.327451943181085,-21.533805289346176,-11.429079720392934,-6.6021030659511695,-10.746012219533432,-14.768032448129528,-24.690186272190328,-41.717146033845715,-46.69950063492382,-35.36212342615864,-23.497554566030413,-16.107618889936617,-14.541236750276497,-27.615680118143185,-47.52046542486441,-55.48968474556355,-54.51771700164919,-54.87574754933243,-51.252084501579674,-45.799067021399495,-50.516390773344725,-58.15127780507966,-58.69369877774477,-61.74192963613566,-68.16374511421287,-66.60065859774238,-63.396320045738314,-65.83339112251777,-63.471642951187704,-57.759550293177654,-60.427112349903425,-62.96982258386884,-56.3015602684193,-49.78765844990907,-44.60171611286231,-32.9460309351277,-20.638808458659415,-11.34148446662546,4.617732920376914,24.275893015697264,34.12322189359164,37.28225399449096,40.93550097304136,38.998814892164184,33.632536935830196,35.73009608854032,37.52276040114789,28.419539222183317,18.470516962308064,13.782183763201303,10.186147943040378,17.12890331472904,38.96506100852176,56.23740046629841,60.85522540721588,63.013483667373485,58.69500109063993,44.65095773183466,37.867808864575714,43.088918919774244,49.959252454422966,62.884389576836426,82.03988118458689,89.45882263410105,84.23348509926586,80.52012864644176,75.84675102280029,67.96441541295984,69.70270021094699,80.83774092188185,88.9281637219573,95.06542110433747,100.20334404215336,94.4426181090349,82.8194631655655,80.40856355209476,81.7991096484888,77.02191156953384,73.28798446875496,71.61536696820025,64.37277248300404,60.28570133735108,65.53381261746189,65.9723620233937,58.98871549683814,54.81148622632857,46.00091828614326,27.536031517476225,16.162547511010068,16.40077123612433,16.87548202350186,20.513877954835582,27.78745363820198,22.048739437097538,5.058656852267157,-4.279400072689133,-8.274078742689891,-14.876440410891119,-15.249998466944735,-10.715152616919582,-12.13506153604069,-10.296492142811951,3.6695167612740107,15.1210390609742,16.33009921734954,15.911915590977857,11.569290560366792,1.3941746010977631,-0.21898317513402077,7.605428987351814,9.620390969166772,6.786277099566148,4.7490789544281995,-3.09785090638629,-11.63465571930239,-9.31031847533318,-6.5565141546477435,-14.207860862405065,-23.62635541203617,-32.1599762975019,-42.254176995077415,-41.52579449466472,-26.24570768277863,-13.030506289949852,-6.384414918348698,0.7138512582007221,0.9978480451772047,-9.459298164197829,-17.385727318452407,-20.346516613872648,-26.53294797607029,-29.75947451199339,-26.644784127836253,-31.10648265833098,-43.165136907610076,-46.73858160546634,-43.34225913775379,-40.75430168367943,-31.609175323689055,-18.876676355751258,-17.029839999755573,-20.158021927574232,-19.618218922261924-26.30462184700809,-39.93721691225376,-45.22424824470502,-44.71165658156289,-46.776574122092114,-45.48874846471336,-42.73319725192737,-45.49175616571034,-42.27647689371388,-27.957019382211655,-19.493829217034538,-22.184337282928134,-26.032072042803723,-30.48292422907005,-33.60438122852703,-25.113289394647424,-12.016178378962996,-11.032412778014695,-17.680764809146815,-22.930380812882962,-32.97910245540433,-44.354069379582185,-42.38212514167638,-31.714136741657686,-24.431841040756236,-17.067320872651532,-12.383084721848897,-20.84584375935498,-31.496176548106494,-30.765587611067716,-26.923967308010447,-22.931185523116767,-12.316742707569468,-5.708758194864465,-12.383158419709181,-21.055413053098682,-26.653903926703887,-32.60378776394283,-31.02520984883534,-21.780171168902882,-20.698831816080325,-28.71354627346841,-33.85944682078721,-37.8623375683035,-44.59936306500432,-47.689183486067975,-49.37081984812038,-56.69810641020427,-61.68975011517928,-59.45633333742316,-62.14477372514588,-72.39440351549013,-79.61146770179474,-85.28047966575866,-93.45801106228865,-95.81834520096297,-93.33950376174201,-95.41626060404525,-94.4187243748913,-83.10997746366507,-73.05204246852423,-68.06594096679889,-62.144513760844305,-62.745224054383506,-70.7681614733084,-68.71462620030223,-55.956334443005815,-45.37617646362559,-33.75252140645067,-22.323703391152087,-24.80808136978777,-34.26225302125559,-33.987799445523606,-28.596445830920928,-23.168294568157396,-9.85404473663883,4.309008853639009,4.1828167199312905,-3.437999976438772,-6.903086269894606,-8.815923921265822,-5.0490207467166535,12.93853763651834,32.942544352093506,42.771472017931046,53.348622235732414,71.74744890479322,93.43996265460183,124.06672111637683,164.27462368592217,198.27131779943528,224.80387724066162,254.17446402168017,274.88055793486245,272.1905040231233,252.93380190733058,221.25546663616936,177.26761567054083,139.15177271371718,115.58692190518869,89.05366551233895,56.73801354508605,32.18836804694698,9.046478371768092,-20.285867480904706,-44.19186874143488,-61.88432577088939,-81.80632359733006,-95.62004337948926,-100.74868566114523,-113.66388429458198,-134.69194861742142,-146.64235378139236,-148.8888916132335,-147.75554074419063,-137.35343765110665,-121.60821009228715,-112.89063599129591,-104.26827961722277,-89.34085331047986,-80.53114594093753,-78.30500754370982,-71.58425983867677,-65.96345362617932,-66.38202506687637,-64.04353050013302,-62.52477869027629,-70.16118043499159,-74.86490323171154,-68.19237125382689,-60.19239349618522,-51.59498375656622,-37.78910319111484,-29.9428564480107,-31.579128204821533,-28.45776178760162,-20.791768276490444,-19.64102344315875,-19.46984927144532,-15.038488318342011,-14.722152148983813,-15.926249564294011,-10.319361658727457,-7.9893066537023785,-14.34238303149069,-14.124422060582667,-4.207595120403373,4.311818679659721,13.548931933689609,23.99471388702823,24.42343711402251,20.30527190665646,24.23442970306711,25.599194488138224,15.9576379380804,9.12749661727383,10.274658477345323,13.334729466939917,22.660475633765856,34.86563775534269,33.59262429259182,23.146410938569794,21.626660760295245,28.165197966975754,36.21043212858924,48.304102843186314,57.090000853247396,52.871760417806584,46.17244820258768,46.33982897918579,46.28049092271247,47.659650618902965,56.631206251274165,60.59851686680826,52.382288743137075,46.48550786566222,46.64417530151158,44.40697718493393,46.189245978410185,53.4826040119002,50.12256659595894,38.29445763686421,33.602417407872274,29.30688787916439,17.997610460941367,12.439889621525396,14.745096086139512,16.29911006521188,22.935722723761,33.04316896417101,28.24680501196628,10.243129394009605,-3.2724793493977993,-10.643938132189028,-12.562556126418595,-2.009490158659029,11.380690978241704,12.668743355236469,9.156995337677866,6.913948262382503,-3.093166753668506,-15.789457937895115,-18.270657325630268,-16.303225441126706,-14.5885889401018,-4.899568079966015,6.110350485010415,4.2002708172218925,-2.2280142394744065,-2.672713735362044,-3.144606535808988,-0.23875760819029535,12.74746021294041,20.427960084426388,14.276404194568826,10.121331817716918,12.279916127048926,14.303407522122376,25.166972460296865,45.3329803395923,57.487593631581134,61.37313011512767,65.39643517540574,61.822636191956605,52.60990251484611,56.58029506184507,72.8712584819632,85.60441567574952,93.29334644102258,95.25637709226079,83.83947810498202,68.17537591112378,63.47622106524352,63.70896864345575,61.20539748165936,63.298438684057416,67.29518686168588,63.04128527403881,58.15105748354099,58.59224476102102,54.49112636971978,47.33736330544694,45.707295962965404,42.93715794560825,37.655295203741915,40.74290284204405,47.18069136336564,46.69701307459901,48.499399453684276,56.917497662039814,59.60667433294557,57.29543446128697,58.667415830958575,58.44076061551482,57.664338427257654,67.10889846342188,76.55571056430153,68.81761102320732,52.486685308482876,41.13140381971368,32.46801575608666,28.997309202064606,36.08991752782635,41.07739330464346,34.54454058372663,27.145431970639613,21.43273050890734,11.032084219860478,5.3101300239885685,9.298936981759601,8.576204376568985,0.1365638650619343,-6.542999979676213,-14.166181913273235,-21.059303032531272,-14.714273224668158,-3.637748558376031,-4.634538184408459,-10.29674398527301,-13.978982149134204,-24.52248094542152,-37.17766261874275,-40.51690902443588,-40.272023589099085,-38.73614853191885,-25.77875061657273,-8.283447789855423,-2.611156183291433,-3.229243376052227,-1.1172902618915292,-2.8697803359475125,-6.558794586820329,-3.8649993299173104,-4.399493770742456,-14.329592145846739,-19.843059940782123,-18.367627739692768,-19.515177737949067,-17.88357427995973,-12.40553012694923,-19.121624858685937,-35.53778632177447,-43.5050808333534,-44.208574432211854,-42.29022345987371,-32.04471841849236,-24.136317872603158,-32.892315585347355,-46.30863320089489,-52.7469535395556,-58.5804494898608,-61.47503565847804,-56.16226697926234,-54.38998514631325,-60.95116875951704,-65.45834341262005,-69.7732563201235,-79.54612697599525,-84.3042373440345,-80.63109250657482,-80.20802226840118,-82.38351566433525,-79.8872147985637,-80.07013744448346,-85.6055376006604,-85.34365001342218,-82.01564261655928,-86.25506937317776,-90.14403040702734,-87.53090257806568,-88.22090620968847,-89.27329713144363,-80.33571486762283,-71.36638070644446,-70.48633983197797,-68.2218231747805,-65.33161929205647,-67.27131088001096,-61.759657576909134,-45.03187804233152,-32.718058779726164,-27.327906653289425,-22.792822414038067,-26.64031692299087,-38.18602529632429,-41.89618072372845,-38.23784228524595,-36.318321401988925,-30.403885983402155,-20.598092712969727,-18.046927446379932,-15.771988227354086,-3.184052797816451,6.427304535493784,4.499823069140707,2.8037792829802637,2.3062614453644237,-2.0686564964571303,0.6336214607593684,10.130927503349678,8.235746348444167,-1.1007179335592827,-1.5353071474649207,-0.18594206278020053,-4.880737669011009,-7.190757371297832,-11.37078129212084,-25.456776908417766,-35.453007464005566,-34.879905961117316,-37.54318189346154,-43.34271294453775,-43.64364263083231,-44.719978449425554,-46.996641590254995,-40.07025267614668,-31.63474349243804,-34.73590143546456,-41.097651045463415,-43.59093733083161,-47.912951797954555,-49.28917368986716,-42.632681266575915,-41.556550494650715,-51.619609504558966,-59.22783941760618,-61.418416269786874,-62.29719481946732,-52.332848505274825,-32.0864392226053,-20.21420882263996,-18.777616742905845,-18.314008857649004,-22.84170767714025,-28.99520151199515,-22.05238323220591,-9.177396999860633,-6.3005265440406015,-8.122202957483086,-9.784076852355792-16.605073451464587,-20.065972759782277,-11.595041988023691,-3.488872465388279,-2.561189854206866,0.2238422221217351,3.672742434131082,2.427860073620295,4.770980255504234,11.986979031565468,13.027842398822518,11.219479818369075,16.491795380665486,22.780916083467453,26.456069597646927,35.40337097670145,43.9974560500449,41.83742147647577,37.763297728298134,37.57312777956358,33.56028891768061,32.127516843706715,42.55913218289849,51.912405035336086,51.0436945471704,46.804275253235744,35.62669168523988,13.44830793887381,-5.00472836687965,-13.124394368324737,-19.74533497378792,-19.73370611456749,-5.231613808972205,10.81044434352441,20.155228558713965,29.630390941335865,34.382305891700604,28.680289453736954,26.398291558609035,33.70659355184393,39.37913237675775,44.065645947003446,53.316086918233594,56.012597288554446,48.16619990919206,43.53934583027885,42.13609472513633,35.317908959956924,33.39084489542195,41.73796350232442,45.774619876626744,43.819083659901565,43.16193893263229,35.09208768789962,19.22063975690846,11.295758821908018,8.406473309895519,-0.6497550317854874,-6.574743755582097,-3.647956822243752,-1.5360546252819547,0.3771517281437391,5.251828498185007,3.840366183085219,-2.1661141799099033,0.818528771876724,9.503164468564643,14.395670655755097,22.024254830260595,35.053566671225866,43.606121007783045,49.00054912587624,56.800693670438385,58.730703403484355,54.92462000864869,58.71936966802625,64.90382868452267,60.54883119362306,53.801166306964035,50.86596835326329,44.65258155275039,42.49216733420032,52.51977203851666,59.31027754125993,55.02154327224264,51.11574406866717,46.517508440156455,37.14910903228246,35.97158273589387,43.57665881179053,44.65310702343891,43.2107100047648,48.772126924487594,51.25469496475514,47.507384617126434,47.33206418375923,45.29157076928485,35.70223103378531,31.984772581112356,36.82439854409763,36.93453011399481,34.66664832524646,37.512629685922946,37.051886954549545,32.571272623130895,35.18104686229524,38.53162518879439,31.74155102499398,24.39535556291002,22.13726630510135,16.994191685819153,14.745360275916795,22.367908126051322,25.865412812262583,20.262831280824255,18.76650433501466,18.96462009975721,12.804308078661823,10.206171812190767,11.555618370464162,4.356035576115826,-3.014729557248446,0.3669567112761962,2.7419675311804634,-0.32097219818598877,-0.49542296231764404,-4.628584323612039,-17.306913815115657,-23.10181476538127,-19.061051503343187,-19.123853558670024,-21.23644524267415,-18.387629001559596,-19.85817157561016,-26.325735907284532,-25.312630751089202,-22.642783769808435,-30.2670335299142,-38.12590979482709,-38.27510137279912,-38.854137161218,-37.002116969170125,-27.97819925933035,-27.697424377976162,-41.63659127065733,-50.67072908170399,-49.261082564316006,-45.23635751028665,-33.871274390336005,-18.46480471753783,-14.290583975770009,-15.153640400282326,-9.540530540861958,-8.230538303940758,-15.084047523409078,-17.018670889561307,-15.491148938483729,-18.374949362813865,-18.84115073672926,-17.628700536376968,-25.489170068118856,-34.57646912164602,-34.82312027090265,-37.590508855518145,-46.42999304353336,-47.47029348292415,-41.325888880577736,-35.1448247308195,-21.8819415091084,-5.479006346870063,-1.8207722346146893,-4.788494792122811,-3.1792833285541815,-6.28429498087606,-14.749680005066,-14.550240278046491,-9.091952968571691,-7.195325271324078,-3.210686705822162,-1.7193313392577556,-14.825599779562086,-30.2877414228787,-31.86864854298394,-28.116344998888245,-27.94220369885154,-28.31591106801847,-33.79351298614008,-44.80333182471559,-45.46528727427554,-34.66794577853592,-30.117739684951797,-33.511498689114376,-36.01314036351726,-40.461741717982065,-44.8835375723541,-39.83593220655584,-33.107542107340585,-35.46341569534226,-37.929308286087775,-35.71643875710116,-36.21495321726474,-33.50474289284287,-22.014076969480385,-15.503936116088909,-16.57036039452625,-12.440939541313993,-7.6409632897531985,-10.157801283076692,-11.458783597868802,-11.135598839717202,-14.688776818419111,-8.646110097572889,13.950396790626785,33.895152530270714,40.74982017359865,40.2571416743926,28.751908242024314,8.448637339991299,0.43636131151003443,9.817016430511671,20.82447501901358,31.820571581137305,45.99306869561668,50.0389900932894,42.245888951329654,39.097027582801466,40.27652969114774,37.58918488365475,40.79742684097024,52.53166929599547,58.91107889012396,61.45171792657352,68.3289369751339,71.3872068938617,70.72680053547764,78.16609885727038,86.24756974073318,84.17127390728703,80.30390194309226,75.69953527925216,62.882041445761594,52.77923781171339,53.74602408911331,53.0303374668796,48.395282381875184,49.973628816388455,51.1376073252306,44.546954229121674,40.069668832176006,39.05488371541104,32.700122711768934,27.649822812451355,31.320069013084,33.45847240015411,31.479021050291102,35.47347950035661,39.706801493391765,33.65984511013795,24.674809130482323,15.930690504149002,1.83989774219906,-6.964648786137827,-2.4717905274857164,1.0599488861461668,-0.7170190570794612,1.5542449714513737,0.9190263511290669,-8.425079775609868,-12.580610477904601,-9.06860252573112,-9.285700671269858,-8.594329730106836,-2.7552157938388753,-4.703179009553168,-12.600785575337643,-11.291851690454621,-7.91934863756506,-13.95978583325863,-19.960387718684142,-22.53423069804488,-29.766406505319964,-34.36901161521565,-29.22086653822143,-26.6331229922268,-29.405577352729566,-25.384937770613384,-19.33761783572004,-21.785858261828984,-25.651228716949596,-30.480765377130798,-45.726386034564165,-60.209899596875076,-60.2571104856912,-56.71447287474683,-57.6431750270951,-59.263686769430514,-68.99718723305695,-86.11552742018172,-87.96591055500797,-70.3853113120345,-51.67894857199941,-36.07474447247615,-23.71022597856247,-24.14945410189187,-31.061762622153157,-30.189169826227086,-28.290755475902106,-32.255692448874036,-31.408440397146094,-25.503857233967846,-25.80709566288915,-27.746507232329265,-24.833394863084358,-26.144379795524728,-32.44228100470639,-34.80470871427779,-39.69552709990677,-52.088395443354194,-57.679861978207505,-52.42699538696738,-47.492481251797756,-41.539830028478406,-32.41284447114639,-30.79001101365759,-34.60233104822467,-32.46535033655282,-31.609815936436824,-38.86874866678094,-42.705340711195085,-41.14176662079158,-42.06918775997895,-38.33469602272609,-27.065938438027903,-22.934312464679824,-26.94966990072864,-27.421001430684043,-28.616419640048658,-35.296805674501044,-36.017540466934676,-29.59431081598379,-27.084385153085584,-23.789878672742255,-14.29577631318051,-11.542402969412114,-16.7239378368111,-15.330642648940888,-10.942676798124594,-12.226737515085398,-10.178070224725136,-4.643115102057223,-6.706508616572135,-9.13784294557753,-4.566830502778483,-4.774900232943337,-9.315819511484278,-4.438954003798111,3.9238505358529334,5.638484480654258,7.369640307253085,8.915128317376608,4.137476935945012,3.316254613322493,10.915496267291006,12.331947539359241,6.738175248049977,6.616426449296641,8.223428031121303,5.0011555254195095,2.4295056097733556,-2.166544878605655,-13.460220345035854,-18.306485365236657,-10.604721850184728,-4.883017506091363,-4.535295612175862,-0.24695898112871295,3.725167312599059,2.7889320573596406,5.656785881722699,9.49580987204761,3.8650251856355444,-1.059060511231456,3.732109204506469,6.506388835992174,6.262571224378985,13.265470476254494,19.476617129340724,17.774637465480414,18.965878547108563,21.666725062404602,15.945780754925485,12.205605751407276,17.457330421551518,19.164425955621315,17.317612045660187,20.080862502972774,17.325336988149687,5.077251992244058,0.04424910049581593,5.9376254597736312.673402316187008,24.138906678490848,40.87465609701884,45.88681655967105,38.22279704988415,33.54672330905325,30.783681262889598,26.435199336371745,31.915227756447226,45.52343487443049,53.63722040887226,60.46161891713673,70.4676978142715,71.21306147626323,63.661889243710405,62.29243009271344,64.67326015650337,66.99462061797732,77.68273836924524,88.61543316927357,84.63591221908868,76.74564224422464,78.06283417814437,82.03001037818072,88.564165808539,101.9835309760766,108.21108282181157,99.38590457935622,89.86410377020078,84.20924772106625,76.75630121208262,75.36175765682454,81.37965334922359,79.77600094799746,71.50565611303483,71.31766158597873,78.63117803008122,90.26972530385937,113.48855325521703,141.7898952680668,160.52349447918283,177.86231280120447,205.8339390107317,235.66577343362457,260.8843622241784,281.4258239657829,285.6157261437576,270.543952469919,252.668724785442,234.75413400634102,203.31761831187674,159.1031583410028,110.42263887352101,60.26719451875684,22.758657424557335,7.900381676819803,-3.093727675094277,-25.522449315498942,-51.95921792627452,-81.11792771172219,-114.99954658553567,-139.06734660516858,-147.177020804435,-154.88288082931632,-166.7741591385934,-176.21231528323182,-191.63841949637657,-213.17712372512582,-220.13718239997135,-213.10064237151155,-210.6551072218648,-210.8784414420823,-210.04518834038424,-217.84947788884398,-225.60267741171597,-217.97844520311696,-207.8843919876257,-206.9749469872202,-204.21546051672172,-199.89774701516555,-202.2270415832983,-199.32420642572635,-186.1956851958194,-179.37058270749478,-178.4768301526795,-169.15102847590552,-156.26534323777855,-146.1806164593087,-132.9136147418599,-122.98686590355214,-124.85123165473456,-123.56020018181304,-107.99380157854955,-89.11533015446649,-71.33509166214185,-51.76910091285005,-40.38464175479244,-39.67277709243135,-34.897940084873284,-26.288149561139598,-25.20607256947347,-23.464848811492377,-13.46817915447589,-6.727798260606938,-3.689082086624315,5.384997008846141,12.152139354732686,10.330123549826652,11.371696688243054,14.631816306015846,10.804349290816665,8.565789038636069,14.014158205375526,17.75319434765115,21.65385308037274,31.90539301192239,38.15487245430064,37.2274471292725,39.53614514043812,41.06176920686701,34.98840636297939,32.27817613310532,37.389793924565325,40.23300496097741,41.560617993434434,46.140881898300805,43.954520286941836,32.856358662265535,28.456259629369914,31.713360996960784,31.206735655678884,31.745875475925413,36.734613110721625,35.09964153029309,30.50518105887697,34.681553230257876,38.16374321727351,34.30491491281007,34.91897616023923,37.049392744158965,29.135324034046082,21.89497860135902,24.203334354458963,26.370645995467036,29.301993836828103,38.47484935895983,40.551308575727546,29.84150818678114,21.309692267309785,18.907011340230362,16.600513447790345,20.322004868797727,29.995144020756427,30.59128369901884,21.660732503421002,15.869180585876354,13.138592242019893,13.293002132881377,23.91796842599092,34.43710303703131,28.5897866803434,17.11708375154097,12.385592728366843,6.988899739048675,3.7818164848830573,10.826273673050071,15.059886652233363,10.480462066298031,9.512631724140858,7.882695129829102,-3.6487424189898596,-10.721454388583725,-5.610218024288518,-1.5325830079364553,0.23523774684507714,5.346339009680826,5.9657367976501785,4.193047557158051,13.742233498504348,27.309838719113614,30.0454623142724,26.698504275168567,20.22311356901718,4.627242371574235,-7.903457480694426,-2.586992276335895,9.139239969482336,16.518620223337454,24.75754477354915,25.669566958271222,8.288002985881532,-9.382967588757017,-10.012485012702028,-2.723937685329868,8.265502282803254,22.865373094247925,21.1293545427864,-1.4994681957753944,-16.762053662611294,-12.71768420593093,-1.9275121240808273,11.086755033165693,19.016457067847675,8.282933542041608,-9.640985556399249,-14.28004518721754,-10.785482543844413,-7.445176783093764,1.239417164302075,9.833281024248762,7.357232938157006,0.17595442184902477,-6.379701700276747,-16.45111127778762,-19.638672236395394,-5.199910509196817,11.132718535680624,14.109764799908378,9.303296095947626,-0.5824534158749852,-13.917018035581057,-13.734450546049832,3.7782918138246036,17.558634940409664,21.923333329470783,29.2113618581558,37.80581239876861,44.04308541137039,53.80268591741669,58.99865295884547,48.90049174404474,36.6272693354842,33.05727190471263,28.500349826522655,20.4800118881534,15.229067283681514,9.053747565408443,4.44930633860194,11.443858208348132,19.509275539527646,14.016234549244494,4.886460682004251,1.4044741132527874,-2.9433296644013813,-6.046662818453614,-3.0984027425778358,-5.760338066739449,-18.24485162661558,-25.999190264684643,-27.524711944036724,-32.092985317743484,-30.484914760800752,-15.925515073718746,-3.2749570134366413,2.2457800262064858,6.19786259106817,-0.018295190697897645,-17.615410122921528,-29.708721295695106,-34.400311538035815,-40.26279736245825,-40.68370561217301,-33.65582860405259,-31.79789575558725,-34.175735479430195,-32.153481270813465,-32.10821145661051,-34.86276334628036,-29.37135928698276,-21.79676894882346,-24.111336595068586,-27.318342669991402,-24.368511370312667,-23.0220607330358,-19.48687865737344,-7.846151078832767,-3.093988259308761,-11.860827249280149,-18.732009962935173,-20.398872734374912,-22.34633597893376,-15.401704327760672,-1.057150427792216,0.2617117940934104,-11.0727538287816,-18.459715780404185,-22.7813498048187,-24.10342560752583,-12.264501701726477,1.5477577859705707,0.7911379529903493,-3.8738315833307873,-2.928757395508124,-3.5776501282632025,-2.057303749181558,6.976543941479166,11.035596331499354,6.844193096325169,6.99773866894153,10.75639226670813,12.189482320360831,18.91870005153885,29.722670833075338,29.534165848003273,19.171673595831237,9.788609211972876,1.2642452890140912,-2.616930827999948,7.38009377883322,18.602307882865496,11.662578055311881,-6.319816433571773,-22.712099479911174,-37.41581168063967,-40.66899340822903,-25.915329714915586,-11.669940230313088,-7.414329121677475,-2.2178995416424443,0.08866597134800802,-8.489620433000535,-14.216022533031126,-10.598684651127176,-8.89784992113326,-6.5865471198397625,1.0520225629234776,0.9203877170744943,-6.516264049079381,-4.260646220787817,4.975610647941448,10.686751178131694,17.58620031664094,24.145100698845326,20.318796816928394,12.024714701468621,8.239672536210566,1.9726809225649893,-7.495103572133931,-7.9182118020483845,-2.9581965740452203,-4.774529796923773,-7.402863672451029,-6.583144981244461,-10.819996780373616,-14.348625893743685,-8.217648131271488,-4.5950532433615905,-8.53773179796409,-6.805501156009314,-0.22066937413641696,3.3856136794830665,11.753651389061256,24.63993633635291,28.64183240292763,27.841616376607533,31.72658645317965,32.187409277382216,28.16936303827456,30.714234025797772,34.696372359236776,31.726488213392734,30.504004337783357,32.519140639754475,26.40560150491052,15.236852493412776,8.45962782935151,1.2896910823608745,-6.115650251901551,-3.3821455359329695,2.166968706633995,-2.6274676011127984,-8.711776635837557,-8.245633236792505,-8.983562688702255,-7.297822950178153,4.141555149435833,13.747073649144799,16.158460883544336,21.764269512875636,27.18098078046387,24.909148730927846,25.57060113874739,32.30204706886547,32.31578206857559,25.980335585679537,19.45589632328782,7.459171669505848,-4.59212007271441,-2.6701031895784144,5.914532445173892,8.431900155523156,8.544001905479252,4.736735223612859,-9.235672172337784,-19.677205618964237,-14.070701601328473,-4.3984855532922325,1.2680049208257305,7.907684617152613,7.449555026147885-5.416473419292038,-10.988436887312748,0.9137251237803223,16.483075982017507,30.340382163951634,39.71937092319228,29.00968931812456,3.677215427477895,-8.040537542076908,-1.9046045536854306,7.195010536558841,15.905670767252477,19.08034579499222,10.244941773420907,4.257569935662235,11.520671547442014,15.010901059666647,5.429838830355055,-6.086433759856017,-15.054531922793736,-20.24955655071971,-14.183809464656463,-3.516501321814061,-4.1155132595043895,-11.896258778532696,-15.226906591223198,-17.180232441024955,-17.953358653106946,-10.381189345667632,-2.3260150796094496,-3.1113120229772093,-2.743491587085915,1.457524281452216,-2.295428154476144,-8.040398085122744,-4.592773354732129,-1.64225878798098,-3.3558309037982057,-1.230420176697155,-3.8381868873382685,-18.75242864593738,-26.508772720809745,-16.44478558102326,-3.0836278658217,8.35668372003442,18.456434882459746,14.62825334527987,-1.3880384554300251,-9.65984966567204,-8.60475264343105,-7.244000545345871,-0.680503971841909,9.277829677344686,8.58492664946942,0.8185858615791046,-1.7391660249567855,-3.3941731431598465,-5.339889317713552,1.5805150666306376,8.828235681718972,3.237670633297017,-6.136220754645285,-13.56042680730054,-25.689619708574842,-32.00605725097442,-21.38135317918953,-8.746125001213201,-3.4256842594141794,2.3388631375320683,2.017132071478251,-11.070549216266398,-20.506744587731074,-18.654255320048463,-15.674639284966375,-9.340805624697094,2.979546550333928,6.325436512246153,-2.5332664709794614,-9.01408974471092,-11.153705686472648,-13.351065200961186,-8.846707186984549,-0.23214252851388784,-1.6690564053203931,-9.537734910327094,-12.029834912451044,-12.495570365243575,-10.524309146297336,0.3944264740171253,6.39402196255339,-6.153315367920948,-22.290269844215377,-27.713814572219817,-25.70893137697807,-15.465113889145895,-0.9595427454957646,-1.6926656937506739,-18.083458833409058,-27.686223875789242,-25.936480357814627,-21.12019258396697,-10.560004534260369,-0.9445313862745728,-6.736448975728341,-15.84141395836404,-9.626603362902598,3.784800220683344,15.32607660937702,26.1423793837107,24.156377976769335,4.793830564238593,-8.795803993499915,-4.7973445559547905,3.9491527325649813,13.417575982806694,23.903063134987875,22.066857507121057,5.971049928725675,-8.053352918201156,-14.842166525666773,-15.281827922990479,-1.1820490133460675,19.566683658482333,23.195875672081534,9.88953502868942,-3.4909249395126083,-13.11209274115126,-13.187673603615785,3.065304079961977,17.653286831149885,14.475216326042858,5.858139067852614,-0.5492696531306634,-11.258568821082935,-18.297357431880346,-13.122423819681128,-6.724055732842918,-2.5429094046509517,6.856484927116966,11.533130788775177,1.0931047937400948,-11.703536677395602,-16.125064513681973,-14.976190433048433,-5.577745930362518,10.605307950279357,16.064418406003757,5.451677599351331,-6.5787557718111085,-15.22449778389312,-21.73608641158869,-16.87817083589877,-4.428218058514279,-2.2418209667520372,-7.855586003092544,-10.149576073121032,-13.780942692047468,-16.37556486640284,-8.582586792762473,-2.765038846417436,-9.213620138258356,-12.128977783287564,-4.3049429047216226,5.104628161997511,19.17158457172996,37.27965593310678,41.971992160242735,32.58122660380287,24.42492103298686,17.414307675198472,10.195565379870418,13.988361229927344,24.30077574321062,24.423216691159297,18.491806290848373,16.075072621966495,10.269960634784557,2.2161377682068677,3.254517530117424,7.528417842054749,8.285482022366473,15.876828993211394,27.466022833317986,26.12617053823581,17.053794044003283,13.765755862368879,11.098437723702972,9.175313180849667,17.81074534818031,26.94423423238445,25.439718524271914,25.275838774523592,29.671988780560156,27.610299032944695,25.336731816390035,29.97338686666637,30.550688533931005,27.698388104775347,33.50934667009189,40.47078217869678,38.82156984833839,37.514178915573524,36.88850542936679,26.685221018260982,15.674611491715233,14.656134270100875,13.851045633171694,10.859339992594123,15.339113959689337,18.605066134880104,10.505584999819426,4.3308803519328976,6.586048766636493,6.937826313725576,7.535693026873817,11.340444132803528,5.921605773997759,-5.8645833094619935,-6.810401096017346,-1.0660712121120073,0.43081708169911365,3.29391342606266,6.707167992567311,2.7019134777049816,0.6019067082362262,5.642334777646119,2.5706415060438945,-10.306742059161552,-18.085522792744996,-19.931988956796335,-18.994889354318808,-9.009189889464048,4.334958188603656,8.860213855574717,10.772341595712408,16.895603163471645,18.994709844945955,17.18520415200493,19.553273963230946,19.60377267000725,12.093893579972129,8.482466188608754,11.038062869242069,11.6666342077977,17.315294596313777,29.875111198331947,31.204445751864604,19.730347389020313,10.29276464915216,0.3173124752547172,-12.824792214524322,-16.71815726214793,-14.822165523598034,-21.183252364104366,-28.4322947308529,-27.28443264949317,-25.967059214272616,-24.964658131919904,-17.61544322280154,-13.114632392077052,-17.98316480649318,-21.172089113208592,-19.710230912772552,-20.21183702365859,-16.991181497471054,-7.097959432904254,-4.122426350810609,-11.900864350458036,-21.068184324008705,-32.49258844603627,-44.34052825370417,-42.47194848629149,-30.369336058537,-24.288146835978278,-21.61527331673641,-18.441888243575505,-24.38998286555924,-34.29951062041151,-35.0198379305929,-34.638743664980076,-39.96187210035752,-40.27050939826941,-36.860055699673325,-39.12549413197908,-39.15810620662716,-33.79969886002835,-35.709390124724834,-42.33017737734838,-42.51522171582654,-43.72238029187059,-50.899788331146986,-53.35399406125236,-53.13796852440679,-59.92720389656701,-64.87052948537864,-61.39298004219556,-59.23731262958098,-55.99709051365858,-43.06348261741036,-34.12104920983515,-39.50731374381547,-44.48987150741917,-43.07810948947104,-44.55025809162195,-45.190298458508174,-40.30715842898745,-38.80377198099598,-37.25131315357475,-23.66783708377601,-10.571704105032026,-14.321987018865443,-26.410579031143442,-39.0640889203285,-50.788441798761966,-46.85540651300682,-25.239243826699436,-9.389798925132702,-8.62500222595495,-13.899343873743442,-24.681734117738852,-36.26768564457138,-34.249492356726535,-23.4301367102964,-19.450495340679446,-18.594957684492435,-13.813399405054534,-12.328467227088334,-13.364432845426222,-8.151417791503029,-3.9882358888971012,-6.921104318423458,-6.716913541430998,-5.870600116144716,-15.670221521602441,-24.832513967165106,-20.79135130466512,-12.720840258221617,-3.477416178162688,12.563505256374444,21.714487568947284,13.994011944079489,5.6843042533886265,3.9684482283628624,0.9639434461609107,3.457279595035849,14.65539633247436,19.267163332625486,15.622592115697795,13.802375874649078,9.581562148308105,1.3143984103392605,-0.25932815125679365,3.9520428317632064,6.184853718533552,11.492849650262773,20.46134391065959,21.393456329843804,17.73110702279537,22.445927934468283,30.05081013379627,33.82355302024478,40.223226470202405,44.34317305970377,37.351564340635406,30.996466545768214,32.037043905611256,28.00819870314188,21.16942883823159,25.298971163460177,34.31589601528448,40.1510286072704,46.999117457253945,46.69301829976758,31.120534824468464,17.934979668078995,20.18485796319521,28.1405971578341,38.125313476824395,50.2056070864058,51.06771358848866,39.03102655170669,31.246124759679688,31.0351482351806,31.36534871461831,38.19056567893781,50.9720736847464,53.644059430263084,45.44249951730656,37.356472719313835,25.2657606418572,7.541219605149069,-0.9583518624313921,1.2883155075429542,2.9068066358928233,9.221690021997679,23.790715504359728,30.738301944849116,27.59766457929345,26.98685357485857,26.375226318686324.17286136662748,31.657832777122714,41.871118070927075,38.401700051556105,29.832705711913505,28.38946524347016,29.15130598383346,34.50826249950236,48.57309951575986,54.67110790072575,43.87206258011361,31.8449651628475,26.12704860920121,22.204087175085462,25.15153440074061,35.13019792146003,38.27730320444365,34.378156465853834,35.06135943988802,35.290023218073685,27.52654257425315,20.378756562045687,15.882020383180118,8.9212405129127,8.607974942498906,17.80105574909276,21.016184504677224,17.664915830956634,19.823465674548064,21.073234163637217,15.155924063852602,13.402723063654227,15.810060743185327,13.118431904286263,12.172445445210112,14.675348435382526,6.978417781779148,-6.917035478890132,-10.762837577336915,-6.991890181320857,-2.575832363404187,5.002581742598455,9.41629790644454,3.005609140827943,-3.331322129422932,-1.045592229568177,0.23324353350782112,-2.975824296083232,-4.082647856001522,-7.668942723710514,-15.526183128561533,-14.867798032043579,-8.907931607953945,-13.118633225352209,-19.651220556718187,-17.271689659753154,-14.04002041276536,-9.421187048985084,1.2013244666828435,2.0446525139885074,-11.522125359955792,-18.62038989129237,-13.990392213168821,-7.756223912022488,4.285682266666125,22.268541274172566,33.43675739926199,44.282321668534784,69.66427789425077,101.97943122853259,134.25289401596888,170.61321328714388,199.53099374159663,208.39438795823935,205.96554319702125,196.50888849024503,171.5482168448318,137.48148285654557,108.77019869076533,85.02383536748599,65.36604089846148,52.987777737484954,34.42201666209121,-3.153897233702816,-44.86982392915631,-72.9317996409774,-89.49020958557088,-99.32907133479678,-106.76409056405618,-124.91933905739894,-153.86466575611038,-174.0942719191057,-182.60716397366735,-191.38706874901126,-195.98714786771595,-193.63109223618076,-196.00673447325897,-201.28710210043366,-202.47343274725927,-207.72252332051883,-213.59592155199292,-202.09252464600013,-179.74877752265078,-167.62536716690514,-166.35986005997816,-170.75182164449862,-181.06453016082293,-183.74440067171773,-166.51224498515467,-144.45968697190875,-131.5159620504955,-119.10463144454428,-108.44076095452512,-110.31508259240101,-112.52934046398003,-101.74188984106405,-85.59415591226646,-64.1323044225152,-34.80107840454292,-18.294538196631624,-25.494315423759478,-36.29857698299022,-38.09872413525086,-32.58377116776529,-14.248613397553367,10.568455834883277,20.894859494538437,18.65748202740484,22.484165141604088,34.59778219530358,52.31786604111621,78.74168982282255,102.69571382961462,111.1421007710536,114.0698229060698,120.5447323291043,123.24607413941064,123.85754953565953,129.7332968658502,133.8356334469783,134.34120903880216,143.42316477738763,159.24745869518688,170.58943548753678,181.3018620064553,192.15443092204077,191.19772602468186,182.46559235495977,177.81828991922498,169.8122086832162,154.9302291225568,145.3283258689518,139.22203264760643,129.64738091978955,125.87341899338062,126.79610595795963,116.62165295641535,100.03829158236596,91.22635136187377,85.12700970471079,77.75937749566725,74.85176737704765,67.58865221101803,47.71025785679797,30.834766188981156,27.010022241374063,25.41111344508005,24.07494436389839,29.066288765585956,32.608872534934235,30.21303000185997,29.35541879815983,24.01807942748431,4.883479412407119,-13.876264188406571,-19.552432253227877,-20.23144892650143,-19.197420892442373,-16.215077907000214,-23.961519155807775,-42.028651659603376,-51.866894443555324,-53.8661444645547,-59.84315311222131,-64.40517220218915,-64.14670892863165,-66.53574730855446,-65.33485653178059,-53.84988306766664,-48.074551752607036,-56.94441663805874,-66.15719318885323,-70.71268902012102,-75.26578649887483,-71.96439679284038,-62.4045769382172,-65.14547581123372,-78.89292343177647,-86.68885167105233,-88.231163670219,-86.75515171808847,-77.3780808594426,-69.35858280346905,-76.51499255661508,-89.50170049665756,-94.2788122892799,-91.95181866035588,-82.24834258847416,-66.0793562628761,-59.65254624393132,-70.70630013371269,-86.42386769956443,-98.77137531232634,-103.1485894006339,-88.08785615945186,-61.074876416474325,-46.654671007889995,-48.65467788701466,-57.83973052221064,-74.12764792538536,-87.5497739772073,-81.64648280570846,-65.26067001213326,-54.27873699937677,-42.96427018350188,-30.82927824600667,-33.104969903551265,-45.3093722577231,-50.235911961216445,-50.05731806257256,-47.39191749076706,-33.906333467546894,-19.477163070808544,-19.90623462361859,-24.4565962123788,-21.47666065359018,-19.291137067727632,-18.327436903024033,-13.04226362292636,-12.929289457129531,-18.746754751862138,-16.357949567258117,-10.385405658246528,-12.863900181462293,-15.478693690975351,-12.804546518556851,-11.46461616420454,-4.736359391132199,12.525109246572653,23.88943287059341,23.145898290426686,22.74427446575468,21.988091091724748,15.655244820974355,13.270222917395989,15.82131430227915,12.95886948424096,11.376102751301643,21.724500803325014,33.093325475997545,35.77494662303149,35.218864597885045,28.9816842257079,14.542523422996265,7.262538108838706,12.541487123519751,17.01489623334961,21.208448186858593,31.71558690100457,36.97728586071349,32.79259836933827,30.767079231997428,27.71449783960571,18.40178720412399,16.82764923876219,25.598303990949514,29.79842960989679,30.77765736320308,36.27136858457818,37.97570684938806,34.77971317250801,37.22765363156382,38.571061493237735,28.027591171102998,17.243951231079716,16.739137294359143,20.768097633356405,30.317899885996244,46.89757868359069,54.69851477428021,48.10584705855524,43.2859819406295,43.53323343727912,40.94738217862641,42.3171833412433,48.42767273701846,45.10433769614635,35.95680130509392,34.47135607632608,35.254258829500124,34.30563195419404,39.806091643396556,44.75709280360389,38.09807535017528,32.34043079217363,38.55793653627343,48.26527637360271,57.92281885694717,66.77029092472124,62.58320787811884,47.25374451219764,40.71219857043623,44.43978995513858,46.44786425608988,48.74114443293439,50.93982512667896,43.703882707268065,34.80907064662965,34.99664142902926,33.00953610477484,23.758477599060704,20.13979207028034,20.60089291864324,16.130960365955396,16.030188529899412,23.809969540257985,26.578657499550992,26.217654698681844,29.583078039730186,25.81104200210865,15.766657361989918,16.113846643792925,22.9553831909425,25.506764398607757,30.382075100030303,36.110955084809305,31.7461107802848,26.25952591509688,28.757446450753505,27.284689919621552,21.115935276848525,23.286419069940543,27.17196325603422,22.272111585730222,17.0595477324673,13.049736036147237,1.3152061963648247,-7.796637546310778,-1.0074155647389311,10.004658612967154,14.680290642957448,17.31789499397612,12.0872677956298,-5.342972943570484,-18.271941052916254,-20.093391270193504,-22.94074625431432,-25.028083220868346,-19.45347975018569,-15.455969571899637,-16.516284366597784,-17.06905247325902,-24.89023794272827,-42.9905031931103,-53.97728192080453,-51.973457593725605,-47.59866295277872,-39.254325957296736,-25.575552297777428,-20.52285529415306,-24.91387175465338,-26.40667927260062,-29.557334083522644,-40.06059332265715,-45.31605672974626,-41.699032348259095,-39.58189242331558,-36.53001771870568,-29.22427475782929,-31.275726678731804,-45.840295768662585,-57.796686440472904,-63.11958745595422,-63.523670120957895,-51.362812282094865,-33.1399158325201,-27.995961001344142,-33.63358430889103,-37.35868451524482,-40.85065505430457,-41.76974333442886,-32.48438797603342,-25.089262017202998,-29.733408378242004,-31.937419120870544,-26.63086786852715,-25.81705981950006,-26.56721586297156,-23.920097359119808,-27.547888718559115-32.98123307333645,-26.64194271692352,-19.39316857740012,-24.41770034581741,-31.706562160111158,-35.70741358760557,-41.13711397818261,-38.35019344535486,-22.168605447392434,-11.445757258678345,-15.00466391368496,-20.698683379264377,-26.652036058301015,-34.17444167277963,-30.430409200542492,-16.622997435269696,-10.523148696365194,-10.75138191179897,-7.681534302017743,-8.152429266818794,-13.513642783666974,-14.333383067539172,-15.435358994642758,-21.960251474800163,-22.388525799183505,-16.505642976290858,-16.74781133643433,-18.163933688102183,-13.317778175248952,-10.840298505759577,-10.412623312423715,-2.7508738992462316,5.198061576236192,7.085869797639972,12.200040781154208,19.124238917708485,16.215188184406585,8.897974238422382,7.0805154174591864,6.033886225185897,5.431106312319992,12.7240395537065,19.92621405937226,16.842981227391405,13.878405236272773,17.98060544184621,21.502167633862328,27.71454631526579,39.70338828217107,42.92539455812148,36.24289366886829,34.87508219141551,35.30736962805837,29.68354541406092,28.59646847976301,33.59408243715352,34.825196710898936,38.55014977940678,48.29812284923361,48.46771769413475,37.00694735921344,27.83783937540435,20.09238569349366,11.405431373851375,13.322714870263052,23.003477400334283,24.168729276941868,19.187339412289617,17.10711087639552,13.483424496783961,10.745875672508497,18.937973119016835,28.93780444120806,28.884019902193522,29.732996487474352,37.341712421870014,39.91915297090334,39.1784434290143,42.37568316985285,38.89075689289448,26.498101396838578,19.057139653207855,14.039437389712413,3.5758465747821355,-1.9654807481473513,-0.5043371038062741,-3.496542900875644,-5.830390785680768,-1.4045201418779747,-3.177633208537306,-12.255313217502557,-14.487365446071292,-11.68100543829669,-8.755395910021843,0.747367084095214,9.374897661084066,3.6149952236314853,-5.495836893360132,-4.390734613098238,-1.8261247078153402,-2.216735403836037,2.2097110076699975,4.959915156667164,-0.7628314327629862,-2.4374365131763795,1.162136427177902,-4.4571777044707295,-14.333167601121659,-16.919639896781412,-19.57857656560917,-23.307241225779745,-17.698739991617792,-11.015267069097028,-14.880173628136879,-20.13173614559686,-21.815535912211164,-25.157654652562922,-22.278999500832803,-9.26922247885426,-2.2627271768906345,-7.372337489068526,-15.415875169691542,-26.708732114392824,-39.530940615844216,-39.00644713452655,-25.88787322013354,-17.51522817590224,-14.7237431501844,-10.388702374600406,-9.755406805630571,-9.697761401380339,0.052062812315754936,7.702509388508994,0.40229808723947125,-8.890131794240215,-11.96807587725039,-16.532462434008387,-18.43394336380343,-14.105540740350413,-16.034304071616923,-21.184359322842038,-14.012066333002014,-3.956264604080623,-5.2218460374938305,-9.961945780655798,-15.4338381624316,-25.89404011541534,-28.591442126345193,-17.258874002174622,-7.655658140952113,-3.8839249463464256,2.661209597606158,5.13671939996468,-1.942399475404056,-6.65774063103699,-6.276331045076523,-8.55220120179179,-8.323703265082305,-2.3177958955558937,-1.7117331683644172,-5.121545407604952,-0.24537472953481831,6.061456331597938,3.920582257109227,2.4041314870996273,3.9562814157475636,0.7401135001572603,0.45492542632095057,7.33795208111292,5.548360485501663,-5.8299475912019005,-11.609950002708546,-14.829361260966198,-20.059286356627293,-15.248023935131886,-2.6585300991784084,3.7973884833205087,10.554775780389807,23.72637365298815,31.135840832819724,33.29054581102865,40.049066686648565,41.655142831632205,31.52938970354777,23.36493573478011,19.321543238941267,10.010847664926091,3.037473053055714,5.517124041754894,7.25885461850789,8.301559552865298,17.744234621485234,25.30875111861933,19.044868346692056,7.416387677391996,-3.4394995126718744,-14.346500673263746,-13.556201315110249,3.269695312183204,17.009150540179114,18.79658169281835,18.021895912077497,14.93302146189911,10.32803994660142,16.176820220877453,27.544137460354165,27.964609556830602,22.22254793219321,18.928526100959445,11.65143865025803,4.333154379467584,7.829054765466713,13.452638534168411,13.55033065037183,18.01406500888375,25.608017424303956,25.1109389147171,22.436655533240362,22.74824105506718,16.01471583581163,5.408304764288568,3.062796439950969,0.7768278929226585,-8.986654535719094,-13.902722740282478,-12.602586781359783,-16.124180844091274,-18.120832399306025,-13.849896247748063,-17.210184238632024,-24.659394601540942,-17.502250896683186,-2.9031724200401965,5.385040034021584,13.834367678561875,19.984149942548342,13.531760242454308,7.855644252276809,13.75372654631611,16.088012605914166,10.749584233053547,9.056343542934423,5.829537851386974,-3.943935448871599,-8.27402212437378,-6.5984090770132795,-9.79882943352081,-13.894281096829664,-14.205591613252338,-19.31359708272904,-25.650346302801218,-19.237779559800693,-6.387099930277706,0.17266746602316768,4.236519107765412,5.543292380611858,-2.155588641779762,-7.039170423855113,1.9046431144735476,14.420505245983401,25.511303435830975,38.898420869014544,43.29183584296684,31.89314788211569,19.990787629026578,14.84715640728128,10.365578155299536,8.965136310914453,8.415619734325798,-2.698230530937858,-17.186429656803913,-19.805846813224697,-16.818969603958983,-17.95048059262256,-19.69910260183469,-24.35916785722954,-35.810689092033535,-42.33712741849162,-38.62339849565366,-37.84526131530425,-41.39273472050395,-38.13436479885381,-33.28754426923258,-34.520024185232174,-33.67069078437166,-30.99838042691857,-34.17477862194784,-31.28857326432422,-13.43212208953656,3.587540686715781,12.911590555068774,21.124649019685833,18.630750199463385,0.8786345266983977,-12.84955109625582,-15.411012171210533,-15.631702123765075,-9.356114764223705,2.8753342588895743,3.3797641336371753,-8.000631839258812,-16.02357764732633,-21.922915689846956,-27.731376903431254,-23.748792368425775,-15.261760981469605,-16.646974213716817,-24.072646605589828,-30.231579890777454,-38.08142544085819,-41.31550033489538,-30.605186968389027,-15.569651369421273,-4.814071359557396,8.05607720532579,19.19996050757241,17.380441720305992,9.729844083424553,5.828115117572569,1.913067120038633,3.056460840468263,16.086673005049004,25.06249318626496,19.89219866219429,14.725530576751268,13.009907001783894,7.173930435263376,5.456509117997188,10.691945776239425,8.007746145943601,-1.855742273465733,-5.141527570801121,-5.687885111573976,-9.27149474137639,-7.460000456480064,-2.656260499959134,-4.610425383950922,-3.645530432990889,8.922931897775864,20.919064348500736,25.186091313253733,25.796038478883997,20.07919416035198,11.033072154741726,12.908487476842732,22.601496590245436,24.501034491658004,21.43205117452921,19.8450671638368,13.871128381842869,9.249920023735623,16.04994401067652,21.53110709378194,15.278782471316504,8.157212815777054,2.6744641329473104,-4.878481147034302,-1.6749948884291226,13.92937652029522,20.375310444897753,13.558497187687228,6.76948282098877,-0.5546591801775367,-7.762215558091264,-3.975231808389105,4.451359060377914,4.375347745600203,3.6945806986954133,8.836691912584687,9.579359541930138,7.0769031789313885,10.936902162853993,14.483812627920805,13.557376712821295,18.298664063062407,24.02623102392085,17.070354981805274,5.38315280444361,-1.221861099251211,-8.703087459120551,-11.661141058033738,-0.7194813396779818,8.031619534395722,3.166848817748051,0.043133922557580015,2.677188287412189,1.8568273183666817,5.011166947017312,13.771744933780406,12.366937257393506,4.973165748840242,7.945290799951891,13.65205265126265,11.508757806550381,9.924936621534991,10.098268170292526,4.469269587999127,1.4415074779605868,7.243604073954643,9.3890924273514255.498570750158333,4.276341464617674,-0.6647702028921263,-12.8499705379497,-18.07735722620694,-14.925799845917,-14.838198768382698,-13.354027385231614,-7.267303409730883,-8.431769261500062,-12.432525836461522,-6.381506826827587,-2.35343894191169,-9.217365038913034,-11.31453000601702,-5.813777488678298,-3.3073007835815758,0.7493937876011529,5.391217309403046,-3.4207958383143313,-18.42403455327466,-22.131193827164736,-19.925590122259187,-19.32120926406758,-13.822309794430549,-7.897840045284266,-11.004919263440133,-13.845771900242624,-11.111176429867303,-15.565720529219536,-25.945492709642817,-27.49319471559324,-24.297631678022064,-23.57716524210811,-16.147472843922063,-6.455048453155751,-10.539526641782274,-18.93448513086846,-17.406551672139756,-14.737507175246641,-13.085515999497053,-5.140019733883482,-1.900392263090969,-9.93077047243204,-15.845250419645788,-17.98041983850343,-21.77413376291434,-16.48468591575907,0.7399437503473445,13.8298378319736,17.642915532164867,17.31344364706268,10.24952732216379,2.9780730432962166,11.119823106601025,26.961695584704017,31.21057398555845,27.17013464624911,24.14497911959866,19.229394697844267,17.376961623926288,25.361979026758743,29.85270191659827,23.05624590997383,19.480923775537313,22.581078604915092,22.516941063547137,25.21988729250448,35.706869047178984,41.100495938185944,41.82796305502749,55.08930532083452,82.54672645723703,120.58439104819962,174.05508239685616,225.62634247314338,245.6038566474496,236.7053348649283,216.9553562419694,192.73519075625532,176.4403178381026,177.05455093551515,176.41297429411398,157.75990560135224,127.53880443595315,89.98254248780145,43.923633909749995,0.19926208988891858,-35.1237437014733,-68.03053135559165,-91.3721182780497,-94.99491950050056,-93.6912117034253,-105.78251651245404,-129.89415634456716,-160.58044080091253,-188.07889973887342,-192.49383817633878,-175.6688347775401,-166.04567031858764,-172.86851276413833,-181.91460197977023,-188.86174042625515,-190.42889608282837,-177.21213079039367,-162.31469951914926,-166.14432887602953,-180.32457881276753,-189.83655586511804,-191.98148128331218,-178.21235914985027,-147.51400785448328,-124.06820728322256,-123.47042219222142,-133.57129210190558,-141.81458410623327,-142.3627921556194,-127.50279283624403,-104.42030869539892,-92.4524538337882,-90.86919034325462,-86.06473798543782,-80.44778272992224,-77.6643522630801,-68.85433712950686,-56.10503694672816,-47.61914551075998,-34.972201480844156,-15.339610447916868,-3.2196385055092285,0.6366499500873217,5.672305347306625,5.631635589191783,-1.59786147832844,-3.442994596094932,-2.2401705385987762,-5.955396485844435,-3.239939063724044,9.468540495771643,18.593670768286636,25.03942578333496,34.781846679066305,39.25969091548765,39.35628933693803,46.13231953392416,52.85904412614551,50.91584746249234,52.03889241114245,62.07572939972176,69.7117730466086,74.16768048650664,81.52498737840591,84.12827978622673,80.06447662905016,81.48651110057466,86.26744726472752,84.60736260688279,84.83859924075892,91.72689051462346,91.40057971569638,81.90939419880102,73.41171903091212,62.600199452879835,50.151803307654774,49.144306250369084,55.14305231436382,57.47233079341226,64.97980877268063,78.84470071855712,84.42658182690386,84.14595641634745,86.90828902902223,85.5276808548054,80.89631415762707,84.34148033971566,88.80423906709835,84.66965477374617,81.6907431567996,83.37778496323624,80.72097935084432,78.98821463184558,85.60687522420439,88.713096681077,82.66543764050827,78.40750319177204,75.56165849214577,68.70351145470471,67.49732488559877,71.87242787953572,64.64615406591822,47.7642065013643,37.304297308409616,34.44235707559679,41.045366807850556,62.24626448644008,80.18960597973503,77.35381028019304,65.37637582942088,55.563922225460665,46.78441566052042,45.557890631254295,51.604028576668625,48.910095955412864,37.8035202820748,34.76069729469202,37.934248171877805,37.06328561900177,37.21781827304394,38.97098861941376,33.040313494367766,26.564979188706555,29.856287495623217,30.36983590360893,19.463520621314306,8.828099722174214,-0.5931320275142362,-14.615611195485382,-20.440391157220482,-14.080732037037098,-13.178276476730973,-19.02888398713769,-20.430398206916774,-22.981080706882757,-28.71590081869067,-27.202870147642106,-25.272011250256586,-33.324508035003625,-36.99411677027137,-26.460124121045553,-14.513208375111043,-8.013211944106448,-7.898232206773942,-21.72827061133724,-40.9646790520932,-45.69909379601967,-41.00278411758953,-43.02739247226537,-48.6273941657739,-52.22249275644116,-55.87436716149433,-52.49798919758606,-39.698180351227194,-34.36851968564736,-41.38132733766716,-44.350740269324994,-41.50996127662991,-44.42818650000367,-50.412786653786746,-57.524184344735765,-71.76279413330579,-79.60040195416582,-66.06014418184719,-47.40130926370691,-39.836664679104736,-38.62915171859012,-45.68148384168457,-62.11297993189162,-69.7911229332939,-62.65144459214597,-54.78974526043597,-47.25788229344795,-37.09164681319295,-37.2652849413783,-49.44688222036079,-57.91509204625609,-61.45472722329657,-66.59825870574387,-66.58213450337047,-61.038899625612714,-59.55133618776429,-55.732210407340766,-41.86476363137611,-31.795179571789838,-33.63746650034667,-37.13060651435724,-42.62937907753822,-54.57768736283425,-58.310500635786255,-47.36847092255283,-36.917583760189494,-30.612522398872294,-24.63153920504943,-30.110344733717334,-47.01883188202877,-55.40573246877125,-51.6993425434566,-45.25169151382487,-33.476333960313646,-20.60702238179267,-21.051536835197663,-28.66740482165933,-29.314829995573078,-27.000275358442114,-23.668616317422394,-13.54926977796864,-6.767093425584088,-12.90351326807624,-18.74631310174626,-16.951917663374317,-17.859567266577518,-20.11835352767076,-16.92884081772999,-17.872687795618937,-26.01954628643246,-27.73656212308455,-22.74550986816299,-19.794658206110327,-10.977458234537012,6.340779291046564,16.080808746485463,16.41124584433669,16.15345562109907,9.125296213716148,-1.2451985258760994,3.730424669365567,18.58177009297638,25.74497839157195,27.964318584817814,25.510124952525025,10.592246680752467,-2.6120447855190108,1.8883015628344664,11.73552430720565,16.48627513409884,22.387205552922143,23.45143609422339,11.678393982005025,0.6438414619875066,-0.8927306978255197,0.04473723807961044,7.696468040862445,27.580546889505545,45.21515069714999,50.63367497838317,49.83079691182445,41.79975022982272,25.983676522231715,18.197350343656858,24.07096439856943,29.489068623531736,30.989277139964877,31.366986671290512,21.74112754768951,7.843889773846223,10.013877696962757,22.98603314924084,30.323716891280487,35.46149880258274,37.65318786580846,28.487949411732007,21.328234460293046,28.614597555563584,35.320545683305866,33.214152839072554,33.065032735299425,33.08415447887155,27.771419059114194,28.126817125008422,34.75705547583429,32.05980404454767,21.844791955563725,16.151460860377853,11.468521071476012,7.860412563745804,17.962308885075206,38.221299028787186,56.41120849161913,77.76645126815264,102.05556041296065,113.49922535867661,114.7812469265476,118.6452036134641,118.78590686915538,113.0873980882977,111.92462844265074,108.18550552846708,93.25982739895588,81.90777493204776,80.3990643532611,75.89781688062818,69.01699520047961,65.43107253542844,54.97265489981457,37.75447177969941,29.46068024886528,27.458040053587343,20.219763752020647,14.340976951942931,12.74908834952861,4.2747246565530865,-8.347889028289583,-14.571529620564407,-19.19367856326206,-24.145471986858304,-20.82080661968921,-17.470738921792265,-28.784731545133567,-46.26056088151968,-59.61969386904956,-71.89457317650799-75.59312743142803,-65.5265186792778,-59.02269771502984,-63.207033819957026,-68.3374388369454,-79.44799776282399,-98.88137389663476,-106.4899104477056,-95.73716792607573,-81.33000560374481,-67.75591400370905,-58.21352159802443,-64.82396695032448,-80.73034402462474,-86.80431701796675,-85.67974029528142,-87.61179664819699,-87.57637602331658,-83.94314645450964,-83.90158909305273,-83.43944736578965,-78.29787323317666,-78.83969377149904,-86.01331491768944,-87.24631230089193,-85.18914280474235,-88.10207335867005,-88.5081603385694,-85.48363262176652,-88.99450970213553,-91.63932143546145,-83.61201232639549,-75.54056911544734,-71.18018081346041,-62.5614788832244,-58.92740901643948,-68.80666716945326,-77.83456874868239,-79.15728433803925,-80.13652282021573,-75.45494566464076,-62.28000028639266,-56.02065728550423,-59.65482109197627,-59.64052373611755,-55.907951464630614,-52.958340804982164,-43.48582451502254,-32.02985552700402,-34.19995553621533,-43.72288202556581,-45.73514625102057,-43.51285981736747,-38.13602958197814,-22.670094523015557,-8.419148943433687,-9.514550498814195,-15.41628987891978,-15.570374006458753,-13.830904720975886,-4.672778080078954,15.380972485165172,27.512776427118908,23.613386657564362,19.04021062008848,18.64384919364619,20.67678000285514,32.54849718961941,46.507878661770285,46.023192262479355,39.96183614019907,41.950677492372755,45.54229540937531,49.28436286524915,58.92452951607609,65.58470556564467,64.4083689953768,67.80305645064192,76.4333084372134,77.34382097964763,73.01190647215444,70.87945065191278,63.82902009765836,52.10827924167627,47.327292520745154,45.275119276038474,37.8546672866606,34.56472355803152,37.926781386808756,38.28947630656971,42.392841424165645,56.69101330238868,65.65233951519085,63.676953972182204,61.77516438980609,57.975797817749246,51.332919069020704,55.77392874024556,67.63355611766475,67.73993640014615,57.14618462831755,46.997974283211065,38.84998790396739,38.56429095201061,51.30661305184521,61.26806956595684,54.147436217790926,40.16097979031107,29.51590962606737,22.896082828873233,27.552885173875644,42.351390539185616,49.87459877793181,46.66342199844534,43.760067488192284,39.00162282803342,29.981532217338426,29.39177162960085,36.68523153812046,37.45809537673612,36.04258702889325,40.73954024682254,42.15938628031448,39.73067535775221,43.19763813825313,44.372802698882644,35.88645791666403,30.32101748115614,31.299501341513817,30.960872945462306,34.831870417666835,45.09333750568344,47.93435216912052,42.930877017537874,42.050189038459635,41.48830024772146,35.06961642612867,30.350794418754308,27.17736691413599,19.18303240233738,17.316688232593364,29.26575286680819,38.1957067945681,34.49777852424702,28.370462150830853,21.492858164967394,13.050446823108315,14.98872894916614,24.101748925166277,22.334872049640538,14.850053502523629,14.28266330002315,12.114042098314055,6.8685776077820915,10.483875645624746,16.37605700623513,14.928875865593344,15.444406599240573,18.134136024226272,12.656489452696228,7.015277850173176,9.388493977851839,8.975847306861276,4.408799829508093,6.5559498533298,11.001767417160771,9.727725979520486,7.078493217978115,1.4563209340622827,-10.664972316667072,-14.845970394912287,-3.0176468935122074,7.040559284528967,5.212978205127579,0.8487128024877612,-4.44824555392948,-9.243665980021598,-1.2457229142218407,12.17517618460083,10.301463629999377,-0.2870580357378425,-4.286824316116116,-6.502962904322866,-7.148812001839797,0.3913735444044759,4.220710812389344,-3.817272954191555,-10.695044651089157,-14.365972560454017,-22.826764377093284,-26.4357002441286,-19.854092520562688,-17.10327472771595,-19.075430422886328,-16.12410621287896,-16.00541069989946,-24.06472278293938,-29.22263826934639,-31.12635859299744,-37.02697644151442,-37.276010066150626,-25.012015233269047,-15.762012093381479,-17.800229042265702,-20.33746245441301,-21.896762853009413,-26.48719815614535,-25.531528062211237,-19.429793990556753,-20.20483193588928,-21.6858600341754,-14.86856958203101,-12.605397466353992,-19.775585496587695,-23.80994623438412,-25.597226284416934,-28.868378127296193,-24.337169579293622,-16.624643588328873,-18.224743686056932,-19.556294887140172,-13.3361272655665,-13.160515402160026,-20.37598022386084,-23.009189964469122,-25.143778276251066,-32.9095409172833,-38.527326586090055,-42.52641551021239,-50.746069766886016,-50.87263155453063,-35.48215621480833,-21.93721200040563,-18.861691405788868,-16.633796301936158,-16.226068513616184,-20.72651882415702,-19.245899230717434,-11.893048198401996,-10.438730457222167,-8.92180478934913,-1.2887376801340693,-1.8211214688617177,-12.120398592092,-16.38238965666532,-15.525781269560778,-15.505497663766258,-9.032469105607154,-0.9429071535398981,-3.798371986040565,-7.987001599745724,-4.334049657604755,-3.7484558025722916,-6.510832310482236,-2.7960717734380243,-0.3530689044516282,-6.177618060651389,-10.426707282468445,-12.122027514105664,-18.44242094709699,-21.180491273804613,-14.493367408341078,-10.809348889290458,-13.28922429607995,-12.17214256665861,-10.77964604545998,-12.934415931102299,-7.128810959121223,6.073508225389802,10.905903781583225,7.735042286292859,4.865221919462525,0.12550258008561976,-0.35781056663619926,12.33902672063869,21.740337422149413,11.776047912406852,-5.163046719012161,-18.771282067362996,-29.24351709944601,-25.7186797571203,-8.139276293130239,3.444441899100984,6.809732743321771,12.473197178813168,12.016943807955418,1.5424442657994848,-1.701532341911777,4.782962864971823,7.370590067863991,8.980305232972768,14.067266741973192,12.099161390461301,6.823536790802644,13.097481233339654,21.979901078860454,18.716741349958323,11.381621216620596,6.6628063302541936,-0.4190945617453825,-2.2577660946276543,7.497864517568358,13.553774877534314,8.442658307534757,1.544131111917034,-8.489484940226316,-22.308155816872336,-25.27357319364429,-16.472736366044558,-8.821380210668028,-0.1882815935309461,11.467818222919167,13.722038191112073,6.736117635015717,1.2181042862843314,-6.1708492186339114,-14.379586088947061,-8.694893371486323,5.908673848267609,9.262811023473752,1.6424346061066601,-6.5769610272071075,-13.243607779389489,-9.239459742085476,11.257696999262048,25.570826439501744,13.956062090440792,-8.8891737581707,-25.872334223102442,-33.24496998553659,-21.730482198448094,3.2210847256381543,14.106926561413102,7.478147695914249,2.397457429859905,-0.9831744793814494,-5.86377833058667,-1.2954141569231954,6.949738458077464,3.7787579306643666,-0.03552115338754003,6.501242990977868,10.195726402726384,7.022616807877871,5.464150413845201,-1.776162552175499,-16.619714872447528,-19.915525647277896,-8.887123789212474,0.5321946061862544,7.438252427692164,13.768047051502663,10.088493846607506,1.6025782979246483,2.1286358755751986,3.493191201742636,-3.7850631088548736,-8.209913192310369,-7.170846377749314,-10.680421126877897,-10.950552350319839,-0.9784153972112253,4.414841712271139,1.6697953151434826,2.233018586551657,0.5197547577887235,-8.567756308948395,-10.58576367886296,-3.5240693508161147,0.6010339910711807,5.326492106462462,14.323288655624703,16.402645350253017,11.406186747371375,9.397958097289258,7.503077105971615,4.590746671073166,10.503492609844423,20.16595682180779,19.347253580067918,12.161947261560407,4.641069871574622,-9.165428325805488,-22.173788025850353,-20.906756967704013,-13.415335916036675,-8.178841995007637,1.801813285721921,10.481598030282738,5.395184057386302,-2.0802206971785013,-0.899381250610551,-0.7624343729766778,-1.938271127416059,3.949873209379885,7.203492349831715,2.1344181999452942,2.1407150515320224,6.962280381056958,4.9320639668740762.27445679660799,4.770606985512806,3.443852917852898,0.9390603301465357,5.88579808213333,8.415423379294207,1.4401327649958489,-5.340291038776422,-10.876246520642399,-19.638226153223947,-20.66256476671759,-8.25045871151175,3.2958913307473354,7.87580464057071,10.688896512322312,4.988110315265975,-9.642674793444481,-14.420076723963513,-7.983609331247907,-5.511769177639671,-3.1285001888840447,3.0009018478122353,-0.23440555588206013,-9.210519081601714,-8.549579929817051,-3.984075111442122,-1.086358484196678,10.189967913520626,23.108267546655423,21.24964559314757,13.791844458414197,12.154950716140773,8.154525179284562,3.652813383377323,7.224945115383851,9.06466780538486,3.9248755512065827,1.9824281660070695,1.4458280184375432,-4.468178749329012,-6.645688452220828,-1.1429188449050072,-0.27922099936650413,-4.8536682132514,-3.6322524776464826,0.4476205129961639,1.5434788331816889,4.877845718230257,4.925340221470936,-6.935911576868403,-14.17078442814005,-1.9560217494838774,16.81917006987594,31.954841065672912,44.5492312746145,48.4783272408878,48.39788518907929,63.05868567455883,91.84913994296878,123.58617498612142,159.60640760905207,192.44347567928784,206.79782651605063,205.3204599323289,191.97871291017705,159.9449938832921,114.38422537421874,70.95524539176165,34.71925753442914,6.13148674854238,-9.830152115598711,-22.57337620890801,-52.567800994186115,-93.42168514660752,-120.35905469671482,-130.61649915983358,-134.8616179372098,-140.5049621843197,-161.13078515488758,-194.68008991727436,-208.47137372684324,-189.14706994136108,-163.3015096260071,-151.23997122002118,-154.4188029158513,-173.88896063535066,-194.83998767292084,-190.3441533839386,-163.56513844978377,-137.61692292952924,-116.55395904523775,-103.65148547212752,-111.96709197566707,-129.5402209161882,-131.35253153846492,-117.7723944889756,-98.06697407468542,-74.68974674652328,-60.91523064606113,-65.35516644903558,-70.53245086519671,-64.74716722928598,-57.81295610913391,-50.60894104642153,-38.07475827909154,-30.036592975152374,-28.75166445202854,-20.274655306711345,-7.11936112960352,-2.3320914999798523,0.9529280429166982,8.273178548273112,9.544757062506882,11.909805637468207,29.90192523798737,49.46245617416899,54.150553268545615,49.92254010848501,38.23282747514685,18.985619078077672,12.689780756781072,29.35580083278968,51.540164079570516,70.67946377258943,85.98075377927006,82.45684758416715,61.27345426473597,49.12553597792474,54.12133581075409,64.99255942087962,80.49746700971774,93.84649507432378,88.83208100532701,75.2069018056152,74.42841549901247,78.6282780578135,74.82878036127683,71.40023658660806,69.46781845256905,62.371722283107296,61.56284786625529,71.90615767473417,75.46791340186812,69.80822475637524,68.79277113475251,68.01029747627189,61.64332971672442,59.4204294553099,59.14454043140758,53.86331085647809,55.6416806466041,66.91752587686067,70.20874558431414,63.526412680300915,55.41574227743367,42.598771999738126,30.102515620419148,32.56463136264077,44.2547169739374,51.7320282125037,57.60692726593092,60.40715692568371,50.778033682944425,38.72521329747467,39.331224050126636,43.57465763906945,40.53081117541592,35.44573987651296,27.186350168103925,13.92322174834695,12.480630238082377,27.71473612634923,38.8074152310006,38.43623880267444,34.06566003489791,21.248723591127103,3.2108405701919915,-1.6470422101204367,5.202863905915275,9.77038587728796,15.459822741183064,23.59627182486538,22.96260758060422,16.537276434728867,13.624068185722525,7.258980236976399,-5.24272034238056,-10.867931936323451,-7.008086615399277,-1.8867443137785602,6.454151954941123,17.015043924730097,14.94458898376801,-2.210253136685261,-19.30503841113309,-27.45155122527218,-22.261713790731278,0.6909785480580348,24.82226529797017,23.082876000308822,-3.474742551104213,-32.47137997925285,-46.06801355593741,-32.08472829261918,3.4288427573804388,28.81220191022329,23.726224179146804,-0.6104569864610019,-27.13261116513532,-41.152322693407655,-28.220038206647857,1.5876817112596235,19.536210864111986,18.694534804282775,8.828871283198767,-8.512242449021878,-25.5354209147217,-27.43322783073196,-19.648459145644253,-14.034799665666862,-3.155704819777666,14.156750462084213,20.157577134773625,11.797889220010497,0.4503626661019222,-13.562356739278982,-26.304716022517848,-23.699326540548377,-11.79461916614,-9.150262805483658,-13.862821965678641,-19.8447554694648,-32.48108090718774,-43.34411889945185,-39.34652257769126,-31.49589404411443,-29.278922684328883,-25.337571486328798,-25.390557372410605,-36.53758069797505,-41.43558225889194,-30.42686586906259,-16.278460523930327,-3.7323366844868198,4.97441890707702,-4.00835304616115,-25.48762320218183,-33.30245703598167,-24.418034568414313,-15.984280381203082,-12.182255065625036,-14.841847373335257,-28.465212583301494,-37.33893790565029,-26.308183381813215,-11.539250030151237,-10.221033767028176,-15.947272652193334,-22.98140609341071,-28.46069955353293,-19.316777934016265,1.743023098298707,10.501322119984774,1.387152910505216,-11.56048377673108,-23.270388014013225,-27.043071527628054,-12.449182706677588,6.191918270897473,7.929421294031146,-1.41292510973271,-14.143970544709674,-31.96075067583997,-39.65583698957613,-26.27362084117759,-10.021353272669506,-3.168446286491662,0.16032352838676212,-2.8677328327289846,-11.055144646556354,-5.104120969776827,18.045006062667444,39.09187953744384,52.57099221276195,61.81150165208933,56.656985401292964,36.36987751707019,18.46560081143721,6.288584112626848,-6.262102309425451,-9.941848285712311,-4.488143317924461,-8.29200327828618,-21.49910794100237,-31.125404065854465,-40.69895949168494,-50.71217584546031,-49.464086948730255,-42.98262671739787,-43.8423676380788,-43.7951413663214,-38.30847478927764,-37.1957240890074,-37.07482081743227,-32.46969184474884,-34.17217396988757,-41.6768470461065,-41.04266251852241,-36.654862655446664,-38.901621733269224,-40.84590998100683,-39.49171693865681,-42.41306958907453,-42.821300422167006,-33.865468967323736,-31.126780069861372,-40.536510681530245,-45.57922968252653,-43.79502896888431,-42.54414026226395,-33.451265439194756,-16.40385513624684,-7.061362312855636,-3.1224640266185855,4.26445280382141,4.441937980805344,-4.996970771699658,-9.464684969301171,-9.778491484171083,-12.146435930354798,-6.824772779026057,6.170871834581803,13.223680931500558,16.52616628123747,20.888451104537012,15.110747975169948,0.8506825050705134,-3.8439382830667617,0.7977630018834996,5.243104591227953,13.134595589850454,20.282768996096145,13.49394502627322,2.1640211113975294,3.182242308973704,8.691064301992037,9.518702629151374,12.721927184589886,14.695577739076763,7.611434510180134,3.470543734013182,7.236330211322028,6.331197596638871,5.233090368484832,15.007951221826508,24.809689314606388,27.764882796759302,31.61380399201506,30.56388008817148,18.66584264210895,11.081447056977542,13.831527208859512,16.477890240798978,22.15968502836061,33.1981550518478,32.897575277119195,18.953174911999696,8.266905770335395,1.7932811397443271,-6.515992702462064,-8.63063667224147,-3.658218596963269,-1.2515899972240772,3.1266644612669,14.839189791743241,20.234298238345428,14.499330490038515,12.387747656996572,15.366408389510601,14.868225813548326,16.518105557272474,20.590409136513042,15.476142259068208,7.077727248649881,6.507014432110296,5.052727870625843,0.5364853473457747,4.0557089231244925,7.520671218179589,-1.6876999807210074,-12.62331291984418,-16.459662407928374,-17.817080920797608,-11.668668227390977,2.5422347110107006,5.531994157262846,-7.296391287772106,-17.16697555312104,-17.398796922115256,-11.879285150616122.437695958012426,16.951099489867815,15.15001822511813,4.6150805249260625,2.014443533381332,4.125865549147169,5.2669238627580555,7.987764331458969,5.648755872297489,-4.334610901753093,-4.263802638738628,11.569654227020564,25.29593694435005,30.09077782574564,29.273096558863102,17.534726383144154,1.4499559294280036,-1.8233770726148228,3.2652014801896976,5.882916926191685,12.487230570150517,22.320660999379005,23.226551138009423,18.51455176461454,14.394354235347484,4.519938534447565,-4.89529570603395,0.9679669936329396,13.628615398772023,17.301838292012768,14.341727333917738,9.093702811770736,3.470291342205961,10.46626501765259,32.22657124810745,43.613200038851204,29.76643762153728,6.521375366831711,-9.741002962544076,-11.797052210196911,6.700858436536852,31.646304908596786,35.13670521206441,18.914540915825537,4.923496797899356,-1.8497984532837712,-0.6038187716647859,12.40028217138346,21.342999286411544,12.124348142593718,-0.43404048838692555,-5.171217287434102,-8.45770642536284,-4.326933789064455,13.398731059377592,28.377742407433914,31.701238230087537,32.69044846518012,29.19954545531335,17.544274926499206,13.201954509649022,21.071902836819913,24.983130754205824,21.945167978792163,18.996372164419768,10.46988087761945,-2.495193602310939,-6.053285751956428,-2.787450583228937,-3.581020956132458,-4.042382653769717,-3.8061339713468847,-12.21667562884223,-21.05276253583201,-18.09295471518548,-12.053055928037104,-7.022717149650475,5.40425269555024,17.575862865143414,19.500747382808758,19.443234305526403,17.408147925921604,4.552306880647606,-7.788935536340937,-8.250589078607128,-7.008090671536467,-6.596711780619082,2.1498047719395306,12.202833277510445,13.54856929786375,12.197903065355979,9.424102989625093,0.3875376650612732,-4.309630621629661,3.4310078713695176,10.193789949476358,9.08903995924902,9.365313232449429,9.345677414747897,3.998150739913176,4.002456483546176,11.192731748220314,13.559401478849136,15.071784397275172,20.486493174827675,14.899384718190277,-2.2456456145370183,-11.846979578390492,-13.43214682558873,-15.732316550389974,-13.041067769916213,-8.565989566241468,-13.552491357111043,-16.54958312852769,-6.5472969188247205,1.0948398438253468,-2.089068477379982,-7.336239251696619,-16.01250726130015,-27.89910291027098,-28.000875468410182,-16.350000269888106,-7.598762069563995,0.3079636166999309,11.87780248877432,14.951983530659767,6.891997737476442,-0.43811660061171565,-7.478038243828203,-17.239793092522294,-18.958187789454456,-12.554412001683037,-11.613525407295342,-13.21140113495958,-9.198149071557351,-9.063127093661617,-15.198884694451063,-15.751519096844056,-13.516630395945265,-14.615253511651437,-11.340387738153838,-8.24904567752062,-16.769032550708527,-24.045781892698745,-16.168270743046477,-3.1015382140278476,6.656116202827388,13.590589192424051,9.616041104422894,-4.357179456904138,-7.535381816077638,3.352760236840845,8.697729305427558,5.151364156493319,1.441170067282206,-4.536300856847531,-8.769778433384232,-1.9068480080829844,4.463089955338078,-2.0928763913988107,-9.783663223034127,-10.607028597898907,-10.943897724601406,-6.966925618307824,2.7915011506974787,2.4333699024004045,-9.248013939032331,-16.060804648712338,-19.63598230819639,-25.490700381588436,-21.944360765659265,-11.809271331301552,-12.096107774348429,-16.49770114858903,-14.155202643105042,-14.714458347797876,-19.434572095514877,-18.293954617245365,-19.099296334314815,-28.96149431378158,-32.60537083889121,-23.43305056936625,-13.466683737016925,-6.409330947923809,-3.2962920621432197,-12.75250618478844,-27.17991133315283,-26.585980777342648,-14.555620816679646,-8.215138374363868,-7.292100433666171,-8.907857952708287,-15.141000993082674,-13.39339557909529,1.9973630108663292,10.832448651527875,5.975231334716273,1.4964960272832974,-2.58169342506242,-9.311128388801874,-8.256998230326916,-4.444895622707236,-13.467628636882667,-26.695522375495603,-30.326419290572524,-28.73702973456997,-21.99448786836484,-6.817501333895072,1.9983584179226783,-5.555111219040594,-14.974571415812399,-16.441499765759854,-16.158338958321544,-13.44614252671012,-6.522273099765229,-5.765850177762546,-10.752973435041454,-7.857983419138023,-0.9308273451616884,-1.1381596412477821,-2.5538709271324724,-4.213213000047739,-15.901348079913678,-28.99974763312645,-31.06725119563395,-29.72149881846982,-26.293688045102716,-11.82893193920924,3.487987418224441,7.868509856606418,10.176465748622787,11.344860876342086,3.1309200838780926,-1.8611356578727292,7.763868269463108,19.104386399215983,25.169640457531916,29.27348337168376,21.855169197137215,2.016172625506851,-8.372212397557046,-1.520996199952783,9.96864577346291,22.175770255746944,31.565350734732185,25.594999283247375,10.008275885198415,4.745901470892195,9.066521090948894,12.500389720984314,17.97930307725322,22.00227532813124,14.28082692381345,6.088898923922386,10.306901707152324,16.433744091938262,19.91343346428774,27.149987910440096,27.54968980850707,14.512940420572676,5.246695309637011,5.958997934662359,7.63016432580546,14.576766171611908,26.877423323296345,28.293381638625185,19.94544046328822,18.132547495153727,21.05551372917725,21.38728833781144,24.141604969709597,25.305469635774195,16.226116907177605,9.672821260138857,16.435458781130585,23.085849062819733,22.4100266122921,22.003653809110453,18.882551798644926,10.174134022262045,7.520795684903332,10.27713073084984,6.1190936343874345,3.872796580221974,14.785184643980614,25.58993651919236,28.73226870614875,31.819422584233344,30.64584474256022,22.889004791637092,21.478488411902745,24.474140544580916,18.56666668216499,11.009201630890503,11.149513329634956,10.136339965150004,6.911611350072471,9.919589010855217,13.45695445084024,12.886274995411195,16.54547607403134,20.310022129294925,13.364479154810834,6.411980341828117,10.69542621465627,15.996473465964227,17.069306436101154,19.198077181824956,15.648018482313276,4.024809003522835,0.2606212347545223,6.34452066630483,8.813261487737849,12.309340981391264,23.46580549596815,28.72973903762926,25.47030618203791,25.75121185384259,24.475987571194615,15.954891362990681,12.55536618845765,14.731483261248599,11.596546517029887,10.508795796553922,17.451838005421642,18.545783489932248,10.885989895570608,6.136523276553284,2.2490696781803887,-4.727242297528083,-5.540869534575932,-1.8802167637080522,-4.673861123179746,-7.401429768835094,-3.7850026066486313,-5.1100601971636355,-12.050456723067782,-12.866175061539636,-11.958569059330035,-15.926970909932304,-14.74185380697244,-8.093481737209483,-7.767846991170314,-8.443523590866922,-4.068285954257378,-6.546902257513387,-15.10120182757942,-15.480800724752722,-12.709085526719898,-14.454770031073204,-9.986436374642414,1.0984647466021111,6.483999064271522,9.115636984247383,11.799895933387235,5.622331452183317,-2.368285059722742,1.6137596158476977,8.100135654732679,5.889059243275927,1.5059199804284058,-4.612592755928199,-17.64464151575918,-27.475996933788775,-28.485923736211873,-32.4690935287304,-37.745318994779666,-30.575638261179396,-17.81308597224412,-11.464903190472914,-6.670013243799846,-5.2146529901827945,-15.176543850842068,-24.595226100493328,-22.63487096890569,-19.56293167712315,-17.724309432526518,-9.711691129791323,-4.279734428725535,-8.830496978064057,-14.00906229983954,-18.6892785618616,-26.4050159048144,-24.66433324698455,-9.439525286057135,1.3286140610207307,-0.13169462789343478,-6.79268004930264,-18.917145272274716,-33.44829601613595,-37.22664055154409,-32.025063902077505,-29.32649382460951,-24.01833207056023,-12.118808170636225,-8.178341948889713,-17.2542970560077,-27.841951635826305,-36.32394588594091,-39.93964360960031-29.505044714453767,-14.78498434763609,-14.574483495516937,-22.855010400784295,-27.757338833289914,-32.01586822688502,-30.705201242499072,-18.09942894561312,-9.938570184832276,-15.308265935293699,-21.128885885945962,-23.049058950407115,-24.010378738421416,-15.173101427583724,0.4243956421888555,2.849937462460626,-6.480739923095354,-10.1771618272213,-10.335349013305708,-14.534526945833282,-17.178778486980836,-18.80811575407854,-23.53068354946745,-20.757084032775296,-7.498123079604511,-1.8535050177856998,-8.775434717415896,-14.103902040789908,-16.305843984168533,-19.590948063297898,-17.11281589713183,-12.372560113588865,-16.04010804243422,-17.70660492789798,-7.589885338417135,2.932496873177697,14.383034304441045,40.53783386368484,75.48575903925368,110.76798950688087,152.64900599162064,192.3132399036985,213.90493887379105,227.2465356976436,239.86879460955325,237.27257132321984,217.684510989934,192.27445288105335,159.4121634282203,122.63582281482073,98.12152918374632,81.6314707386775,55.688463528262105,24.856833835674436,-1.0054669533126805,-29.074082891091773,-59.68416604318946,-83.25919283401232,-103.46427633623247,-123.05616946459695,-133.47563361361884,-141.4016577719106,-161.97899807627527,-186.3787061162234,-199.68975637309933,-205.47949728184028,-206.08777275261576,-202.85158882708484,-210.95277539384932,-230.22412364593677,-236.5207696129592,-223.78094862327373,-205.79660785274874,-185.93741476405273,-168.96169853009167,-167.47466564503515,-172.67032984636802,-165.05899238645742,-148.6962186808615,-133.20996017914908,-114.85453608693803,-98.93793025041776,-95.39736846106433,-94.66606566101117,-87.10293950358316,-79.76065528505562,-72.71582357394891,-58.23265617005848,-44.91916619151152,-42.5409271085739,-41.93368137769802,-38.36906972188957,-36.12243732372677,-27.016891202338577,-9.151545127740055,-0.05275743399696409,-2.12060995395614,-0.25780152718077187,6.473262545442701,15.104077007323504,30.54668174708303,42.971657992749904,40.42935967015981,36.46268224105059,43.12583578237686,53.13166665470649,66.384898410124,85.71372741910542,97.86708740056433,97.0993781210056,95.28247032566239,93.97380449763249,87.5500636942579,84.3136710828376,87.42404543239068,83.83811569275863,73.28071593152106,68.01066848577412,65.73276266590193,63.02223163902056,70.25740192418174,85.19248315641451,93.1502076678361,96.55831493074106,100.68502339593343,97.75457143943142,93.4253919633045,100.79827772987036,110.2179964926006,111.27310989971897,111.26076882815502,109.61519936378437,102.82959265289703,103.1652783596091,111.98981058069012,112.00312158081442,101.0665502013891,89.18086836376278,76.47498389267852,68.50519353399773,77.550840603774,94.13084805449333,98.51599719420659,91.73681011545703,81.66175816303368,69.69601665600175,67.26439187582152,82.38089035432185,97.30366911048657,96.16206410643827,85.61992395279914,70.91855775912553,54.42208105067638,50.97281492970367,62.559169345787396,68.01649935117223,61.11668168263799,52.206195521261336,39.108583792823104,24.331865142219847,23.24292101857416,29.81150180321664,28.51292839936344,26.433155627269635,29.274757111927812,28.239640550896517,26.36291608193784,30.919057127512378,31.421592345365163,21.316268095075888,12.327263914087114,8.010050538550912,2.861597094792252,4.122652202265695,14.424962027223387,19.87665999504938,18.476945485573538,18.565898992466494,13.731424073821493,1.110816144049954,-4.82139074849337,-1.9159062965512221,-1.0684045561321174,-1.0978120826152578,-3.0586005537523984,-16.50058156800479,-30.762203161781454,-28.359176439484138,-17.71397860058988,-11.253747602297416,-7.632100976799315,-13.959432717180581,-35.91978578941389,-55.02644335402751,-57.15903706900051,-49.657379701344745,-36.07680708544207,-21.447048049249915,-24.733653791033472,-45.371175844322494,-56.720718387392864,-49.38303761470907,-35.97272317559078,-24.490663369224528,-22.844890909784375,-37.57109959703747,-52.68411200452883,-50.555953017733515,-42.03295320474978,-39.907859106487386,-38.70956461026829,-38.7027501383769,-43.58294256171851,-42.37043800890389,-33.16324016667429,-31.678579645832343,-37.32723695354054,-39.26970491399251,-43.57759138419573,-48.93650296886108,-38.65906914719416,-19.316244668618523,-10.292546574280886,-7.760687500600749,-6.769766245446515,-15.02045526028107,-24.30943165730948,-22.667822902293302,-20.158902808876565,-21.3690600312983,-14.231381109933915,-1.9545156921160416,1.649060562265233,-1.2366672874553077,-5.6652213727516925,-15.132933741524317,-22.355666317016226,-17.612300153200867,-12.662816111906489,-18.658414308802424,-26.99656863887039,-34.68073789334102,-45.345301075427926,-47.17149018140715,-34.34347067771952,-22.143046576274337,-14.205129501435518,-2.8674059075338754,2.8463917310643065,-1.0815572547887502,-0.1855793928420253,4.170187579268291,0.10987929061004342,-5.3572399931477594,-8.177537463787104,-17.50523039438206,-25.812294728788046,-20.655560122323713,-12.89147283807188,-13.64835324953611,-19.45271885864514,-32.493449023467875,-51.19169436000286,-56.380664833724225,-42.34205449229885,-27.698095704224333,-21.571021582677695,-20.446709358030205,-28.741547981339835,-42.095897690662774,-41.18041668847339,-27.29469940789148,-17.246038793259366,-9.741896700308342,-4.6076835429075,-14.28074102401153,-29.769941009378023,-31.15916763799718,-23.432743483193335,-15.088565687617143,-1.5891615795548537,6.918240801989005,-3.7238443901716938,-20.735459356893433,-30.17004053855927,-36.287231718911336,-34.71755321675668,-19.673155676030476,-7.733273290434816,-9.759730567839414,-14.610148392726355,-19.18401047120974,-28.030996726851583,-31.42006255206964,-23.19475535418308,-13.714003353725548,-5.410031209494679,6.794381166515505,13.592128915996602,9.206871383562163,6.341952704073635,8.386039858933321,7.899698049430802,10.26433428727055,17.61007973326749,17.87461922369536,12.172755284494546,9.601493871096288,2.524335582726126,-10.06824178097438,-11.66642774925862,-3.763243001481941,-0.2414834497919221,1.5838067816323447,0.5459756773408474,-12.383808405660696,-22.393011588142397,-12.36174595529518,4.328187471721505,14.30069385337152,20.68173720349442,17.836682180613842,2.8458951680371505,-6.238057121044062,-3.0436349177797486,-2.299952518089365,-3.4093796666516343,3.2520387794314085,7.900563383805495,3.1615050578530823,-1.2783366981526005,-6.1633249661760505,-17.373360386854625,-22.04656921966354,-13.980171202484321,-7.449296625536043,-3.5850441635500374,5.884747355655756,10.906311970075926,6.02939674477255,3.8938011894022577,4.661966221856993,2.356122178089347,7.364850979795875,19.790563204503645,22.684913363544837,17.79741308716055,17.054652609245608,14.823652487107893,8.258660684840779,7.310770535245291,8.744313860558366,3.507700280446224,-0.4662414894406328,2.1771943898558104,-0.7186244027055528,-18.628544671271975,-55.226654062827926,-117.05689246265399,-191.95251321977977,-243.33057569692295,-251.54848111893503,-227.7963492380904,-188.09063317739484,-151.83456339162208,-136.93086426631635,-131.58244011567993,-114.52276002716701,-92.64855997957252,-76.32920142094179,-59.96966791513404,-47.217853023230745,-43.27005372111839,-35.8061657820315,-21.79098143260212,-13.613008591242057,-8.271384635702827,2.5928504619929877,10.813754121220189,13.792746606827283,20.544523874860758,27.485445049507234,28.91669900725148,34.83731104314312,48.207468652009915,57.27083721769168,62.21052118227106,70.37755807707066,75.18068410891742,74.96510861767015,82.16604427124473,94.06619720652087,98.17207905968557,101.69714979216329,112.80618090213993,122.9225207547725,132.76151944178872,148.59977029537504,157.72698101908287,153.13532117931697147.4076151914163,141.56308099575887,131.3867618664761,129.13049488471717,136.26872033068628,137.60806764665062,134.04635915278573,132.3831522521127,125.43824427453207,115.26124417958039,114.1129991052942,116.19977940237737,111.73413064240926,110.42731650642173,117.22349706828007,119.71776742362974,116.24065192143156,114.67387220696327,110.98172826476635,106.26987050411971,113.24141383738007,125.16076065510025,123.55861444375812,111.66692378474087,99.1014114660317,84.67263289800663,76.45627617783347,82.24810109024598,86.76738738968338,80.34518802730284,73.36785220799533,63.864081121968525,45.15111949994421,31.448973300465834,29.97202607557698,30.617463299129728,36.72570360673763,51.61432443377781,57.33584242083151,47.333237673604295,36.37117607830199,28.61714050534193,23.06558675749042,30.25453508464273,48.26645280892573,58.54028326612255,57.14077722141218,51.34490584492391,38.74763626535379,22.650822815337172,17.062006682257373,19.816531082175135,20.63698157814015,24.86608901135012,31.845992429210064,26.66648942660992,12.02692146911175,1.1436511599714516,-8.922185299451327,-17.418110301383148,-14.567533843065366,-10.88777555205812,-18.3810886907253,-23.67471098061313,-20.85073777874406,-21.965357260374017,-25.75058503127574,-27.246987703825628,-34.678381792662876,-44.391704993731636,-41.84692744497285,-34.008282487028424,-35.69837770306837,-41.731025857517665,-46.495576592428534,-54.611615221325195,-59.30947888273114,-53.6458513960344,-51.180118620059375,-60.05408390517664,-69.0048675381311,-75.04371480725476,-81.62643205119647,-79.22402556647157,-67.97792389367214,-64.58077279691452,-68.30740772138255,-68.86681413234447,-72.91173080731369,-80.76215323571185,-78.7717386300984,-71.75989646796458,-71.51431257272314,-69.43665873357357,-62.94680609532834,-65.24270939701535,-72.28728179025339,-73.1149771993287,-76.29556603113134,-83.59979486894144,-79.93095173151632,-68.3711417074847,-64.81237164971058,-68.54213433928899,-76.33651888667788,-89.95151973129114,-95.81303006534392,-82.40048723536022,-66.10084459415492,-62.66324628548878,-66.26635415231716,-73.54723901478843,-83.14188426696334,-82.21558286122902,-71.41168373078222,-67.77700440755588,-70.58764276885482,-70.3226880204979,-73.85157718290054,-82.00818822833818,-81.90727645326902,-76.35608300911962,-74.66110606415833,-70.69308082471221,-64.38856201747186,-65.9860519772009,-69.5091858006501,-65.34835515398302,-61.05306979794817,-59.52055308960967,-53.67955177899049,-49.56373325420776,-54.79434882401653,-59.78998188149364,-58.61131973078278,-56.796078072997844,-49.179970366585074,-32.04643496799065,-23.837316211655576,-34.25896282888476,-48.27396792856717,-57.923965273590554,-62.955163372176955,-53.474768201326306,-34.642939406401695,-30.362021537957148,-39.921758006704636,-42.610208597975635,-37.36524991964553,-29.666984899935613,-16.62407069142808,-9.094201831232569,-15.999423652567735,-19.176678083550904,-8.792080861496824,0.1026290596569348,3.661719046920194,7.668882221106699,5.964939051130372,0.08068189413656102,0.9154741609983714,0.9326220621953072,-9.526799452084614,-18.517367326498448,-18.949845644341092,-18.490677710393967,-12.627482158629263,5.822295544437164,23.02531407621504,28.071622138731527,28.074841359746856,22.13391602909407,8.49220903088831,5.647378056915424,18.408234186489235,25.81899597139722,25.050233945264523,26.346991354465153,21.902473245604007,11.468020964731497,10.128993196094612,12.724086474167457,8.688622239073005,9.747059003901267,18.78747876295326,22.064896503263313,24.575519231078157,36.60202870864825,46.74414901996636,47.36842435437152,44.7828062634131,36.66350644402374,24.10002665557993,24.371323429705566,40.51479140766084,55.04538682422227,61.653476976183505,63.19353694293768,52.858069033049375,32.416253930001425,19.26606472316266,16.770090298867487,17.65444914047213,26.97816990485889,40.61265119891708,39.32216395343559,26.2669559759971,19.03472193695369,17.37164392475472,21.82034804182343,40.966971046819666,63.28700103627753,74.14998305451329,81.62140456708853,87.94698861972888,83.60424492397138,77.3288398104845,79.62073590170439,80.63665908961971,77.03964115474655,77.17489862488854,75.78947485148413,67.08998965968996,61.27333552935851,59.985299460392014,52.48035627087689,41.484491081872044,35.3020261153473,30.244817333689348,25.850742406045505,27.68059077517967,27.765005056974783,17.730334615353755,8.631590984258516,7.337076552685575,6.5015663935605374,9.137106537994875,17.917346968468554,18.097847258150008,7.9043976446263535,1.7581420105567358,-4.323386745455384,-16.84595922051145,-22.056524330795938,-17.967802127344644,-18.62435624079858,-20.72056878037161,-17.238416168138393,-17.373362098936653,-20.96287425916457,-17.563021036120595,-14.373894650457872,-19.777882210098095,-22.13609084545805,-16.48376949664498,-12.753260780579193,-11.288819029160896,-11.208855281060316,-21.224640055763146,-34.608770265339636,-33.79169066488923,-24.486705051756182,-21.722363043133917,-22.825119536396663,-26.939765930795403,-38.555021676780854,-42.750987197846946,-28.552883601032192,-13.495327258570427,-7.7798448046023,-4.105810346570573,-7.7787053289812995,-20.943725566725362,-24.93932170207189,-15.971867744851917,-9.630228256389483,-5.36681347392109,0.8332735684173351,-3.616917473493389,-17.777333987292856,-23.19758117806794,-18.8970206854641,-13.729984477708753,-4.212575908221956,5.3642473167010625,1.0481139647044275,-9.44958150960896,-10.09244557675352,-6.522055848004606,-6.232240162793492,-5.160797181618757,-7.371944893020265,-16.223247788350402,-19.6094776303393,-15.604721866571717,-17.690241725958828,-23.874961196047472,-24.27859235736397,-24.708287731601235,-26.806412526022037,-21.30312600413387,-14.512394465763542,-15.05229283366326,-12.450759206123962,-5.868856172443233,-7.731278230309412,-10.336334277254728,-2.5515309352288416,4.558826525435532,4.904167862901008,6.388328862241937,5.831434227020025,-0.05531858538428258,1.996820066617726,13.659637176522896,18.06773674848917,14.22246078574899,11.638994377915964,4.339218008437584,-7.92763716522046,-9.37855015010657,-0.3472675930357658,7.061887431682704,15.079060428359904,21.44775767530435,14.318791169132725,3.7162122707206455,5.470245434221223,10.127096600062755,10.11284320777735,12.513964603148903,11.963055238611346,3.4712882127392337,-0.2375571435069913,1.247590634789554,-3.4292493164349658,-5.303913606810991,5.562823176539739,16.92079548740039,21.30324966792336,23.12014584425694,17.546445801216166,4.265207908894288,-0.6253954851462591,5.658621873900088,8.435278880083253,