26.926077487849298,27.813868918086833,30.531349540895032,37.05794691667696,34.60335692045179,32.65168777550695,45.632214610329115,59.692157065970605,64.52823644814856,67.9336660799456,62.999359444152475,41.538538449298386,21.197276699291486,12.449559758985501,4.268407512423984,-0.36365483688774924,6.34174821571001,8.246851673995806,-2.502909138165714,-10.213175267505909,-15.453825709996114,-27.6685909028825,-34.34347221410948,-31.133851229864334,-33.53462880705606,-37.19197968782679,-29.836446467988974,-24.90109469311638,-29.560951013449763,-29.430949947993675,-27.567022832129503,-33.57897235756452,-33.299243166608164,-22.905170372927333,-20.592443146550693,-24.529983303341808,-22.801309513012804,-25.615915172515813,-36.35242779405323,-39.279068602128525,-37.41002186332561,-43.18515146781776,-46.96389208340125,-44.85951830945125,-51.4611858387317,-61.26123771191324,-59.15380412213942,-55.97740038245225,-59.95979021773551,-60.60849487131088,-64.10037008774225,-80.34623266611084,-91.45105032446051,-87.1404682414964,-81.6812426766614,-74.68949201752692,-60.341175245133556,-55.773186770683274,-65.67941557947975,-69.76806578392109,-66.6885418948003,-68.2454098861243,-68.12413861164134,-65.23950391194174,-71.88250966205848,-80.42453368119251,-77.42031947295348,-74.41961056385468,-78.29722229852212,-75.71799882824698,-68.52757727164061,-67.36314172048398,-64.28014853486526,-58.20458028249526,-61.78367729204482,-66.39829626054704,-57.918042452174745,-48.157747135921426,-44.55884698169931,-36.37600556023452,-29.415466176689442,-34.480376312539214,-38.95041830112766,-37.62350617139842,-42.183111084116184,-45.53039546974705,-36.701367917413364,-29.068815085307854,-29.810488715134845,-28.68969781115537,-30.14052898107494,-40.01838886867992,-41.21372556711191,-28.32437029656164,-18.586866335084743,-12.64003866433048,-2.655118973394333,1.8247337162839317,1.8473651428099322,12.13127697218171,22.44832346480365,17.836808781617375,11.50815046691769,11.781352468920915,10.99351577262659,15.861850052619713,30.301562982113385,36.638998225182206,32.43138802431597,34.119716274194616,38.09614050314042,35.069364995300205,35.88222157070844,41.824660806957105,40.364615919654916,39.13413986086175,47.820359583877384,53.44079461677395,53.80833557009595,63.72020740326248,76.45531549821382,77.24026474476953,74.7911060022603,73.96923045436604,65.33755365933399,58.23820525799013,64.1905945370522,69.14175116456796,68.13362729475897,74.41507767993669,81.42076014852387,77.60932839528445,74.87380518999076,77.5854474312609,74.23366519383254,70.98304654240955,75.60906219971562,73.97457148958343,65.36814143232758,66.71095117238978,71.49353929093165,66.91477724930685,63.70924427727478,64.57384051138992,58.2703279981841,53.7115722763203,59.98228654641365,61.63243381783086,54.71555980121535,52.814509383654084,50.56359943722554,39.54777441239162,32.74098527647511,33.313455493624424,29.46683989883553,28.17389087672176,38.24260061840563,44.57308522718756,40.71666489290747,39.522958988520365,39.94292940130074,37.16254088637387,42.512572482004735,52.89416825967001,50.1327555207333,40.373773938439655,38.579758791453315,39.39736474609552,42.18874824373062,55.55055556266559,68.74620701475602,71.24439189442232,74.63851992941497,80.37796430030403,76.40318262566352,70.99101998287608,75.48751133161582,79.13493502565507,78.77691940503358,84.11421610286138,86.2657610667953,76.67316581839009,70.05109015531875,69.61066807092936,61.72484074158923,52.22369767951528,50.19219331498647,43.67182443424553,32.3864876925173,30.84159584678038,30.815113199234002,20.40564759943878,12.021579013639386,9.289027991709839,1.6996753945485277,-0.7904004478600302,10.415764951133776,16.663454860288528,10.405102314905726,4.9961823419024185,-1.3038036387923573,-12.117735440056533,-12.393643630703226,-3.4402401117772334,-3.895084323754207,-8.657029662486762,-7.328504651785936,-11.752550095450749,-22.879594764958323,-26.564916905027367,-29.110503897698838,-38.13072755526548,-39.89645289831098,-34.64892383817989,-37.22003808418208,-39.79147137279567,-32.80588383585525,-29.15040981381204,-30.58227546030243,-24.859730085146296,-18.42466856506867,-16.825131181198774,-4.556610289720586,20.24498254470157,45.27571882120299,77.72400334766552,122.0402421477468,159.5031027923709,183.9258670462429,204.8242284944672,216.53401988592995,214.95328160620338,212.37596532069733,203.81137384297352,173.4222330770115,136.00888412515144,112.3601799739281,95.8574608790584,81.172384978129,69.07303231194575,44.077620623662575,3.8299510534009666,-26.668520259428025,-41.77209385919618,-58.597505812613015,-76.32105114281867,-89.33042667211329,-107.1287264752175,-125.23058063699222,-130.6116942390642,-135.8568742787765,-152.11430976311834,-164.0883325250424,-166.65878285506548,-169.75691872884983,-167.438858392893,-158.16660727615843,-160.52860327012803,-173.38847683785735,-176.70708335238402,-172.8284513457399,-170.51449566181137,-162.54532875690373,-154.26111993218007,-158.5718025774742,-163.14895882221043,-156.64319841218514,-151.8735894902718,-151.16751159205518,-143.66716108255505,-136.4764887225983,-135.44773702831026,-127.31857471021213,-114.04733947127596,-110.97636414779645,-109.89077916707744,-100.57260632506619,-94.86929884842829,-92.8904925713668,-82.8970839404461,-74.79146351326672,-76.48987131900864,-73.07276048188386,-63.066551785023606,-58.20692969801712,-48.57603156011132,-24.874428833244473,-1.5610339664792203,16.6931668322599,38.49548907287665,56.143487256595606,65.87932832180374,83.7674926036478,107.52594204380102,118.80404792595766,122.69406672383525,127.6849830181934,123.79337038288038,113.46976843834322,108.57425983865149,101.02050540411912,85.92285740249848,78.63143899205173,79.47432271387765,72.69293845185342,62.41515815206672,57.43285791488134,48.52627629527657,37.84703407710007,38.2974061516581,39.14868407537746,29.46478042548469,21.887203203041068,17.58396202970321,6.359854123032241,-0.6026312177219748,4.585920136173509,6.889472326691379,4.686034410982634,8.039689719199352,6.02065614359273,-8.678816830075132,-20.505939689500607,-26.901929600954954,-36.760482966491786,-39.919347209515585,-32.5821575896693,-33.04572990946383,-41.87605867534364,-44.366865355212596,-46.38236496359068,-53.54526768702861,-54.370973592096995,-53.40842908336938,-62.73679487501988,-68.24420315817665,-60.11063405799892,-54.62347075560784,-55.12722094707493,-52.1606600919024,-55.4134599519812,-68.52382856188399,-73.140450716308,-69.13015379960869,-70.86199457539875,-70.20992642907774,-60.681331145044254,-57.25412934953506,-59.09714662906648,-53.333926924977725,-50.52117515049874,-58.44317842595854,-62.61045044754333,-63.62807296551906,-72.65894958487522,-78.25551599796931,-73.1042295231368,-71.72858885240791,-74.0844451570662,-70.2342173896592,-70.55505354049447,-78.14339936941755,-74.26602890585728,-58.16013185242618,-45.257114867844685,-33.951411474202736,-23.252155489166864,-25.091853368271874,-31.16812527568431,-23.32866929757857,-12.17532035435481,-10.649948665793808,-9.153352790549238,-8.91264664361955,-18.410424756763728,-22.718912196647192,-14.370381644173408,-11.37109075680393,-15.14434365262169,-13.5461833836575,-14.673614112822555,-21.001041702986363,-16.047044278433926,-4.634925058530943,-3.8655052391197042,-5.251629389271736,-0.01929510818748259,2.2605500538542844,5.389023784033076,18.4164221674784,27.507632091427716,25.334612199390364,26.915130008662278,33.4088973572872,34.80055997333573,38.2502200018383,46.501719132287064,46.49801311217187,42.901999259691536,50.0483819493027159.040097322180706,61.28507913435433,65.959576028736,68.85852991882233,60.63550275120758,56.51117394203226,64.90830684978556,69.40706291194063,67.92068467227682,69.39677407865777,64.20567435813024,51.014882619393795,47.434257569842494,50.669555799495384,46.910349362491566,44.14636478705083,45.884870777800586,38.61646576994662,27.81468041046341,28.132387213399433,30.95719921257239,29.987388860979507,34.865025326309976,39.322882358232334,32.53688830125982,28.328494396719158,35.93974336533511,41.339775710586,41.29154664936915,43.40758431192242,39.0979938476176,27.178579779137948,26.179726795514085,34.453426365615094,35.10077825209097,32.40581136397654,30.969456347767146,20.819230878206536,10.140588031539567,14.857684774453533,24.701221726919705,29.704717204483785,37.89819284492561,43.21271552478032,34.47198750116228,25.502471391019434,26.195593764952662,25.18818864466531,24.110947252729694,31.37227665154,34.31260359224642,27.18368265992067,24.168460315419726,24.30684188486124,18.588427077995505,16.94024030311679,22.223411401846093,19.73112524904529,12.536827923427555,12.76337507472824,11.987509631886327,6.8194525873719,9.444388473040329,13.674787284327097,7.749260334776551,4.210225936816824,9.530113636858179,10.43956379101456,10.688401867235006,21.58227256398703,31.786685453895906,36.710827796611596,49.1934304718979,61.55529825949084,59.26681867108995,53.58337462056433,51.70191555908657,43.33537464294763,35.21564407905551,39.31244735916833,44.05184959014751,43.59776888807355,48.9129665467787,53.06067791731223,43.50553925272912,32.67344527603651,29.15507709303402,22.264557482792796,15.451430767196817,17.91960951596296,17.182462058166887,8.186285321848604,5.1940882926827,4.704326385770417,-5.127431505346844,-13.509155264797862,-14.22210948530018,-18.163065130060893,-19.853433244415644,-11.012238380015141,-8.070086683814337,-17.42024438131106,-23.054552950845093,-25.021754839999723,-30.650266262806184,-28.762122407494694,-19.260037722690406,-19.693370023672443,-25.629279337855856,-23.89648621829315,-25.363826645763023,-35.11963599768481,-39.08287651676292,-39.79443490539601,-46.21808879084121,-46.60743831398532,-38.50235001899817,-37.817111544635246,-41.34928650716393,-37.14254518409548,-34.52074473774615,-37.975260842991766,-34.45063483192139,-27.62019115490356,-29.220252954402568,-29.244982739079077,-24.292413249718727,-28.896125473975573,-36.551501458844,-31.78305592799451,-24.004789925314913,-18.914990327295587,-7.0318861330273315,1.9590228635316893,-3.1758993546757077,-6.167553089153712,1.4072004895073507,8.402644687050405,18.344969311389573,35.43993012566255,42.41314529772117,35.88048808835542,33.71817535168688,35.961124862000894,34.854086687120294,40.20870019887307,51.918098798269114,55.036763628984886,54.580448172822265,60.50031422680732,59.989394606147094,48.10963425508452,39.169432446462054,32.026361265365175,19.710678319848956,14.448345677653823,18.22622441488524,15.418414715998669,10.620956257395969,15.104383321571747,17.053603111852354,13.249529585051441,18.400859599599293,27.50341397126073,30.571137293230674,41.01357687618755,63.695982432587,86.75031724389585,115.98301349224674,156.68764609996114,187.048153719753,194.8013390481604,189.94063990035355,171.2835469914521,138.40232423778434,111.88367247495131,97.9522088793865,79.81477753046207,56.67708822898496,35.70983599045131,7.022857663470019,-28.13794079605888,-52.75345865822497,-72.70118688379151,-101.58523295291462,-128.5103887532889,-146.6931615208154,-165.67263819504123,-181.11370881915906,-187.68824224983845,-199.83853156960188,-219.1820654753952,-227.93463124199533,-227.2951322497254,-229.1626236974224,-228.1660050773941,-224.09989097990433,-228.09631203899872,-231.4284331089466,-222.98582688414157,-216.3595543631344,-216.4135166589463,-209.81831720128753,-200.08014127811987,-194.64460461036043,-183.0116410706197,-166.81320257537374,-160.6552657858363,-156.2398423507733,-141.3793980674319,-127.60142191011576,-119.5666650401477,-107.60861973816993,-98.70715548441639,-99.5122354806199,-94.49074352508471,-80.35967093297816,-71.60110965401583,-63.87201776201066,-49.523182760231535,-43.03404956297893,-47.644326553286035,-47.47034925941831,-44.34462228802904,-44.60645704007494,-35.094758388855546,-16.609295613593407,-8.779833052243756,-8.429671293385224,-2.1208095797075015,2.9187934489320457,5.282091372846581,16.79788179654462,29.065787777231268,30.09540997405761,33.11303471760897,44.59872697279082,51.91887713381273,58.12032425817565,71.24445968304701,78.79792802093937,77.1814082057789,78.74911189523611,78.9004861089193,70.8296013390948,67.38022949193105,70.65035225255916,68.01949276585202,65.61688005920668,72.7979747034461,77.32378335065556,75.12932748577339,77.31937999870814,77.96918413364094,69.9231027155215,67.69080424725934,73.94495090809755,74.98226217843589,77.9669241268171,92.34516824144738,101.56547512001994,97.97994997990574,93.90280093515955,87.78163306722266,76.76172196819937,76.148112249556,85.49170144138158,86.90837445161335,84.78190351769676,88.74402576129364,86.0952088086982,74.66550864810317,68.05950665195869,60.75193091423331,47.441024420085924,43.85158069383242,50.600906241913144,52.771489399063135,55.83539236201955,65.86102925898074,67.45112153272657,58.93194369775132,56.29007425771136,56.942914859274104,54.29397727449903,58.453557900076646,66.48951268190773,63.80487128055653,58.95958932922336,63.68101417171902,66.64118198762071,63.621893853384606,63.939039757473914,60.951232771482196,49.347617194224625,44.18983592072841,46.89924383574056,42.60491530806033,35.90042400408217,36.09541216876503,34.12450698363695,30.16231974118397,35.371197159680264,39.603184028392434,31.735367047699622,25.457244867241798,25.073393893650465,18.795029404049377,13.610434343430928,17.817474016472804,18.295428088136706,14.42000747092617,19.341194037389016,24.23078830007436,19.77173532797947,19.72964744788112,25.33358518352168,22.772464172238966,19.02632427420604,22.973471609693423,22.8093012553122,18.22870030457627,20.957774239357924,22.417136293720667,15.61000317824412,14.789945678108765,19.838980299403254,15.39291054493949,6.589972462150748,3.2771977981987632,-1.7659406997062532,-5.597310709393647,3.4585170203364175,13.723904948891802,12.66406040756106,12.222242360821722,16.0172158780283,13.898254398317397,14.192252641087352,24.472028848803824,28.458137874027518,21.513814503929,16.79179696606323,11.088887982862364,0.7892730723941126,-0.31239940756422824,4.71202230368853,-1.3269695269952804,-11.258108308506175,-13.711492341800923,-18.569092742726067,-25.687783422722426,-23.354666598495196,-20.547459397821108,-25.31526768494227,-24.740464523035314,-20.28158035874989,-26.392522073299475,-33.80229437274214,-31.162399031729556,-30.28948293948629,-32.578779266807935,-25.096462364395826,-15.84951782071954,-16.00358075156443,-16.15147901651671,-17.303005267169805,-30.512985803835285,-42.062373963950975,-37.44600956325009,-29.614399643344093,-25.524304437868018,-18.90001166721106,-20.461117402322813,-37.14285779477293,-50.825794190685464,-54.624833749200604,-57.15841076088948,-51.118287166995465,-34.22059675847428,-26.4924051265938,-31.370693310194998,-33.553093337841304,-34.5665492548148,-37.82476824593634,-32.56011184358749,-23.89205371313119,-26.482905571314788,-31.22357075274284,-29.12718581556704,-31.388522342121608,-35.91037717889371,-29.651789505828276,-21.15800667376495,-19.622559640545283,-16.047101039381126,-13.046193287320769,-20.345659696267084,-24.928651886512846,-17.363878435984688-12.760859315069798,-15.254547518645184,-14.930097626043569,-17.789817687731162,-26.69628625357012,-26.51133555628426,-19.24875903901247,-20.368707691849835,-23.775167831958456,-22.858682376942518,-28.480069606819924,-36.02421825931292,-30.79766743078956,-22.34868501543344,-21.398016651743607,-19.00611381210055,-17.265873987773627,-25.158456065330082,-28.689771649919315,-18.50524920681675,-10.983651713717183,-11.102214352199233,-8.556624868378567,-7.863159654692307,-10.729452124628436,-4.002766402979095,5.926347636072907,1.883173221342874,-5.340377122996917,-1.558486713244497,3.8942564166153866,8.355666808275872,16.015163275128824,12.605839085560927,-4.7507425452768555,-13.991536011245723,-13.369576354510492,-18.043786098367484,-20.93819499814542,-14.474944459465899,-10.140080103671895,-7.546505341852395,0.7177003357803531,1.5141845690341067,-10.396167025474476,-14.754426927392526,-6.913702489284316,-1.0172942095937736,4.4666245668290445,11.276115389995088,7.452222956402117,-1.3183685070740578,0.5622026788185042,4.593659723881773,1.7283946180421053,2.421580267394157,4.831564766754963,-2.4002681260657055,-9.668918252454862,-8.94155564460892,-11.24384048264529,-14.083063363669346,-6.012369064154332,1.7078258549447083,-0.06031188132118115,0.2163809290383707,1.5672053506510286,-5.186459128584255,-8.017943969022499,0.53032953366862,6.04986410895542,6.3412706068778775,9.20572355375063,5.555445165403913,-6.322175816231692,-9.698015376225197,-5.673799924908724,-6.935808528774739,-7.140085911242524,-3.0041192409059496,-6.62581553952903,-12.693085984382135,-7.796701525290448,-2.2349110865282547,-3.690208860818437,-1.5092174397843976,0.25943576326465034,-7.805919297251666,-11.865510481400836,-4.502165479327675,0.5155150592659592,4.124713769864508,15.183645658676168,21.269660277126064,16.360143027679957,14.540811788518795,14.174005559189245,5.632495285284388,0.44214318822291365,4.220758862638895,3.7204286810484666,1.4490373737976463,7.69695618902273,11.12376663019324,4.611025009062316,0.837494118309141,-0.6415702012666747,-8.544670720925808,-10.497275201003834,0.2874515501820021,6.785985980170719,5.899514795265066,7.4175503488028856,3.3164321057998642,-6.515216316272149,-2.025072386083739,14.287777654570432,24.098882326360012,30.93779434255787,37.20895414925526,30.30371025730689,17.456592011936493,14.378386003588142,11.536186436798388,3.578201546316278,5.390206111006373,13.477137806617893,13.971091852321795,14.958284612801108,19.51369921590487,14.766735547832486,6.99628928883893,9.201668298254022,10.557826802424486,3.939583116751703,0.9986558482227224,-0.07216884504694243,-7.490206615928935,-9.231106319475408,-0.8199333559108051,2.3530351331750508,1.4437417894463487,6.866734530539446,8.939484802740896,3.6714825868065435,4.660052854539635,8.072725266748902,1.9761407859211704,-3.035945161319783,-0.8499698732575387,-3.83503437394602,-8.904594276699916,-6.331342094947638,-7.6709585976904755,-17.27131778177292,-20.061012390043068,-17.666558737791185,-20.048298401611433,-17.52142254136017,-8.492559998689728,-8.353066438519917,-12.485312976009642,-7.920037138267526,-3.390170218972149,-2.273414801152971,6.944669625125943,15.68223974370601,9.295517313702756,-0.3095000339539222,-4.011248349613889,-11.331816364481968,-16.731359848804384,-10.098962515687294,-5.639148866048917,-10.32826006331048,-10.133030085373298,-7.659956656325358,-13.906041081944197,-18.321525451692597,-15.267411511238972,-15.957067682949258,-15.506398088113674,-4.414105468435855,3.1916325929743428,-0.2919241957712564,-2.0040938971696862,-3.910021076573079,-14.046841916347073,-18.944256871946923,-13.350894117909846,-11.664529001986354,-11.192236884732765,-2.180202951592406,3.3808936249760553,0.9549435964183766,4.612061711723478,10.226231976635201,6.278761354786823,4.590043066619603,11.103070526759279,11.906880310029406,9.694810880967172,15.281696103360185,17.190581636347247,9.881378178545443,7.881850921864965,9.3952435606478,3.9072668642089985,1.9534330829440716,7.11761888814793,3.7411804223344545,-4.739167713847961,-4.158573174897317,-1.8551162809058972,-1.825079822026548,5.491058014023483,10.27155109976988,0.14428254550265596,-9.271643823099085,-7.865735762965581,-6.478295272118632,-2.8226162038352425,8.865708684693038,13.054753222883638,5.109395965382728,1.9748386372946465,2.2017917528530617,-5.9402877810976875,-12.608637170265974,-12.750262434049429,-18.402912508047955,-23.613567937358724,-16.620989686107645,-10.431522456757275,-11.935943162376212,-8.67727001009081,-4.82771543540667,-10.053095187014943,-11.752947665074904,-5.537371912453636,-5.3067953679252815,-7.18254157195518,-1.5640088023594534,-0.5293932897376032,-7.0043831118272735,-5.8478740950278905,-1.928238303706633,-7.355121214443288,-10.612611285200067,-6.3137524269683265,-6.588428779852689,-5.565369107087321,6.533296044041091,14.98201610182302,14.035444068410975,17.553492319543434,21.968272364390444,18.11847035684565,16.78031639684904,19.35811835764429,12.86443763713235,5.570551825513878,11.10815761356904,19.33515538387202,23.769759952987272,30.49804443230818,29.85579110846873,14.763027274720852,5.06542946942151,10.328009048433715,16.285288406133965,22.906043932204135,34.989396257994485,37.32361834761565,28.69896740576282,27.12102624345598,27.69619845720299,18.797152104906132,13.041089454484762,15.106986392402519,11.992597454223773,8.43944875925525,12.95140639245251,12.244770857180036,4.548440764152584,6.981389916423647,15.261186588663929,16.43605444388352,19.602445180594348,27.14943180702035,26.681474968375987,26.229473910715413,36.27751667336798,41.537053149846315,36.77591461231745,35.981231115904045,34.21297088246867,22.321879000024303,14.008243970461432,13.901962073450546,9.712119634368582,6.819452573296481,12.814611556016617,12.567926007259164,2.5719631895252393,-0.7723304986574543,-0.106063729256071,-4.911381475257265,-4.644990912007129,0.207209939272889,-5.528164963016709,-12.212110227372774,-5.06621101249627,3.873893363078289,7.817225622546154,14.404706057958487,13.76203313875287,-1.876878159421139,-12.890447985239156,-10.413157400882586,-8.554937143714854,-6.876362081427894,-0.3062918181937948,-3.1147577516620566,-16.489951160534293,-21.737752490151856,-20.0999084551055,-21.854441760496737,-18.7282565375284,-11.047479821074806,-12.928603382796558,-17.285880111160758,-12.07479513483231,-8.329457965276001,-10.148227998922623,-6.524729352345894,-3.54091563777281,-8.935653572115788,-9.404577667515934,-2.6396561900155238,-2.576526577479016,-4.466447810864228,0.16547978423937915,-0.41896364901814653,-7.348439468314589,-7.10307750744804,-6.814767038720957,-16.635429036047864,-22.530055158129706,-18.84293810924944,-17.92786542140384,-16.100278478819906,-7.603731854515439,-7.20260753535025,-14.779550580588161,-11.365168892126402,-1.7723106006033456,0.5928590658605766,3.509760181362094,6.643817344362836,-1.915707555605998,-11.230459343365872,-8.640166683482986,-6.2293464031552155,-7.515137015966096,-2.118747692389069,0.9143718099052335,-7.61752599503929,-13.419721256305476,-12.847485990363229,-17.524489293760293,-20.782606137917703,-15.590427652278496,-14.484977722822455,-17.31218964123348,-12.5618339832499,-10.21273272774764,-19.982646847228676,-28.39450745958478,-30.368711631041528,-33.82214774692453,-30.56520377163418,-15.166570960995982,-4.816501014105393,-4.781816925215629,-3.368704554824024,-5.282840730653144,-15.501542366078619,-17.917280006782164,-10.123052762620674,-8.590010348152664,-10.485709000678437,-8.171653543392996,-12.546952887337572,-20.510061583345824,-15.601259962790342,-6.725306583342279,-6.818829253562431,-5.176341631748261,0.6509185241182514-0.2429256859264004,-0.9175710899067361,5.184812342963406,3.6240991483112657,-6.568727225943154,-8.35667927008784,-3.795235005188056,-2.8042178628698076,0.0666153142970849,1.6519424517034653,-9.777621522384814,-21.8984911391502,-18.4155426335243,-9.778793939148365,-4.487982605638441,2.1789642503179594,1.3711367463152546,-11.009589667330813,-15.189967354790083,-6.7571121759728845,-3.225496052206352,-3.762243624231062,-0.8155597407756408,-4.0026497632780345,-10.596001919608192,-6.114494631152916,-0.10536742911489627,-3.574532509169804,-3.888893314555866,0.5995014816420254,-2.560198703934801,-5.794334875028309,-0.7263166483228067,-0.0216855745914033,-4.765150996662225,-2.6495986214123084,-0.3177157983305211,-3.806929875550236,0.8408903626430666,11.975372817564946,11.784390303648347,5.969461250888559,7.048152809278319,6.765570624647461,4.958651549105432,12.550243898447418,18.238095236305575,11.020861891795988,6.1351165022892555,8.454641975411812,6.0030853039263885,4.963492468522351,12.646835700765859,15.253997200097361,10.35979344708906,10.098777604089095,8.188786308818289,-1.502649822626,-4.359667622896854,0.6663110444755889,0.17392625222935965,0.6824546888422494,8.872290400799514,12.37376792287059,13.256718701353863,25.58473339547317,40.148342107744824,44.73561236407742,46.89236604591752,45.611211771406325,33.09765648206229,24.16083247909203,31.120321067930874,39.445119364041105,41.28689106874743,42.8954104813814,37.109004208896664,21.648238210005914,14.355733597390314,16.90058337809912,14.99234355149731,13.598143899216467,18.944647295757164,18.991100303768416,14.795170658189697,18.65815350581586,21.32526267533187,14.769336222799822,12.691180327236056,14.512971332359577,6.865673802332907,-0.22484070068607154,3.5691177676817096,5.853774959045652,5.368193704715312,11.112339943350968,10.390955743864788,-4.607470662156264,-15.027869966176313,-15.035326563172884,-16.508094738505246,-15.360527668678879,-9.148252424627081,-12.11352997201987,-19.373965766047903,-12.365039161168458,1.7968355339106719,10.162438249110709,17.835614414402123,20.93249088453104,11.000000950247262,4.214069697051851,13.218302229889401,24.723904627516905,34.33163559947555,48.2604881336676,54.45924347200666,46.61371688625464,41.346271607240936,40.44034217939058,32.67783763819664,27.438685206981255,29.865307269531968,23.96181649927132,11.467499024762132,7.043568885433106,3.5002858072356133,-3.8836242543437,-1.8810176978462891,4.633806058940642,0.027578001565940813,-6.49576989473288,-4.724075465270191,-5.22149471364045,-8.37540792411135,-5.3014353141843555,-6.566277958471403,-17.619933094240267,-21.031873016163388,-15.462405688043997,-16.484894170819963,-20.150240036597715,-20.302864284130955,-26.71012827588525,-33.3662716992477,-25.00711714876099,-11.835470448137654,-2.2369734457738115,18.27379825616416,49.31956826387138,77.98507338135833,110.58992156985019,146.2983645125267,163.0828557642079,159.39743084723878,150.73660869626343,132.88058369757337,102.3900652624082,73.77406968374545,45.97473919297498,8.583882838997695,-24.777697325409306,-44.6997842058639,-67.06529451951555,-94.38493130725085,-114.7544572671669,-134.1191156267344,-155.8380086186827,-166.0899166132144,-168.6185070758978,-178.40452779747,-186.99489055427782,-187.40367832248964,-192.68576398916844,-199.9533011629472,-195.41487286973597,-187.41742138210935,-182.3024705091533,-169.81958424717152,-156.72914472398216,-157.03142253417974,-159.41136611231627,-153.92220633606385,-150.50577321046444,-147.10159086526085,-134.88501405981685,-126.16809156306374,-132.40566558491545,-149.46559126095622,-172.66632891364293,-190.6573400967288,-188.84019280235918,-167.8545057147771,-137.80456479355743,-113.29756366289428,-106.79548204799296,-106.99435006903424,-96.0889014923822,-81.82461114325312,-72.56769246359454,-59.844323371366116,-46.37513529134115,-34.4363789041702,-6.2032416518885345,37.203288555057426,68.7368049973431,81.6268899573169,87.05906269198273,84.89906661989612,78.66603836687605,81.16324864945452,85.69554500918704,79.13002762964828,74.05678041087005,81.66040618974228,88.68602532109715,89.72231484122172,90.67256942994305,84.28687565862391,71.22810347029926,69.19054284335752,75.97052349393002,76.91963652088592,79.33723122019407,88.77559901682338,92.13092493472753,91.64824642934256,98.30726569144352,100.70563249750796,92.20482800386999,86.90328856495299,84.2595553283635,75.97782207446164,74.47181591819164,83.02601753090644,84.1990596781597,79.91172729196927,82.9316705073964,84.86924948487173,81.26400003387768,84.1111345311328,89.10146002393253,84.37119884316184,79.80751777178892,81.34097963623125,76.46481791823862,69.14115669662385,73.01225424515292,78.25412768806221,76.75458067160287,79.54671716240148,82.07877632514267,72.12153099795246,63.54792171373157,67.46246167228686,71.90662903381119,76.54632605651625,87.47027472959368,88.87637161745499,73.88206950536933,60.76380279266127,53.16037452284898,42.79766012770103,39.421318087336545,45.26157158541589,43.660491345998615,37.55117297072016,40.887173613586235,44.80026246573277,42.49235796629689,44.78785537806966,47.627949826884546,40.4379933968102,35.05123960050587,37.6497872064623,34.622683832978225,28.864890156607146,32.94648374776692,37.08963386092895,33.18316580264634,30.95389414940876,27.558235642084984,15.916476262795808,10.806284186560744,17.90799615843996,20.783728729488843,19.741470120909522,24.760360601342775,25.31071215085647,16.965501830809345,13.775535038752956,13.478564557460244,5.722261869307129,0.7862939973969836,3.0557264892492624,-1.2198996154221697,-7.564982407324083,-2.4338100824319513,3.0345666890223493,-0.6919445020987198,-3.041785857467035,-5.31097052884273,-15.40484014377119,-20.984866666635526,-16.826988954026298,-17.918555267546925,-22.4389332159888,-18.383121748227467,-14.989290810686818,-18.62652087519308,-18.489744743521968,-17.86937039089251,-25.19679416644932,-27.465976443090526,-19.980287513805965,-18.287211362950725,-20.307181792692678,-15.507125513750172,-14.899632905458226,-22.478538761597378,-24.1665592151063,-24.034787809987183,-32.031354881562144,-35.29433268942471,-29.906107323217565,-30.996340804183887,-34.039333240079955,-26.307578730808583,-18.395186146905093,-17.76476941911509,-14.878828099585435,-13.629901191274318,-21.586941860037793,-24.250938174597394,-15.034313481364633,-9.750437256824537,-10.367282676555197,-9.096478655613852,-15.552600408672484,-30.349961671887026,-35.06968575544623,-31.348493737535474,-32.33988682577132,-31.12793737842135,-26.83826549786032,-33.919044058032426,-43.96901016371457,-39.950085759861,-32.18134515500159,-29.07757868859017,-20.90399705081838,-14.366745060317001,-21.23894424368819,-26.892732254286397,-22.09068360793326,-19.994714904980487,-19.428786816159786,-12.324944896105475,-11.291565541836937,-20.09211415550512,-23.051445851486175,-21.913670353185697,-27.386462505653032,-30.936357956103695,-29.03983471815346,-32.94339648950021,-37.40758642829014,-32.2987222016349,-29.42981004924774,-33.34453748417401,-30.040076183406793,-23.627151507845497,-25.468153104630744,-24.794858167027286,-18.282651668635463,-19.33520757065927,-21.712747692237514,-13.686656419598826,-7.104580656606661,-6.892987792300296,-1.868175392140192,0.1294603522632014,-11.647323762971704,-22.371218588973434,-24.33094592169267,-27.931790831407707,-28.61244703238574,-19.717765509132107,-15.27744162164549,-18.617317699291153,-15.583077016966577,-10.699690341549148,-14.257807951761588,-14.66752798472509,-7.605223785615247,-5.631779099149136,-4.644081399215549,3.8785664814662417,8.169541482718143,5.86438738185252710.729990204201728,16.247480966384664,9.22824396350034,0.5016483393889419,-2.2708283728824563,-6.500613827892145,-5.112303887892994,7.64653990199462,12.463878526903908,3.0534583908733284,-3.157725420685167,-6.095743530578389,-12.687115826885648,-11.584827317883992,-3.8884108706878284,-5.384449666559121,-9.5521077840958,-5.883013673276193,-6.087132130719231,-12.356622729650734,-11.369533090950508,-8.945536380492989,-15.252656659397967,-18.606385923860568,-14.844949478055332,-15.796523044978203,-16.286315840533874,-8.936007737817675,-9.93132672522729,-24.610221794602325,-34.99080631641288,-36.903417159714834,-34.465599290538414,-18.874847837623506,3.408901127297563,9.10143497604337,0.8473786638032919,-4.240293581381576,-8.494228444496732,-12.040873566877712,-5.480450555511166,0.6940818821664103,-5.057919605270872,-8.735079780352871,-4.87431475876385,-6.216216519848749,-7.485593858063046,0.7331103656151852,5.796744453450715,4.650800997626606,10.328943435973738,15.758505808291728,10.532859116544028,8.280846053634566,13.497965187027217,13.322550020037259,13.378391555593003,22.72324775815751,27.75612408728115,24.168620691212972,24.70166305902559,24.60684952645743,16.067169388281844,12.358254463552782,16.16806437738351,13.399983095055843,9.01343672155776,12.613593553238802,13.264977475836645,10.159131147936357,16.27642615972349,21.86294442333984,13.268533341121248,2.316851775090277,-4.3002072162768865,-13.357299266223375,-14.755625220466074,-0.8193922501734185,10.045080036317085,10.202567483724541,12.00021009663182,11.903667676492358,4.044202202354779,3.0490532179019483,10.606966839376188,10.615629833483162,7.662707446452394,11.621861237923776,10.519658658241696,2.8815379109323587,3.3324358427547804,4.861878401581593,-2.995977669984765,-5.592795723332928,0.9022309373820865,0.4630900897251107,-3.4322025285452735,-1.533668333127506,-4.246504139232274,-9.662107624798137,-2.646906424058198,6.4281493004942165,3.250219370606123,-0.5893685919920427,-0.07829789514071939,-3.77857187732726,-3.535212972031601,6.127485473421888,9.530876361805499,5.611883564502422,8.704033797647458,12.074575852924136,5.825320508689477,1.6458196418261903,3.059284387899342,0.7281713876477169,2.293986471033701,13.532828257024546,17.88558270373786,11.79470509328512,10.187853012672182,10.256047027500191,4.601106550528967,4.928642290976615,12.201712855190257,12.26963637223248,11.036639868985535,17.57154274485877,19.27759658555685,15.132987086879865,19.340601419909383,24.294839582590882,18.99008987134222,14.647019919267882,13.1516221672014,4.793143657197683,0.8506767083251909,11.246446403899766,21.14559815859375,25.523180231927178,33.7963654983655,38.098003783492835,31.535904987982732,28.613685947100958,32.69268453616611,32.36671704844205,33.61406928075558,43.328345364976585,48.07944381591923,45.93391003151339,50.18920501294768,54.33452591547438,48.37089427133364,43.604869156860055,41.787537940882714,31.179412275660155,20.955476867646276,22.121974714833158,21.652363169416155,15.70118335584607,15.866875573415363,15.065507625697759,5.290126090301717,0.711992529133952,2.3875963907799536,-4.318106155443235,-11.72288875138523,-9.77125043458458,-10.06179237112428,-12.587835846523905,-6.828765562022182,-4.539441652357494,-14.747187362162393,-22.368057365014277,-23.95512698445171,-29.564728788216073,-30.729200131395753,-21.277140786977462,-17.53994647401483,-22.673676105797362,-23.303715061871035,-23.651196423442414,-28.27940729486628,-23.622789551249742,-12.758335628592807,-13.95156226845289,-22.047732125061504,-26.10370736063097,-32.48683757306205,-36.210203705745144,-25.216650740765793,-13.677021411605274,-15.610821542450887,-19.92208041206426,-23.45590292405919,-32.29103550783965,-33.5810742549259,-20.827934600789902,-11.704807470387829,-11.580017435566914,-12.197645700764541,-21.09364211699513,-41.07405198335612,-53.918177302697046,-55.707379493942305,-58.22503374518244,-55.96233654917986,-44.41728787130076,-38.35990614457954,-37.30245607485154,-27.61644129458287,-18.887124004845912,-20.990118249726567,-20.727621415752548,-16.53040636847143,-18.9282402616064,-17.9801604293523,-7.330357712714111,-3.62000607681059,-7.615135577132175,-4.73766330013518,-2.2229970013520854,-8.389155182296525,-11.62492821941812,-12.393437008733382,-20.437162353619655,-24.705238775519895,-18.693625850238142,-17.631495386615548,-21.18256191957908,-15.516067174356976,-8.01179342894909,-6.864268100988516,-3.174077294734722,-2.000572616885324,-13.879628664322833,-22.768076883069703,-17.19463081527902,-12.336623466721408,-11.787135715191647,-6.888670401579173,-7.462099094372618,-16.33711100530157,-13.809764764836384,-0.7344178614394847,3.9409541493604747,3.928358913764771,5.556319391408268,-1.0148967777596427,-7.691344583132352,1.7616652573255651,12.594069622843177,9.538148915036274,5.471954432551284,5.0830831156648335,1.24195347848569,4.056275275613574,15.899033989030508,16.15830389024032,4.333204322781464,0.040978409327175114,1.8305633723955335,3.1021792913590853,12.396068000961252,23.515251612236067,21.265586355189633,14.420925188650283,13.002932471803497,8.571102099134226,3.6499709047761186,8.861863622412471,13.667280327285088,8.525448696384684,3.987542905431316,0.6266488278906717,-8.02557932951311,-9.009422649380012,2.9885646688177934,10.221189008536248,9.968664382988994,12.575349415201522,10.654002859192413,1.5202333277456836,-0.2462444533839705,2.490983082710503,-2.3828025607574808,-4.970983614585577,1.2776284225711025,3.918404408845403,3.9182302208758206,10.463632240413618,13.890151628733541,9.362989878892332,9.783045638732313,14.305905152758005,14.10705917075739,18.142254938587023,29.05895193225404,31.67521344250745,26.730256734276885,25.084750486402445,18.775840650426417,4.535179264742979,-2.2416545449496943,-2.243010006144437,-6.987118613688731,-6.762996705349902,3.4642949753917405,6.983372786070953,4.766858650466059,11.249143700406444,17.969356086423087,18.39741745446141,25.103295204802528,32.77337660145531,26.310516543362585,17.008949060173467,15.98018503892038,14.438050944982125,16.02521260479469,28.075620829563494,33.41522501693568,22.893471270060076,12.174287662098013,4.857623215501912,-4.861212273529429,-6.451438014032018,1.99301364738491,3.1450625566403794,-2.297913678872391,-0.7414150060123177,1.4826345888954462,-0.9547086470684221,3.394410679003589,10.710758904745665,8.473127363033633,7.947439542984894,17.5913082151862,22.665415553066747,21.50000952586187,25.0103903094758,25.834909190103538,20.8494509543603,23.902833353268893,29.47493171692202,22.681466606474018,15.054180221024037,17.63387577267301,20.678506908671338,24.46938413527704,33.95010855322597,35.45412386177973,25.699335713539607,21.417140727385622,21.77191519166561,15.792329130902399,11.814916845055595,14.393452361131635,12.564256164451352,9.813020877674905,14.524580528739968,14.029403075003406,2.90317820690341,-3.0378732029437687,-2.8400899538934166,-6.70786315828389,-6.750684575288195,-0.8586569755143514,-3.7580561501454413,-9.345304304145868,-1.8357194631029512,7.7832615663045654,9.16951345985809,11.0342955695251,9.026574414893362,-4.193599330371112,-11.52825454419928,-5.033800895421429,-1.244190976043224,-1.7780776946821488,2.5316053055384633,2.3494045495118865,-5.037487979477675,-3.8398657140063874,3.4342047008451226,3.0034996735496184,1.6574658657512455,2.948082645745452,-4.972469882661742,-15.195015123510599,-13.036440829691248,-8.178735439311403,-8.332286198278672,-4.178395429343399,-1.5767703950477798,-11.602241824376739,-20.85871631247607,-20.92824934978131,-23.29543221601276,-23.773840531436747-13.131552351431463,-7.259166280561709,-14.671845396121432,-20.127107262258026,-22.044083796844973,-27.428473091538212,-24.48902202469072,-10.33451532890385,-2.125808467015555,0.6885799454838826,7.905388565568563,8.57067715517376,-1.5827207294503278,-7.496998814180937,-9.750426715487427,-17.51193485380712,-21.394700259940876,-18.501272502480447,-21.878041717051897,-25.847101640536636,-17.88158735303631,-10.460847353576803,-12.80619838440375,-13.51469977581473,-13.396336595718918,-20.19592268524379,-22.147223888251226,-15.742075117875338,-17.500433960844035,-24.71577678024045,-23.2099595842323,-20.72764115576461,-21.906123648172823,-15.258551104749792,-7.246445881973757,-11.501929498377498,-17.473591502115013,-17.03651364612737,-18.871667156669865,-17.35032494880946,-4.825312224059971,1.3467973904263189,-7.217136900372319,-14.726937305715154,-19.28447798081605,-27.896661947535428,-30.083244566321945,-24.881684903980318,-28.18958708054367,-34.526007753827855,-30.455044434885927,-26.677668291346514,-28.600019194086755,-24.311713255938308,-19.791792456219603,-25.702349611466317,-27.607081735638733,-18.277338211582215,-11.209645581469204,-4.815649358113543,7.196781635217861,11.273120967892494,5.102655314416836,4.413078269737574,5.728003042818393,-1.1298530663326796,-5.422181291293778,-4.442589153996274,-11.38909110547872,-20.0693628058972,-18.599702778164477,-16.59204329097894,-16.604157404525136,-7.239832036619392,3.1203445161240424,1.9364999115575432,0.46159418808740454,3.58277155487109,-0.5382451837670694,-6.051560670947132,-0.9722890295666691,4.87310024475718,6.485443325878027,13.350710150979697,18.56546580866225,12.557925299376212,8.29658078506878,10.950307611853573,8.357784405542134,5.641835273581194,12.358610324421237,15.512959397582309,10.972860602930897,12.469486849109327,15.172295332764342,9.788550166902873,8.407869167221302,11.732632861722632,4.425246161317874,-4.914176083032723,-0.6898938682702154,6.566381871469626,9.898964104915125,18.10583663833354,23.173768867836195,14.789713948780246,7.650481082722637,9.055752532298209,6.6761890658280265,4.387608934839976,12.123546873786818,17.33036884694181,13.184254169546026,11.208875187844312,8.771493161931584,-0.7308669235890193,-3.326492463840256,5.052100733778701,9.476970907138803,12.16355511549636,20.7850631340946,23.777716835827654,22.215329944098578,35.106476612255385,60.63185915732857,88.89020345398778,127.20453268116742,171.8798640958742,204.31922597105063,226.10301622477417,244.09320910722124,244.59721193608846,226.06889470237667,208.05754116040012,192.21080009823464,171.00475716786306,152.83725570332456,135.63775505117036,105.3638550269459,72.19152831688854,51.300373077360575,32.03702076032341,9.142098450756873,-6.570139165101492,-21.958497629230852,-46.68646624758666,-67.33328508185862,-80.06091245050627,-98.05960496349608,-115.35544867407157,-122.48799019891301,-133.40934461616615,-152.63123327221757,-166.67988304656464,-178.72882243825057,-194.21264846475862,-199.52051471587123,-194.7367489340295,-195.83696038782716,-198.74232806044455,-194.31600842016528,-190.90123390251736,-187.60391616731982,-173.72162361152294,-159.59680119245598,-157.31549607724418,-155.89508632892506,-150.53362243142993,-149.35590234462532,-144.39092501279578,-128.0681204903198,-114.61130032300309,-108.22049987813504,-97.22334225726065,-87.86933031480677,-89.29327074133849,-87.966905514717,-78.669036431467,-72.52562815489225,-63.495666862349566,-45.07824565036991,-33.67087452388344,-31.62949192133418,-21.74303650108371,-8.342911248564718,-2.713754534754403,4.617370663904575,13.53062424308638,11.672244044978108,9.393867899542238,17.551285940647237,22.40989331366636,21.23045125148771,27.127695449401674,33.730085661587566,32.00213314696479,34.29624106543153,42.630568088997514,44.544419065749835,47.33167591999384,59.533802283771806,66.96227472452684,66.18774789717995,69.74592860122608,71.79953530353211,64.78958289236553,63.09345377041175,70.19087144016854,72.80611525926903,75.84569698887029,86.1856961873166,88.90280039002212,81.43178902271556,78.43280924315313,75.15429436217605,64.61764454558514,60.06823898622005,60.82746058030796,52.16916658067454,43.466195205065816,48.042648013395166,55.58529422084132,62.57853608246798,76.89145359899396,87.27572038989366,84.1429664987776,81.98052493399422,84.09941040916189,77.77885206398072,69.94095661163261,70.52194863796232,68.45823021296927,62.15789681858023,62.50898375062495,60.68497559827137,47.312244784737715,36.374681662902304,33.11302038350515,27.858076562272366,28.166391169519102,40.56525106276643,47.209827057461204,42.24999117382827,38.68925041629088,32.23031553424978,18.390430297521903,13.636099940102932,18.89602891340752,18.741836494293096,18.183870022260635,22.855258659134414,19.39336840875144,10.026910830974053,10.498648807421333,14.221721371180934,11.82757111970174,13.342506529417417,17.73354774112626,13.198654147947824,9.37550175699929,15.050038436488872,15.983473898565277,10.419858065783764,12.010888948561547,14.963239376062422,12.231945483039425,15.90410704761712,23.247441687005182,18.103867188878027,8.634171203964776,6.329446175570657,1.0781518291906815,-6.51809324813992,-5.035310015313206,-5.063038727485303,-15.028395554586783,-19.640907239495213,-16.706161408207187,-18.210000552971664,-16.654367738866824,-5.731926056759869,0.37787109979503697,0.012592227892737506,4.0521157744857295,4.165040362944477,-6.664932574973828,-12.797604065272925,-10.519737248418657,-12.633807439387631,-14.348682514036259,-9.46233456897372,-10.949275039028242,-18.34507546054529,-17.044515623444255,-14.421179707182336,-20.366972269784622,-22.8884780409908,-20.861422897149208,-26.51503825954471,-31.98273513683833,-28.521521647982986,-27.192102921344414,-26.43299128905892,-14.540345021799464,-4.892493851421811,-10.459778820576211,-17.61210996249082,-20.53495748129884,-25.027270283871275,-21.003018458101387,-6.7950974090514835,-3.409041635553101,-13.345937428702305,-20.713903719655143,-27.05734748296581,-34.49733300149341,-30.696302396720256,-20.799863789954927,-21.319242736403723,-25.640502075850726,-24.948912966921334,-28.667820435812175,-34.404915746788255,-29.94692932791834,-24.2960856806422,-25.627719709217597,-21.570928086648166,-13.209139506227825,-14.457180150115043,-16.982227265383262,-10.528531231731483,-6.363010391541719,-6.289877899028803,-1.716365171093327,-3.7287040860167937,-19.764342749306277,-33.138347402015135,-38.26740213067387,-44.15880797560592,-44.29116808568335,-34.664392220106365,-30.326239582358767,-32.947833721305294,-30.610985491950984,-28.671173830864532,-31.996861701804328,-28.439073139018667,-20.11754122779349,-19.84414009794771,-18.631936028646702,-8.754798709293603,-3.841593989349496,-5.242104361512969,-2.601964267794071,-3.7265829263221777,-12.822261569207992,-14.88421479945232,-11.138140781896759,-16.822529969080765,-25.050279112279025,-25.963268949711725,-29.244386416245103,-33.43981080730174,-27.35686074304859,-22.685433349388973,-29.236968990557056,-31.59855857119357,-25.10395170967238,-20.39514028726088,-12.251314642944344,2.1527644498587897,7.76239317375415,6.530103454920533,13.729422043477431,21.682881752423658,19.723604803251906,16.411153238379242,12.160880846363716,0.9243467945521653,-4.588404120430168,1.710252344328448,3.4623845502399555,-1.5738214735337317,-2.045897760161742,-4.088202604360526,-12.02411060770876,-13.56332010011414,-11.047689778909923,-16.101560490074853,-18.050524604828006,-7.893938830248813,0.9409624554799392,5.9622897844213085,14.895842579111124,16.18067983351603,4.738161163071904,-1.673072013891047,-1.0007795381939908,-4.422230636960063,-3.98025520028201465.038496145294054,8.861916166910381,8.201097224738378,12.61025285242792,11.223963697743244,-1.232202201445201,-7.813892041185332,-5.780167609854573,-6.135997513231847,-3.2466119041200336,5.021980572193952,3.8620505838303383,-3.596822024986909,-1.5363151407687896,3.2807812218677963,2.562096650443751,6.517167604576141,12.46270777963143,8.986094150433223,7.769665705647243,16.5235748672126,19.91491688874046,18.00662923071473,23.383781948901117,27.06926536992242,22.720589147631692,23.781709317988007,28.370553603894436,25.11239103328836,23.96069589334509,29.259234495714708,24.476276500807423,10.327878101688922,2.3364895786484925,-2.2492572674530833,-6.464117121630988,-0.5395168187732442,7.493131501961549,1.7849637529694622,-7.157997088086834,-7.178985146062823,-6.321652146473456,-2.933686967623462,10.61549802105306,19.171736325422433,13.645148782438174,10.183248878576524,10.872767756528807,5.4855136518763,4.030079489797878,10.957645789126733,10.553327179685628,5.8848900778081195,10.630293743049167,13.86158167396012,7.904489139925063,5.444012812862377,3.790055897529096,-6.554665236058083,-11.665519590601662,-4.266569563770903,0.6771597070390932,2.2127268239933784,8.360233788160548,8.911437652666152,1.0786515803919396,0.6425719242663611,5.672834135252689,3.2264605664622987,0.9736960295726109,4.503561248411196,2.783449823608195,-1.2365801757210397,1.7795905536611416,0.9203984030440606,-8.196597256268598,-10.983236401628252,-9.260676755753812,-13.90053450034263,-15.417259587037366,-9.39198303774404,-8.295174914492016,-8.54863775706936,-0.8504353928429906,2.5602833252560124,-3.1678513500160506,-2.3206961610895043,4.561321388043858,5.902509453794849,9.193541190979222,16.547792391326627,13.67624825669293,6.465095056586274,10.055079568114117,15.067383398050856,13.487302442758033,14.12483854968898,11.969665663305006,-1.4039259514949674,-11.599440716126887,-11.66685158673905,-14.3893503250093,-16.050262581491495,-4.81481981255397,8.551294404527155,15.703996510245464,24.204345147235156,26.3674968123765,13.176965413546323,3.2177113195568277,7.337349648419059,11.162588616198585,13.236099503026328,20.458429807898245,20.977644770710413,11.890166748010458,9.157755318897202,9.701088486587494,1.579952263330946,-4.379301970125269,-1.6104324482909846,-2.4257724880467135,-4.791511833108517,0.30342354846917097,1.5854806922614486,-5.754661411158658,-7.970364649295593,-6.711113919597707,-10.860554122218328,-10.432823996709363,-3.106681662399943,-3.097625398293501,-6.9047561809586595,-3.6765259336836884,-2.3664023179601203,-5.492935868919773,-0.4617284913037274,6.227789650710732,1.7788380062829159,-2.4506943816036477,0.8591848581992576,1.4726624428955035,3.7935775565593293,14.771771108470654,18.225417016580696,8.454014952212514,2.337170022710367,0.8785565496943015,-4.1389951933718185,-4.358142273905569,-0.5545876574585391,-6.8964941478747805,-14.98494036021133,-10.564588261996068,-4.524383846819097,-2.648565003790339,5.537701501392828,13.03239096692652,9.152899979903875,6.4695527593158335,9.791516043752047,6.247661254034483,1.236165783254553,5.838247566504917,7.26986067479995,-0.47895794967000915,-3.3472208278159705,-3.5988260831332197,-11.202310533250683,-15.330119806148016,-12.404592569061343,-15.559211439840078,-18.38086684088583,-9.27870552801518,-1.6509062606647371,-2.9129727554650184,-2.4210802234357542,-3.9312849960356306,-12.895670378214113,-13.509222820627958,-1.9180044701468493,5.2752703451498535,8.555029203867473,15.325607825986665,14.68883913618338,6.229467256769131,5.4238236157588045,7.100719522668461,0.12297232963007287,-4.16571151862588,-0.9716226034264621,-1.524069560923003,-1.0378408160599,8.479308110470637,13.592111560997681,9.300563670319733,8.91921034617329,9.295588617016795,0.8326558087152067,-4.874247604779216,-2.450840602918062,-3.8214778189695138,-4.374677121743344,5.1577468799405795,10.858964475480112,7.429909034245203,8.753972443333913,9.958517544166153,1.4529959837649455,-2.3600261754287253,3.40400937281734,4.54599679575592,4.3616414174008575,10.708545954501751,11.113077934105384,3.727286232204194,3.67423656186754,6.197782085294396,0.19311593001683036,-3.542738148601449,-1.039215338590355,-3.7937140828968863,-6.313636187734799,-0.42139070204690654,1.8325533238441498,-1.1606143365138093,3.0307584993048216,6.081760262567449,-2.5222908439654925,-8.67318897064353,-6.950953820818494,-9.291974685371137,-11.57712042276294,-8.42632929907412,-13.94323820844575,-26.291346989608602,-24.589194014183725,-12.428064801692045,-4.946788653259189,2.971757516645667,10.310423358412773,4.19761561452294,-4.9873439991939055,-1.981349344987397,2.4613350508756606,2.1729425496263435,6.794810733912447,9.145417966684272,-0.5831098640091819,-8.11119049807699,-6.785523576284099,-8.944918831168216,-11.451475947105289,-6.20734682794525,-4.462449592759716,-7.990202659470019,-3.322734578815927,2.4001401866789704,-3.604727477947628,-9.660636830821893,-8.829848911666648,-10.637110628961569,-9.132571803648954,2.6342857313008485,7.852305014870474,1.0957570945786754,-1.721102849578759,-2.1011113290586296,-8.237162650258426,-8.367057058361006,-0.7188047984414938,-0.9673976864771694,-4.877659674096112,-0.9504367350908902,0.6731622648145354,-3.099469146244259,0.14743239019222099,3.455933434696891,-4.686250208530998,-12.145910890671125,-12.487179483555957,-14.059467635410693,-10.152884072735247,4.586601195297576,12.30095350032639,6.589193305797727,2.345200635858734,0.24167754068935468,-4.937869817266707,-2.80550450338602,3.9759873679912356,-0.5552438877889996,-6.652627699125139,0.07105858925995312,6.719627947357264,7.210087333577091,11.870602550674116,13.65827071349035,6.133120899431618,5.153618863410494,11.55875600216031,8.572655844830425,2.2169337701015865,4.60777906348307,5.886233437370409,3.410127657788358,7.668753684749291,10.588387090072079,2.691000451032254,-2.7983664428835358,-0.9455479055870285,-2.70300387054955,-3.5620592982150243,2.981148571727473,3.9781816496210736,-2.485151097223954,-2.270245067106073,-0.3299059108189213,-5.6815298829850915,-6.698247948322578,-3.015983908615625,-8.29572199047665,-13.052769690417046,-6.379386086669719,-2.8755865965558445,-4.732578254840998,2.331566661866101,9.341900631502776,5.265752377373805,3.483609898344417,5.334827488131969,-1.946716821404983,-8.362191191275151,-3.821754353497328,-2.623876080312017,-7.091689110525223,-4.350318837400637,-1.2953371537985452,-5.657937692339718,-5.267243647036873,-0.45190817849792264,-3.699054596955646,-6.454957848480353,0.3316331716791967,3.7175101342307366,1.471099583524934,5.348463346052101,7.857111208621923,0.4461022756292876,-3.3522619923515546,-0.8363230855807082,-4.817630469255102,-8.780502073076331,-4.163299269447651,-4.024500746105873,-9.385809098198964,-5.356253589566936,1.5166676485868416,-0.304717892085824,-0.9729825697867377,1.5234610777576731,-2.462347791362073,-4.136314106262232,3.1446617655715228,4.307772158256725,-2.5875592925893027,-4.120743809625334,-4.355262593286488,-8.870408300435363,-6.9355158479041465,-0.6996694801094647,-2.6431154710636156,-3.755832875912127,4.468705225195383,8.265684573291388,6.23346575254424,11.273314450807359,14.839073497414283,8.014757127917392,6.3593055253121324,12.197842551221232,10.137409621632646,6.658627233617731,10.742027780482038,8.38715071546191,-0.5825920830097209,-0.13971238049443513,2.623301241867566,-2.7726896437706,-4.179850233616325,-0.15862664986315655,-3.0157053254948383,-4.504266242162115,3.8922744053287395,7.963573203694819,4.346275856517465,4.044142283650146,1.4484048876258724,-7.281512781836806,-7.103779836965871.936452388543973,4.182976389858692,3.2633274745819607,6.397074725976227,3.416762932910042,-4.131570289323712,-2.8822244708605265,0.3750310481589971,-1.690029284246268,2.7402034809054028,11.070348478100946,7.9524837638305765,1.8346175847541883,3.5804217426348433,2.5699413351530795,-0.7140536831245989,4.72210913983537,7.8964651633862175,0.820023373132182,-1.0568048563988581,3.1218206954166923,-0.07287914333614953,-2.3698016092787793,4.4638527256949505,6.814193493549762,3.9252218448616594,8.775105974826115,13.569500412515065,9.728589242557213,9.512405666323026,12.816124829442158,7.145309669113884,1.963532410694059,7.1709931926242705,10.279540827073843,9.311422875792104,14.08981281091457,14.932559431247524,4.322182918600367,-3.167983963731563,-4.961161930512215,-10.733467912258268,-11.220263290689868,-1.2754100331796043,2.5176717229954306,-0.9622853764388268,1.1249732482408146,1.7295922852775454,-4.556718984414871,-3.831424136124117,2.5738419917127695,0.8569377467122323,-1.3347814445048973,3.537070316178899,2.9668299646954672,-2.369323371424981,-0.0004863146911007199,1.5682269849878878,-5.3520021011140635,-7.567031064661638,-4.7547817002359825,-9.640288781890323,-14.19120172094058,-9.238921904700096,-6.5060801865344455,-6.602105280342804,1.0972237267526403,5.450843876508039,-2.737324548995323,-8.311186165089676,-8.337588945805615,-13.828675257146212,-15.761032447425958,-6.909601403342197,-2.2133628906364873,-3.431716080845161,0.18405753859804586,-0.2804656761044423,-8.99422728108997,-8.927851980982638,-0.8925844144468527,1.212158741580957,4.792042006877935,13.831561462569574,14.084884888344213,8.363012384071864,9.211048579048219,8.10810521552505,0.6355970932051354,0.7043752109966794,5.447676076145868,1.324591908593271,-2.8579944613274715,0.7113074936216477,0.1964182846251219,-3.274782990975427,1.056586224126848,2.8472587615798326,-5.483376716108491,-10.957148164497397,-13.014018762809593,-19.862047052432196,-19.083223722413386,-3.9284721052931713,8.086223072839347,11.905844207053008,16.190653940154412,14.653115303252235,6.788140130680139,8.601308153839824,16.291875429686826,13.6188097990289,8.028297657600717,8.070852961810342,3.9840603314989598,-0.03459525539432429,7.863267153312151,15.29329727484335,12.838810723051507,12.607550359693578,13.936778541183934,7.928659585987913,6.783443188526489,16.575623009516505,20.913533186361988,18.59799484791133,20.71958623140106,18.997063097181613,9.235942259247024,6.4019766934844125,8.788691405727391,3.314014899259283,-1.2373406381221532,1.215634051394412,-2.282972495655291,-8.012842334660071,-3.125023649183901,0.6480450163958211,-5.517797048089789,-8.40042077402834,-8.180857372945098,-14.47455617600887,-16.341060149044054,-8.822559312341525,-6.938559981806488,-8.417788492576975,-0.19602587032798358,10.086813093380522,18.32948742476008,38.261314993847435,68.55185260173697,98.16777702236476,133.04658643676984,171.5597893577555,192.58727846375436,192.94080099018106,187.06913445188965,174.75313878106115,155.40523161552733,140.2468301242381,122.19718985815359,87.61862678711569,52.03940959513258,29.835683129981202,9.506419147345856,-12.018076435249723,-29.76511909871039,-54.99292633697789,-87.62754615951829,-107.8857355155775,-118.26722184539491,-135.3720064354444,-152.69227376158443,-163.65668931092762,-178.10409977294117,-189.56417497057197,-185.4986666541256,-180.07339096093364,-184.1103002632382,-185.04647309754733,-182.84362848095213,-187.1376983715382,-187.42180932896065,-178.68733402966518,-175.9274032949376,-175.84799974393133,-163.52307055612243,-148.7568721635929,-141.39831056382496,-132.1791726730816,-124.91820366757658,-128.39953006694518,-127.01323458562003,-112.00934073042271,-98.58424787957901,-88.50951104173022,-74.41568724950056,-67.41451450929523,-70.13443977203191,-65.54818969734264,-54.769490104813855,-50.16273469207573,-44.27761324895458,-33.44951293762232,-29.495145890332303,-26.718528062680516,-14.049317648959661,-5.324031622668473,-7.918057545507509,-7.0460604807570295,-2.429261036706756,-2.4106562562295935,2.3980642801771945,13.504062858679598,16.979987929158625,18.92729918636387,32.5153186590517,44.66883301376305,45.42044286505881,47.65806784856633,52.30438390890545,51.399387752157,54.98852092587865,63.71000124906075,59.4848512563318,47.596212312907674,46.19111880490272,48.34419404954615,49.03145435060679,60.76750269204859,76.87668159603217,82.39154440492646,86.25886216033396,92.42008081936835,88.77014764463175,83.2570094302803,90.36611631241716,98.94794247398951,100.76381946636315,106.69518566524079,113.06503476544098,108.87820052927758,105.4980557950806,108.87595915419847,105.01465092880005,96.68643193019739,96.67711469443519,96.11074358304876,89.61331704408795,90.06295253372014,93.43954198231258,86.97144547520725,81.31634787434689,83.25450834743602,80.24657951437037,74.96528282995091,77.57655176629706,77.1026829871135,68.49824349421071,64.72447676870809,62.101907875620334,51.67227402066149,47.258408502118634,53.96669489484102,56.57713917015697,55.49282828060831,57.60735985043263,52.20554159431699,38.67800747447812,32.624388719663926,30.880975936744164,23.624717833911564,21.874566025794845,28.842056936383624,28.948838826554194,23.72889449642344,23.47916206373654,19.970390722073347,12.45865883537481,14.905431816096936,20.350974660007576,15.407789444116247,11.425573819242278,14.333968901489802,11.709496829868602,7.383848162440557,10.30105565674248,8.620084970064223,0.49545964386331676,1.246377157248589,5.063219623560192,-0.6939853802594507,-5.1639258547851234,-4.029191256621579,-9.209310172378096,-14.600381885708298,-10.562647468652145,-9.771244179692438,-15.333835725870028,-12.886350052920346,-7.739956653674799,-12.183416399701713,-15.826043666704775,-13.487258695430292,-16.02840497360596,-18.04637324391169,-11.082863683366988,-8.937736686792716,-16.03082240666079,-17.256789830924557,-15.444914040859105,-22.51267158806177,-29.541139420079602,-31.9081571638471,-39.086886816411166,-42.47709499895218,-31.518162327420313,-21.746198495479995,-20.86335228082325,-16.451322462983136,-12.62612963610281,-18.700788534142966,-22.47822502632713,-20.6517745217101,-25.394810892135407,-28.566680092994048,-19.259625122901177,-12.343695459762767,-15.185793970826731,-16.316883041334265,-19.68592380886755,-32.186807929499714,-39.1793310704812,-36.31997713014388,-37.530030001947914,-38.74407961089782,-30.172308389909084,-23.229460069512236,-22.53221385085437,-17.06912544851798,-12.733771355874325,-18.751809691961693,-21.708414818506284,-16.916796037288826,-17.98102913580221,-20.35064664785124,-14.219969343013702,-11.618808251032004,-15.017828261912433,-10.607850197307881,-5.716487374870495,-11.861086363815488,-15.534806559570807,-12.310728794051215,-16.25499210324118,-22.616522025994897,-21.95747030944843,-25.046249685263742,-31.236176682758327,-24.760856838062168,-12.443472389280672,-8.797081375426746,-6.851912526348661,-4.744544726107082,-12.956012144855352,-21.801927295036066,-18.362989793635425,-14.698199810277258,-15.835041020659922,-10.107188652777094,-5.148978346706885,-13.249813257473349,-21.914612588902553,-24.784552339118573,-32.018865073272934,-35.95258232407234,-27.25367995351681,-22.105929594972793,-26.69465356740791,-26.209073742712373,-23.122249387663068,-26.39607617192665,-24.749929569451062,-16.10622894295403,-14.961788133138928,-16.698277188291158,-11.507506666709482,-11.885573134786172,-21.446140181651426,-24.278767277983377,-21.742677655914726,-23.557258175132908,-21.301168814417217,-15.128258339924743,-19.083986119880446,-25.64257442203882,-22.265196663506437,-20.072328288271592,-22.839705925272142,-18.47896721356743-12.228295619862028,-11.93870695584445,-6.662939052758038,1.7347475756687576,-2.6524481477608646,-12.180969732413418,-12.669961589212992,-12.43669069070609,-14.226142226978777,-8.12118965573576,-2.780794216060692,-7.670787404932101,-8.342296601581701,-0.9160168540414348,-1.1269317113924675,-6.0440270192194525,-4.430882863349401,-4.899243799013891,-8.69489273332048,-3.0778990828474004,2.9875091026316816,-3.6180743908875046,-9.375068583668792,-7.047289229743356,-8.185574817291197,-8.638350147800306,0.029629549730670224,5.903866054145706,5.707161803827332,11.206338168116348,15.478147612361099,8.250768522546496,3.0362755572605145,5.997265740822878,5.032717140970047,3.2947962417619,7.263349092566171,4.446522884210974,-4.495581022595928,-2.7318375371932437,3.1527324298612927,0.2281268708017663,-0.7109857403503319,3.25554452082691,0.06448375133701356,-2.269584195333864,5.828307826226215,10.052426410755727,6.609861117809006,8.59584320081021,10.822513013230383,4.526240639330491,1.7091860744046945,6.011768302276986,5.364275976454798,3.5624515607439866,8.2199555262467,7.404260449568371,-1.8960462777179363,-5.483068573020489,-5.949472688507003,-11.87553740141865,-12.858308192031624,-7.6949279427715975,-10.812794470339224,-16.859669865259114,-13.720263835310696,-10.132861858377305,-8.704542018842053,0.777424678525505,8.798276561983036,3.6798988442318974,-1.4379182846849303,-1.3242909277798975,-6.551052722358252,-9.313636767744553,-0.9168757009948325,4.266770972086961,2.6434435444613618,5.480926166065021,4.523260906538902,-7.825504822054206,-14.098476529901614,-8.473214785920637,-5.045186605618858,-1.9157537598712449,5.784009114491321,5.590348963719114,0.9362125443245051,11.323752413453093,30.935906499187745,43.844431074674596,53.510472553235246,58.52625355077145,49.55804713122242,38.20081405137066,37.0608600689962,35.77255875154637,31.39547419162281,34.42858534270377,36.818325861434715,28.721010779997485,23.105525082276642,23.897424808088857,20.18074225405857,19.00343262703119,27.53990580254141,31.26506627200385,27.210415517485085,28.263481972034974,29.21225479069171,22.178199991297504,19.635774308802958,24.043355497295153,23.092758200895666,23.75545261073462,37.02924396141698,52.73569099225166,67.37738707360289,87.72799356100565,100.36049472272222,93.43998267897587,82.03521026045657,74.9977200333133,66.0532663482294,62.383837249341674,68.45910401165676,67.63647858467534,57.82098067565291,55.67413167316207,57.54658666757518,53.211902125218266,51.26359333836894,50.07850313850263,37.01244805189832,23.466541911555012,22.339031977640126,20.664223305219895,14.079642692118204,13.297080433576037,10.604314125877885,-1.3765974091086743,-7.529274895768645,-5.969966909066649,-10.735079412594086,-14.371010433152989,-5.919004363848006,3.5386853648850773,10.933741340267213,24.874572101104295,33.31706203405557,25.937654409234234,20.961337646488442,25.31872627371492,24.247048973126446,20.665289073783665,21.627514016330576,15.326713400152553,4.251252275791435,4.672243083453905,7.016351628003618,-1.9987546933654299,-9.392143526905286,-10.698722076996429,-16.97068211601862,-20.780930161644598,-15.29086108094329,-15.189658462765207,-21.702850406966345,-21.67146767717368,-22.37774645595382,-31.946373530707742,-37.08581769748013,-36.14066045424368,-41.95982125935475,-48.337121959138884,-47.982393039842776,-53.107306350838066,-62.969814419612085,-63.793755012706015,-63.20845838439894,-71.10143815588947,-75.46052977008182,-73.07267240396928,-74.41115141705849,-72.30808708657888,-60.332882119785054,-54.01853673550658,-56.009083438776955,-53.02257362785243,-51.72709126929142,-60.60496922623357,-66.18042917913425,-65.71256252907705,-70.74528975402556,-73.9123924433878,-68.6877182926489,-69.9728344692194,-78.13183001633752,-77.83607126883817,-74.56545368613813,-76.80559157366714,-74.02443426298896,-67.288533112548,-69.17797228141818,-70.9324726160968,-63.30384863767653,-58.81779798073063,-58.87617784433386,-50.87994086472454,-41.66493536775708,-41.60526329261654,-42.258842815795234,-43.480335013314104,-54.07565886404342,-61.83336114990432,-56.46005171208713,-52.66844794036527,-54.51231098511897,-50.21160477080396,-44.77013185013962,-43.37705771588601,-35.53276983995276,-27.123777639774495,-32.67927274578016,-39.29360506657407,-33.3435857855076,-26.64668088102833,-23.13267804382035,-15.288020995616588,-13.192669066288461,-22.291233943130013,-25.17389548201851,-19.380807323823927,-19.762894297549234,-21.65805484040202,-16.749897071063028,-15.820316832278891,-19.779211600703395,-17.18286910240263,-15.321088621204288,-22.24815523952289,-24.675416926042402,-20.01882953017998,-20.92111947204375,-21.556030636111206,-13.681120899787206,-8.737234405877466,-7.608297736247578,0.39172815709243647,5.811625940337376,0.8520291092766907,0.06360275652064473,4.973537135414944,3.0379802341568407,1.5230665241212666,7.35633065782498,7.73566183795282,3.4860195023509206,7.503215411320287,12.779747922048616,12.95005099887804,19.02563420940857,27.278896011699082,23.266600896305192,16.277418776193386,19.11278268242804,23.096931409857323,25.686449585798893,33.62071175458829,35.906391926608784,26.625451172409917,23.98486198213126,31.475659415250252,34.18639606114138,35.52157434870931,41.05306736992357,39.14788708059365,33.220834599501444,38.319537952648254,46.0549991288714,46.43673166795242,48.939856283408105,51.611576016198406,44.280631254631885,38.78624169180031,44.53202411681182,48.13432046059246,46.26495732713663,47.82115831253025,46.2386060485498,38.70361576684607,40.05353369816118,48.69537607018393,49.34787978779999,47.42798005613882,50.81260104040325,49.78763741171052,45.93545396978358,50.50541120901017,54.275189543168935,49.569114314160785,49.74394595963638,54.51206773270752,50.56774191296719,46.222245167857636,49.71688376999467,48.57684518810936,43.32830790346274,45.86688320333156,46.98598488987145,39.44468266370421,37.65339974829194,42.08161289508945,39.09759404395821,35.34486503999801,38.653767162698934,38.275572848822236,35.726934934268215,42.31933980642584,48.038998416661755,43.67371233485991,40.24621042780049,38.26616907142456,29.23946395820544,24.32499409113553,31.55439841623908,36.949365982795676,38.004295315932964,44.554364453122005,47.83992807365881,41.250026834279915,38.36971469938006,38.423035545648915,29.27340776175436,22.694584361829786,29.682657616058837,36.46622119768139,39.41467122429773,46.568848249668555,46.86846366334442,34.4501169878213,26.324960345329046,24.168886991734233,16.556904560474127,13.187413087349306,20.536712245107932,23.3607946394376,21.718650736969366,29.270238117441572,39.476778250435665,45.91425013782119,59.12969598382935,73.6195888342583,73.1447328712503,66.25339275684149,64.2380693659542,58.20571104450755,50.034216839424914,52.26058741281562,55.794306434365296,51.466373718324,51.28608604084066,54.38714055845686,47.73849633137074,40.50610004173424,41.207594781964545,36.346444912142445,26.181347967168055,23.977392809019488,21.01124417756343,10.044433956023392,5.327954959033671,5.412656091309283,-3.2521271499424502,-10.862878973936937,-9.245678524263862,-11.433043011724212,-16.912528449240334,-14.608406016364208,-13.909516710969703,-21.572966687200804,-24.855886708544965,-24.644376743701542,-31.39546723237122,-34.24765035010901,-26.03299573179757,-22.469611659912193,-27.0785220849077,-30.431173946028686,-38.74953316725567,-52.96658466521997,-56.535293575348405,-52.29495068832615,-56.4174665008783,-60.88444202237037,-56.375397454362684,-54.54287554520965,-56.28850980503449,-53.82128663298525-56.895226892242555,-66.32242303162215,-63.559030942879644,-51.311536896966544,-47.20993885072882,-47.87783022773929,-48.427532710751116,-56.388804323125726,-63.42910399670114,-57.93023574365955,-53.21944554028492,-57.08164536537876,-56.80941853213908,-55.064452220399524,-63.14501171183592,-70.37705753855124,-68.88616667200965,-69.0767882692763,-68.34540891384312,-58.245226859641335,-52.019133943345736,-57.02978625918919,-58.566271361107624,-55.29554823160914,-57.33669442895373,-57.11897022420979,-50.57498527101166,-50.30867805198983,-53.39112168544419,-48.251137968584075,-44.133250977340865,-46.31405212759745,-42.29505377346083,-35.73963262346988,-38.93881076169696,-42.70628000466792,-40.350717945081044,-41.07230714725694,-40.21969995612782,-29.650054014679704,-23.99227151146296,-30.614853397562776,-34.02613597373327,-31.337732492619274,-30.705172346048297,-25.859561995448495,-17.670194899173087,-21.91802451417597,-32.88520175131579,-32.4084466287636,-26.42525692858478,-23.393392148557208,-16.151510417015672,-11.638288034581251,-21.0603119844728,-28.950452402020098,-24.525573386514353,-20.729980719716863,-17.3425283800281,-6.869414587329633,-2.752781715246002,-9.281233732039603,-9.721479052995186,-5.073288174521494,-6.4881138751664205,-5.265227535034098,1.457039139692363,-0.581354118223552,-7.487380694476377,-6.248468408593682,-5.5917542757576575,-10.444655832272277,-7.665223480906317,-0.8093738785680609,-3.475072349985746,-6.547647003471921,-2.0026483158258017,-0.5972982431105073,0.35598537540517605,11.472563210569481,21.00219743722736,20.875846241825414,24.19933254927771,29.813127294356757,26.039790670100725,22.68275506215327,26.902253170499172,26.322783650051583,21.970838834241043,22.692109588609583,18.09710905150889,5.2953567149800165,0.18150620307588375,0.0820718382797948,-8.043267621499226,-14.32812628461392,-10.65739970438521,-6.723013690275047,0.7601960759182331,18.59256139277999,30.769472210809894,29.41463745577279,28.967241903536962,30.043097957875954,24.555623443668537,23.373727186646153,31.255310939726726,33.68893098285811,31.075021842594047,33.01985632175506,29.77334804533619,17.461107818561985,11.22172059349408,10.514222327942171,6.432471832857216,9.210962398142092,19.8022774076142,19.100291267221348,7.807955098462424,0.2100142866140312,-7.619319431069266,-15.37597187594217,-10.033626543188069,0.07774741306134558,0.48432526329193926,1.7563544495041064,9.633130559951587,12.028877187048447,12.491836506794018,20.741016678380344,26.803476680701255,26.89062512671684,32.53100531705001,38.240896477693646,32.66623544159,26.514806228641543,26.41428918788464,23.58518691046855,24.560930927056013,39.698786608085356,58.9504181695435,79.93525522150998,115.61711830624878,159.97914038347614,197.18170316087662,227.4967839411978,245.14323169725978,235.55133460219167,210.68808481779539,192.02141141997052,175.68537690697377,157.7205530035892,144.98102972040363,126.36000467752051,92.73846290034538,63.566565104127164,48.51466252369549,32.91774088920667,14.90286084569601,-1.122386054988243,-26.77978628456791,-60.60067097225702,-82.93964677977552,-96.63867564690753,-116.26100740768408,-134.23133447739295,-146.316846608505,-164.24821155046735,-180.82966116505168,-182.23597914952444,-181.21304905255369,-187.00919992691956,-187.73973586783586,-185.50022021520562,-188.39974763091615,-182.37780229713553,-162.95713577520064,-148.18428803622342,-137.99742549361176,-122.01357830772119,-111.42182949444482,-111.37386060072079,-108.0709065626542,-103.58177213106626,-105.65034648218766,-101.99065078760154,-91.18419419190185,-90.65344980011022,-97.45174261596297,-98.26813719527163,-99.0508296910904,-99.86944352716289,-87.1268744563052,-68.28216345453546,-58.4204300122782,-49.479739235000274,-37.9874984065772,-36.140760279301645,-36.33361484894486,-23.97396439612541,-9.959935210089476,-1.6745804528015813,11.756872383113757,24.476166197397557,24.342839831918266,23.792118431465536,30.207704071638734,31.2011929645333,30.180165150766367,36.49595529745114,37.18550675066375,28.390544729427212,27.288016701685795,33.5662781371329,37.198252740894176,45.967408410486435,58.55372780383222,58.11965664235562,49.81348724593599,47.751587563546124,44.72075458967893,38.690075905849895,42.20808316937656,49.92377804524875,51.448842712085764,58.45541232947105,75.28473925849264,87.12295641024576,94.31261839954527,104.03796633210439,105.61039412317724,98.1480123757064,97.86473204604593,101.71816690853449,98.7867095041677,98.66575827754964,103.44653839563415,99.04121015660171,91.28327841504631,92.32896752960778,91.14790783273023,83.41671350008596,80.83974235412887,76.48867068710254,60.819846421096216,49.20440973707106,47.58990734934937,41.91861388024374,35.72755891222795,38.9054942931183,40.331060073087464,36.34775040342333,39.73263090543053,45.007655317634686,40.92339637893917,39.069736287149695,44.16534042978259,42.80009312027333,39.01582349829343,43.19516561222728,43.78396356909533,35.14092169581772,29.088992972322117,23.466997574206626,11.652310349070397,5.84983529563509,8.662836177022955,4.682902477789402,-3.3647875866271972,-5.0723554006791485,-10.555049334960573,-22.542764716128797,-27.16381375509404,-28.230262424874795,-33.44226079082969,-29.36863921864515,-15.460273576480425,-10.04154399471533,-9.585758858512412,-3.3035669149023823,-1.4642475373757184,-5.190864900490492,-1.359853167430913,3.1334181989052436,-1.6630012391661095,-2.835229941748115,4.269948294675656,5.868876483050013,3.3577853331936813,4.164860628307128,-1.3794908823131646,-12.284818787991153,-12.638314833214913,-9.178681840513393,-16.873658737143696,-26.487322950588084,-30.746425445547658,-36.84406283086046,-37.79614443296065,-27.333989096831843,-22.41054421534559,-27.26301423293645,-25.29325257041319,-19.702655270914644,-22.217705992023124,-23.725138638421758,-20.73668459271896,-22.93504038813633,-23.059485050742925,-13.99500573992018,-11.127887411785931,-17.947033038779324,-18.984583808278245,-16.816792332628562,-21.14777724670491,-23.2788058920702,-22.098711919227753,-29.906046410136355,-39.448057020870145,-38.84316720347467,-38.68210466267026,-42.108014111798425,-36.77222203571332,-30.210766818547192,-34.23613733634714,-35.58679577340074,-28.41613561574662,-25.664959047418282,-23.23024834166851,-13.800021356558265,-12.052821301349624,-19.947517212029965,-21.155300566391908,-20.63259284102613,-27.69658521228298,-28.343188898585765,-18.97679340511197,-13.4209443583024,-8.00410033191151,2.391429216444815,2.4744705685377797,-9.595931004863525,-17.527934733258697,-23.1374381507442,-32.81448978808862,-33.5390550765694,-23.15522970322032,-17.15978983907868,-13.225967072234415,-3.4873025935759716,-0.29817794404185544,-6.2864502959226884,-6.3916820509207595,-3.59267491637016,-6.793862611916692,-5.288249911636816,1.6653705934406808,-0.7657423555057381,-6.419046782988959,-3.6915038541820655,-3.5019779433243152,-9.171677267817596,-9.449960065337908,-10.88372015137572,-20.094574926126064,-22.084667744109286,-15.764535307390258,-16.882908718860833,-20.511012687432487,-17.328182380714473,-17.210390001213316,-19.73379693681857,-12.36805517655337,-4.310902171378645,-7.904906902026414,-11.691124380117298,-10.734841578215816,-14.218785209865736,-14.417750908171664,-3.7950374813062906,1.8814802380137319,-2.4045734101265364,-2.5320197641505855,-1.7046159720946128,-9.401935957141028,-14.653055137124685,-13.269323126805368,-15.71019803174933,-15.082119712310623,-3.914491384145762,0.6356645904452126,-7.473847689383717,-13.211491647484033,-17.793050329320437,-27.25456579243734,-28.82005984802823,-20.695955078059665,-16.085193499952112,-10.293460904372838,2.2407424427414275.917948781613508,-2.308142580253157,-6.37230027008696,-7.134596440854743,-11.542042051546987,-9.87358721524335,-2.8759084774384136,-4.064557531627573,-5.888279703202535,2.6514958127086383,9.560637039217873,10.126580458855472,14.477734981638422,16.300594960466892,8.1228460804582,3.8085366636351976,6.476434503169368,2.451403491321243,-2.457422763395245,1.8827596833796307,3.4246179920491007,-0.7861427649721071,1.130030875963605,2.3671074189407437,-4.376497313306545,-4.320014801595283,4.15731210306352,4.93868454815771,1.6743720348898024,3.561791499221228,2.0260964368295378,-0.299930451277709,9.711987550019987,20.882699469108278,20.007193745388008,18.15036138599487,18.155241312961994,10.51799547193197,5.55338609864022,13.1030345563921,18.79150605844927,17.87463690519668,20.78810963328502,19.670250313444026,6.56534379699333,-3.0305252910584075,-4.560261623759924,-10.515946524931906,-14.882150083945902,-9.078327567465754,-6.0810364452250045,-7.601539628645986,-0.015509061904374732,9.222252290431092,9.243133177662235,11.095078601831572,15.965293202994776,12.005510657303732,7.683230131456179,12.32385140984513,14.42041108614693,14.066375456241179,23.904142494568706,34.93502747672324,35.011448231277775,33.31613023940059,31.99304751141375,23.23735836143583,17.67729519615802,22.681387124760704,22.551412688243985,14.331157802279282,11.141152678007398,8.297608891485762,-0.45776120028187606,-3.025251466693829,1.046659149480357,0.6092671925783069,4.370563455423118,19.585097181022018,30.018676449931718,30.57309134535042,31.799186293523277,27.378725227037975,13.130326093756054,6.749102490236023,11.66045793121218,14.96197674279728,21.68561718933136,35.691024612490736,40.73181453387397,34.807588413221175,31.43666435262329,26.725680711431234,15.520821141300077,9.458014123883213,7.595846012207121,-2.2217363039014404,-10.945183076636733,-7.291883159255415,-1.9456990390487348,0.5001402064188558,6.728227335943715,8.025122923698126,-1.215756285502938,-5.56168686201734,-2.3439510501621785,-4.336919942705879,-5.915695405135663,0.2946325138325063,1.676177664215452,-3.0027881682072692,-1.4278438294131264,-0.9154658276431488,-8.1770363452123,-8.272797438749173,-1.5378330468928825,-3.7719013426337353,-7.2566777048159175,-2.565567416059857,-2.5434970015777982,-6.341237892023327,-1.2030090088792575,1.5384168701835077,-7.944725961950773,-14.791320289194836,-15.323647705941317,-19.24031428166103,-18.055142982616946,-6.032244134090084,0.47131441346164715,-1.4432128781433524,1.011807833602792,2.3728499225320285,-2.7993720366140744,-1.019577466788798,6.193127221955091,3.877672386867655,-0.7986090991513421,1.0251724830190851,-1.583818520414368,-6.303233339626343,0.5954375580426783,8.444532400580128,5.065913982244492,1.6726238546689554,-0.16064569094486117,-9.907708283978522,-15.984672049906603,-8.9110674075763,-4.177031305594982,-7.594240215841706,-9.54557493756776,-14.812392554179805,-26.273702885372035,-28.37393626716966,-19.916599722263275,-15.064371888025827,-9.995670764949303,0.33679500461115097,2.7593420031543263,-2.312487485468002,-0.8592808180225027,1.5857275154545647,-0.998535800626819,3.041660164317525,9.846913533583896,4.536287482835284,-2.392797885230225,0.8322271532528043,2.722029307441937,2.487459429601326,10.121599825691883,14.127907678826762,6.527298831721175,2.8168852734491754,4.110484390482803,-2.3387080951425245,-7.691012404286176,-3.465763401970871,-2.5147016288577535,-4.818443057266114,1.3780475282387865,6.38127976699695,1.1186112088366476,-2.416894760904551,-3.741317560046108,-12.598536434884508,-17.745969604397814,-10.296006720172173,-4.452389191413876,-3.6631483513633203,1.6358387533783616,3.5817100547664182,-3.4264021646447813,-4.5243661745001384,1.24843225871687,1.0403748278380605,1.7643061041491344,9.002815435216696,8.00955490371705,-0.9122770694306657,-3.516230179410427,-5.00562292017713,-10.301854769733811,-7.189003496131431,1.1806172863348237,-0.027562134499113933,-3.3258229385668643,-0.3246370293677667,-2.0426636845090456,-6.091892741211718,0.03136394648185181,6.1036050247692915,2.9447819991597193,2.4454768147959696,5.128544436354954,1.0843572834178983,-0.6671019914423408,6.177439279413944,8.023043175718174,4.795770100168687,9.190229986351698,14.193025670039066,12.041395555784408,14.204800731083857,19.882442725988305,16.669356222337548,13.56549428483181,18.700381304353158,18.493490648568574,12.984308255630374,14.501387646165817,13.905891110435713,4.975446166548116,2.587286758904847,5.180238049049582,-0.7883445144290722,-6.466837726374102,-4.826940887140646,-7.309461948297098,-9.85891883987773,-0.46992787583973206,8.387804889293596,5.959138809801149,2.7824755864807837,-1.002304892004115,-12.1484808041678,-17.402391388160297,-10.132892461738866,-5.6209948165224874,-4.815738137887282,2.4470166398648856,6.748096356391886,1.6408779041106107,-0.46195915276857463,-0.6972916278581834,-8.582816725024056,-12.935594972674465,-7.964434018526977,-7.947148903052526,-10.65172627518333,-3.6357003306060034,2.494479535504076,-0.9927065785424407,-3.1060536214443233,-5.717160931138169,-16.771422624212654,-21.783528448186715,-13.412242464009957,-7.324581450878194,-4.822975155419197,3.486960320922803,7.7020850339309925,2.8592532382118074,3.1435576965473704,6.589207639750874,0.9576605219522936,-3.4260385476503123,2.2512794507368237,6.109007296758374,8.546368726914249,18.614264046061752,23.182793347208523,14.202994816185889,7.6344134762998115,5.512478558749852,-2.155483013592394,-5.182933766318233,2.1695840102804613,4.226659661743159,0.6196909340799153,3.2118906649822736,3.474163870277663,-2.959145402361408,-0.17497049282773425,9.15398220778917,9.558054332204712,9.14972525074811,14.174871310109303,11.55552186106917,4.823657894675825,7.302597689995227,9.783899106150766,6.3408818469468775,9.3883893144798,14.512164627180745,7.576761922261975,-1.8676892941835825,-4.049339797901542,-7.738084655253114,-9.472988527660998,0.3250693816585626,6.653064829824281,-1.5777009404777402,-10.286932919174232,-15.983765598897879,-25.089258480426537,-24.990543036330166,-11.579574715550267,-4.52271563517755,-5.452371401975216,-1.6032939021763652,-0.9044955882283257,-7.722860132791036,-8.202445308317387,-5.854283948329618,-11.6915143625067,-13.041485038750029,-3.6958403827056014,0.4507581484762326,-2.1599808810871597,-2.9464379879274882,-9.598388807829586,-22.116619028687303,-23.11094988842289,-13.834584042841314,-8.889441913107131,-4.149020323331208,4.030673474628138,4.216828895495915,0.09583058248145582,4.4622683050047645,8.625414190620607,4.85248118663101,3.6756741720827613,2.7137422441504375,-7.904333193127338,-15.436025982927301,-11.111677294068864,-7.474145357751841,-4.193493856352232,5.40259894839088,6.8251516672582575,-4.8858622063475945,-12.236403241731805,-14.560285321141103,-20.485385162601073,-18.389449182082952,-5.777820800907696,-0.8514390901356508,-2.624576224412663,0.8780084357299061,0.4403472936187969,-7.776905675784183,-9.905730995852192,-9.665048151870383,-17.759091966880117,-22.008998989297528,-15.931050692542932,-13.822888289635552,-16.1725674177612,-13.418312164470322,-13.167692642235343,-17.52738627408289,-12.641770637702145,-3.5482051555491925,-4.677105872562916,-7.176859247965436,-4.572404394838837,-7.186304712297261,-9.42526978055897,-0.5215640008436293,6.912081280357346,6.207118376478633,9.672534495478809,13.361847992693578,7.613438719445823,5.782503522433304,12.388392622241364,11.708711892811781,6.242358703333314,5.909089233668212,0.8932215554182887,-9.171057496987363,-8.754167154596935,-3.1039617093140883,-4.793394630702334,-4.480886852779955,1.0483666855934826-1.3548999524661187,-6.719670117201154,-3.0319338847281703,0.08533154516099573,-1.268780830868677,5.341176321358342,13.288556294682467,8.741828121386582,3.2074005474600336,5.148538306583148,3.6737293783290212,2.348264298517887,10.346249524702305,14.535461820124162,9.84131605131795,10.841875157246378,13.440471163621933,4.844839612611148,-5.069537016897085,-9.337482290844523,-15.536934905953963,-16.170321795475722,-2.860131871593136,7.478617557757497,5.006636170683122,2.054764918290565,-1.3022583576464104,-11.247213234964073,-15.499545502170331,-10.500978729069569,-10.350263312132295,-11.440617498101396,-3.2540801105767176,2.128505612760554,-2.0063613860998872,-2.5791287890088297,-1.011323857018349,-6.918379356987522,-9.92336918405152,-5.737154466121717,-8.109196837856437,-12.483723919131355,-5.579342238914251,1.9227015603093254,2.684957617112732,8.102421654703425,12.885784768480995,4.3492715485885505,-5.577251950033647,-8.764551191932842,-14.572690109949376,-15.764737783545211,-2.338016502252022,9.200642844917546,8.413478951534792,6.958715155455679,4.962678489517206,-3.1366538888000504,-4.677385840195669,3.35944631597229,4.531058785546003,-0.17429245023358364,-0.30081189227555905,-4.048830607339458,-12.362003391247171,-10.717204810532097,-3.904081450368622,-3.2707383916391555,0.8067853712035422,10.515074679842488,12.395853512870218,11.168485714229773,15.930045052397682,14.643957478325369,5.967872504819352,5.842279099641941,9.130333980663142,4.469097755140268,2.939123569749258,7.834742352400705,6.3940976539249785,3.9378218338819835,10.700279367727864,15.063058230346119,11.995745967308341,13.836641586697482,16.690491211619744,10.237079924843416,5.768889691639235,9.035264464572048,7.2296885159040265,2.2837800504890495,3.349359141445385,1.0612771296336583,-6.43107677597966,-5.392246429166713,-0.943725070813255,-4.318830583480579,-4.774875602309565,1.0436664004105198,-0.28901173274290315,-3.947847781228858,-0.15291807759991594,-0.4971584022457064,-6.607603979517298,-3.4729302527646366,2.4999630392670253,-1.2643348885046133,-3.2176146815001623,1.7371117691382807,1.4436123274751522,0.7779054592438457,8.55008348230093,11.864867821313037,8.159745533329978,12.688664827065294,20.684116808728124,20.829970948255266,23.3904594284555,32.066619141464244,37.84937359895351,51.223080469343024,83.05694808315954,118.30133225525375,150.33307207298958,188.40390339366104,220.2173655199478,229.27674424984016,226.3798134456256,218.36152422135058,197.34599203457964,174.9293435398195,164.2481706322158,151.81432268285917,136.67575410429407,140.47721687987652,159.33899824763157,171.47223613431743,171.35138760581367,149.71802058156777,95.58988973983575,32.483490402429304,-10.631174363527238,-41.39655530276176,-71.54695875178335,-95.820367389855,-119.68213510621995,-148.34772451302092,-167.28711309937694,-175.73573454501616,-191.0833748979108,-208.83723383903913,-215.36504420240598,-218.6856419986241,-223.1293924972762,-219.1303748413098,-213.2516428945161,-214.7204923845294,-211.32835903057332,-200.34851526244802,-196.19811113104828,-194.81116771017173,-186.28835626183266,-180.74306133171902,-179.1768558026783,-166.46557668827762,-146.71983603054463,-131.81436759481556,-116.50294931892006,-104.30645576284567,-108.97518390853428,-119.42542966327508,-118.59899034146456,-113.99990478108222,-109.46874993289705,-96.2853325510105,-84.05184170404132,-83.26745390739086,-79.57361742145783,-68.68848984538374,-64.64172833864362,-61.231770417741316,-47.866793594532254,-38.11506627310446,-36.06251434201059,-27.28228717899808,-16.651454937528456,-14.568049179456665,-8.808955361897905,3.330614779213159,6.829417491442779,7.224007541895071,15.357650644056257,18.004665053932264,11.236203573244621,9.959485770987957,11.54328017357432,10.018157759938404,18.3304641461065,34.80354166548913,41.40864962106885,42.380794031192565,48.43658273544129,50.02469640723849,45.427520613645015,46.863439825997446,49.50902019057161,46.679594485313594,50.98707818935783,61.970898155640114,61.87883388017241,54.21100969481873,52.750434932972524,56.692067379254866,76.03784331726227,128.18090481351177,197.68502482411697,257.54376607627,303.3859140008387,329.29453205976836,327.40042090950374,317.2269889176387,316.6165363055206,313.11479058085433,302.3688350423648,298.99706872258423,301.34364052325293,304.72070166859294,321.5949280369498,346.51464979445234,355.640631188351,349.8803053702783,339.58929921579585,317.34811802535825,287.75679185171686,268.36168926359966,251.830710297488,225.29320046243328,199.36251007824325,175.7130303354635,140.67390306707532,102.75876399781194,75.57715603491587,49.41192279511763,25.359866923797497,22.165129324498142,34.02858510039987,43.807300493782996,53.51795951534349,55.76865307618703,31.5444532447266,-9.247321416344926,-46.97698401371505,-85.0891946556169,-120.63820906172586,-138.78617469418543,-147.827325078292,-161.94994478313626,-174.2214742958728,-185.19937081920006,-206.23201076365717,-225.33810125630248,-228.43886750561987,-228.4763591697399,-231.3845614323558,-226.69382149165256,-221.87862124245655,-226.90673350335246,-230.27906882937927,-230.38335546154354,-237.68981528987916,-240.31424262430622,-227.54638136125322,-217.12466953151662,-216.94398690732862,-215.28424951517323,-216.58547751625187,-226.3926323908483,-231.0524252026664,-232.94058966244648,-247.81795587276252,-263.72620912355933,-265.6442090484095,-266.72480863032456,-272.59228901419476,-273.14113941611237,-276.3447824408674,-289.063166397856,-295.11456795604715,-292.645068924762,-296.00310362681955,-297.88666061944167,-289.73264931931874,-285.54138893662764,-287.6017374051662,-283.3237896415102,-279.7018670491195,-284.59372948266207,-283.69413006891455,-274.1569555389087,-267.5438279518314,-256.1557961850924,-233.81972334643962,-217.5529234305796,-211.07311637258297,-200.4693460594024,-190.01156834311828,-186.8815731140133,-178.83314196395196,-165.41981023921727,-160.2240100911892,-155.50266387740444,-140.89195584706425,-128.37195403213678,-119.66338177302366,-102.682318426059,-86.14852170723246,-79.37825806446688,-69.00096937571918,-54.14377578743573,-47.9082635197004,-41.805761115103984,-26.764739656112493,-15.62040168362191,-9.285287225317663,3.7950556975815526,14.888638497380416,16.975649760116124,24.204537111585317,37.04435800669673,43.18353973853205,50.60057459827908,66.68772115290125,79.2592137092393,88.81809841214287,105.96235471936423,119.58854256844275,120.72421483557595,123.37436876589071,129.81860747942926,130.2837299071977,134.7144603889022,149.1872785357287,156.87771300657138,156.6592654699181,164.504333418505,175.7018452080409,181.7527535887084,192.416415595625,204.22330804559937,202.78657192583182,199.34030514393515,206.41370971819393,211.27119004922582,211.00234703749902,216.82060830970298,221.97914899782802,220.63788877700011,225.4401388417322,234.24456895031005,232.42451723827782,227.76064372098608,230.2252847374628,229.31690945876693,225.13227064002535,228.64601074861042,230.0822060228481,221.2627198812295,215.89352882944831,214.6902425116202,205.6737106982451,198.1469187542516,200.49858101550439,198.81733545648603,193.0208791081237,196.69552443588435,200.71154958743628,195.9532278695711,195.522090481285,198.57090565742413,191.57109785678773,184.4421744781491,186.77586103764213,184.96745641190068,178.06454985031257,178.9796434821419,181.21383457530675,178.37697364266313,182.3225629429492,190.46379296940185,186.88534120242497,176.42486559710596,167.64692698137728,152.12275075906138,133.5148773253573,126.748054381355,124.78389494240173,117.6448189066403,113.82228787782108,110.8406798346328798.07160297128762,87.94694764966451,90.70775752796996,92.88790130691878,92.05536247484079,97.249738277189,98.9296132848288,91.6114511030833,89.67476906806777,91.95599668268105,85.20096485382443,77.24398799294435,74.88970069646403,66.0463864435097,53.295455238092124,50.07236091357531,47.841470947520335,38.31704327200822,31.789174601885122,25.89887751287473,10.832713451898723,-0.8414842129060531,-0.1678723079182287,0.11318215059785453,-0.5818078180054128,6.24416020502627,8.825644375621067,0.16093302863363812,-5.383422165108761,-7.427947918895125,-15.892940952736913,-19.84001837086484,-13.638323181548888,-14.387004244861526,-22.918131514322955,-25.695860070902604,-30.046445390794197,-42.3853307613602,-49.85323423139049,-53.98925366683864,-65.85638820769876,-72.67605433742652,-64.5889036247586,-57.25141198298453,-55.92432899361546,-53.38202903502367,-58.40755644174824,-72.33715142968921,-75.51620261924167,-66.81144323608423,-61.98616057732887,-58.5834532650546,-53.2419942002251,-57.40269895486336,-66.13945274173543,-63.927640785818326,-59.13365821340002,-61.72742862820766,-61.51221031627356,-59.136220582376,-63.96402213975089,-64.76631595699888,-55.37797159590604,-52.40179934654253,-58.04237905187854,-61.3005770565765,-69.23741093251726,-83.66628610252654,-88.13166916493483,-85.88087364105239,-90.40067960755061,-90.7085497267215,-81.54808424233573,-80.40368999226571,-87.89408597450782,-91.77039654409461,-97.49669557573226,-104.92663090293809,-98.83781654351573,-86.0337400678938,-84.5407239286352,-87.15241459282885,-85.52354628942314,-89.13473514103467,-94.62153028313077,-90.62395841994417,-86.54893804399654,-88.78886544137276,-85.71819543828916,-81.74913633456868,-89.57659358943616,-96.80270334174878,-94.46820415762835,-95.4082657364527,-97.27226517731556,-89.5527545783857,-84.52592271017437,-88.33132481495197,-87.1098983044088,-83.57591395321845,-88.23569448354253,-88.77096958678528,-78.48888419873632,-71.86346502591464,-68.36964148185486,-58.08995267669909,-51.98092656179608,-55.92494365662616,-55.543929411389556,-51.45960736624855,-54.33471986182383,-54.506241797678285,-46.00784201265378,-42.64077443460983,-44.372383790028955,-40.83304245019326,-41.68552329727565,-52.863740357024575,-58.86104945687808,-57.24408581547468,-58.098082809779676,-54.77237506709126,-44.58521113226441,-42.05049561823517,-44.993607670290274,-40.52268477763619,-36.76473899542373,-39.558334809306494,-36.76284440052869,-29.719424498621574,-26.317822615521205,-15.25035068657981,5.155001625684584,15.67602066352583,15.47931010821732,15.975625217333901,10.150503048253796,-3.0570116757166375,-8.718610016168617,-11.647140529433067,-24.31040402576064,-34.189691739672774,-33.66892407662255,-36.42792169981982,-40.91555723766219,-37.24055447068544,-36.41486928823309,-43.12750469683178,-43.32226500747473,-39.86894066786258,-44.44310992032263,-46.986896758697576,-41.75675780352802,-41.89025034122538,-44.957572982468314,-39.78368298584413,-35.65804914614793,-36.3346615197277,-28.430033292957816,-17.90984584445858,-19.250067138547074,-22.105228261702507,-19.095283287988018,-20.766778359175767,-22.345729285563202,-14.84856742074059,-12.22523080297265,-19.623710230553193,-21.36987329308163,-18.921485862854546,-22.610598356064074,-22.617285752441834,-15.937853956391635,-16.926855946076014,-21.094135998589003,-14.873100149489773,-7.357532738124235,-4.60700504475496,4.674112028685023,15.431208791532082,15.591008177150679,16.334244109541366,22.953261561000424,20.644440409868547,12.758009816015782,13.500865408828727,15.569242706338716,15.009484588920069,22.677418685169588,30.35538303190515,25.223810448770607,20.809850068515598,25.102430763747183,26.31293630987181,27.7401517959532,37.17159216745681,40.32314771005052,31.311735832646235,24.17531572685576,18.351185973958522,7.969881716005605,7.437866185645866,22.33730491563365,37.98974364169224,54.75296381362321,79.21459229184852,96.11189679007933,96.95719550168218,94.15786424753274,87.57946856611048,72.10696760912546,62.906800738006055,65.15623602074363,62.33932780538582,55.411467629981715,55.30018342338745,52.326505142313366,43.19516780428709,42.52714988210012,46.49519688317675,42.83123340841386,41.489302180599005,47.13054093462107,46.68185957807046,44.777715585678386,52.97060673200161,58.92050384005405,55.49237436772501,55.169604727185636,55.29616980338811,46.438355955499574,39.89757862067138,40.07970489346327,33.79812717205913,25.544230370500696,26.443200172411927,25.56496108295434,18.927663930874267,19.619488688692066,22.216534853519665,15.5875900901502,11.604074596510742,14.778455471691242,11.975930998493794,8.276464517255096,13.373003597379281,14.228561423335297,8.82751399180352,14.44486765640875,25.852784683599776,28.503572831305245,31.19605641330955,36.825027490493575,33.146065016319845,28.20214478634599,34.18679247207778,38.020845282462425,33.056387743538586,31.066362592171366,28.27067034313201,16.950976499183525,11.070472305129044,15.850557341447853,17.248448780547402,16.01198999210403,18.969561270557595,15.800281934844431,5.485410781119365,2.6448919731005014,3.702572953872488,-1.8992611799786667,-4.788424117996064,-2.098808732438971,-6.304628416329819,-11.743380987318146,-7.875011570121624,-6.705341635881354,-12.967721664599416,-14.722527695215046,-17.12976201421458,-28.0233430506142,-33.268118697634876,-30.285876853498632,-34.364002276457335,-40.40722052428155,-37.29189695781493,-35.71362351401204,-39.02292163943536,-35.56036396400352,-32.34580209029961,-39.82633327550811,-44.43060937956133,-40.327020189298445,-40.45663500595509,-41.03697888498983,-32.601281092862834,-27.03368043207584,-29.268175681199015,-27.451231861124178,-25.838645746631265,-33.54466179064637,-38.908475623637585,-37.39458988837947,-40.54391276163971,-42.54302442327966,-34.30536526072745,-30.008424678799372,-34.633185141875806,-35.67357169706889,-37.65501015031705,-45.78471012057863,-44.64378351927389,-34.17353406804685,-31.92178606503723,-33.64927329219149,-29.423158105507014,-29.430287248481495,-34.06242133549786,-30.246607401975737,-25.757659290638514,-30.589844014169817,-30.947187800569445,-22.714922873053887,-19.29410645118988,-17.160569151407277,-9.1668046832044,-7.568629539271333,-13.706647040400838,-11.675429797108528,-4.428111595999473,-2.441777943286263,3.016400487392067,12.494405564851782,12.101124420756204,9.013285036175919,14.676624108861203,15.896602411768999,8.574075971505966,6.56088168585708,5.159800690753911,-2.887620215107245,-3.2254365118867905,5.623933855617021,8.08623245241085,9.086955867586596,17.63008447716337,21.534176600863084,19.061709610294123,23.651201757427145,28.338234998519923,22.161308148605208,16.544074215009964,15.557404718673858,9.437400660722457,5.576089792152427,12.03600000334128,14.943053721946052,10.374976368619905,11.038189913268054,11.847583223424573,3.1917729491694553,-3.485557220287564,-3.4713975282241893,-6.10886903693645,-4.111183563758772,9.424660240639191,17.413736902637467,14.543396100585333,15.22374089022192,15.92390691193751,8.296193873209623,3.1088037279031937,0.9629248391904681,-9.29055072038774,-17.171927316104018,-11.573267327127454,-6.181306718024403,-5.639376419116343,0.6733403405688385,5.066162262801153,-1.3314879829835808,-5.040681087411399,-1.7089824669394882,-1.9828157309433028,0.0008657902630414549,10.837589013299755,16.440753350222913,14.093565844686271,17.617830657594755,21.804080756233535,16.15830874724464,11.28529277622191,11.267408525177538,6.681466654182637,4.911832723480336,12.937390299056432,15.341841774654132,9.491276603422548,10.571171253343499,13.83091712775911110.03620788940654,10.225237275662447,15.379603671144173,13.985320972751783,14.459370804623397,24.40218815712349,28.738944449358105,24.978569778806126,26.818501012178668,28.823536170056265,22.77023348292859,20.566798917042277,23.372012331578723,18.37609816941741,12.967526577256086,17.404488502199584,19.79558416350844,16.97778729357755,20.06778849326406,21.137876460507215,11.637704249869568,7.140687397245869,11.696933765776642,11.370878006301215,10.705858209281246,16.435919950674826,16.386492371910617,13.015958635370541,20.967778240822597,29.932249404717748,27.93286243711762,26.331914938945676,27.02138465457382,20.880666632677656,17.991197138815263,25.250607745567834,26.99829162438741,20.307409732500382,17.869910510004722,14.968992740253135,5.847207790065014,3.0115033473308945,6.129735897740944,1.7546314261807687,-3.1532329535556656,0.4916779647141549,0.9452318234818423,-3.8621074585088078,-1.9723759481771475,0.6172038883245925,-3.625636739105958,-2.1343189153098026,5.483549125661526,4.724612707470239,1.8713654871498886,6.247210116516447,6.246382088641209,1.44633857411794,5.209647916445904,9.843925989018993,5.3715703605638865,3.619340156224332,5.994897849079282,0.8457129461424162,-2.833567278672956,3.3761961097286504,4.414224108915898,-2.1269089915043558,-2.3416429822708276,-1.3796019816154652,-6.741375096389007,-7.2568841189221285,-3.375169254703584,-7.099668799168977,-10.209307149944244,-4.659833639224098,-3.8444359504197747,-9.776186616078348,-9.23101640556873,-5.864430200058274,-5.508512205444887,1.7395178736270211,11.461102022007086,7.993266677745619,-0.22770220183194168,-2.1381928023660164,-7.414524575041691,-13.581918621165576,-7.184212663208005,2.362740450693617,6.504935355426768,16.56491172547066,27.185469168024362,21.56024022215535,9.179715943285615,3.0123856562688465,-4.0947669468418875,-9.706413765343868,-3.8782363161614315,0.1881121174775061,-8.234767341039598,-13.827154642529045,-11.792537164652352,-14.07486934313066,-16.346062425917342,-12.853191765412893,-15.076626678540986,-21.84376863693448,-19.49149986701316,-14.950330945789576,-17.889933994450935,-17.26208840906067,-11.335249960236327,-12.003918613214964,-13.206700034158127,-8.388632502372849,-10.228156746852138,-17.477474386231684,-16.1957337799138,-14.88864518111906,-22.166485133605388,-24.882978585927027,-23.338838413984437,-29.858427905802884,-33.46559684010745,-24.801217186474904,-18.625345130446345,-17.023761395582273,-9.29489811442206,-4.747149648100104,-9.498827672742703,-8.378042183830459,-1.2607050080735074,-0.7985151503339962,2.4083328711862406,18.57996826455924,38.02053150311568,61.53918911177773,99.16321576743094,140.40932536242556,174.62631630062393,208.3893097687179,233.98560873516914,234.63918322571942,221.18299319763858,209.83877692838098,195.76238773699197,180.211578292686,169.18880496764027,147.2764688645567,107.64107945370323,71.92822014230424,47.64381655058127,23.19596295703548,2.491839095081635,-11.915938043094046,-33.84997619753951,-60.18615794334537,-76.64736891779803,-91.72970053506376,-113.84851550967969,-131.11382768212735,-143.14235029067677,-160.52297402521353,-174.88507419007286,-179.0400960780224,-184.8977356380406,-193.13528308476836,-194.10091365306968,-195.46662416987635,-202.14748280679026,-201.31729869891842,-194.66444189703662,-195.88294049481087,-197.99562454154272,-192.7521286025979,-190.26409264752834,-189.02126402089488,-178.61001866357196,-168.63428489958946,-165.02548138523375,-155.20670074900107,-142.16894698453393,-138.3270943461105,-134.5821005376441,-124.36262355193563,-119.12121970090189,-115.70156944786895,-102.00886532038044,-87.3104634087521,-79.48550861217876,-68.83391776845842,-58.90847420274852,-59.59707077834084,-57.522049855620985,-44.07852043475587,-33.75958971893722,-28.24809502332156,-17.164423554669305,-7.50822409968317,-4.1517488403594776,3.94661582801948,13.206560753247938,12.20410541504681,12.933519614296248,24.100821824068905,30.40901250683344,30.272555642749996,36.18697539594895,41.20961878375941,40.93793438680366,48.199830779619845,56.893259737768076,52.4000781415363,48.0153006028786,55.007572437674995,60.45229675932919,63.23814096396791,72.00010057426235,75.63106729247154,68.35237791931294,65.20354158978105,66.93038024385487,63.42484918284585,63.88401117668531,73.74400865938708,78.30984707961915,77.40183750800911,83.23204325519197,87.31623902061058,82.39917859666599,81.32268586348707,82.85956346232179,76.1163782551143,72.5481313654814,78.83288446402271,79.96852633571139,77.72242545216473,84.60165959054949,89.07917592143708,83.02825315158552,79.10826373789477,74.83570028189854,61.44707291314057,53.9654949582099,60.1063769828209,65.2534873659941,70.251420656362,84.10282858731627,92.95082818266687,89.23223862186728,87.42629330320523,86.37228545429993,76.18454476215572,69.2031897543413,71.69919032907984,69.51631072340322,64.92619746366074,69.14984874699557,71.04890113410518,63.71483783664662,59.83366284293824,56.80227838993697,43.723086396472866,33.31715085341,35.74361256420238,38.9173298794935,41.08428909278428,48.30789615879109,47.100724344530065,32.4655841839232,23.356881459639926,21.786203016408056,15.644011822533166,12.085933273196545,14.93100323603512,11.641985372638462,6.102743981751397,9.239861439490857,10.273004455119807,3.0340767114738463,0.0859813570125183,-0.20815192890232925,-7.659429556846534,-12.329276340392898,-9.57986654453181,-13.426184745356409,-20.94297379996003,-18.208384702684114,-13.274706759540972,-13.494467031001564,-9.667545619372369,-7.803239693228793,-19.091758342223557,-28.79995716486888,-27.090721430642365,-26.94427994271257,-28.00061276143141,-21.787925036856176,-19.485276775541575,-25.388614393288588,-24.966145170658795,-20.043444161664716,-21.672186233141055,-21.65926255274104,-17.25276903082624,-21.25132975809895,-27.561690342157803,-22.333163271656097,-15.562706013423742,-15.666180127837677,-14.275786952777208,-15.602011853241944,-27.484264563069463,-36.09536293023314,-34.142295119536556,-34.23803865805738,-35.27772964277584,-28.898802881707844,-26.142075147649205,-30.944259071856926,-28.83745081471713,-23.179667930854535,-26.791134055950298,-30.792158746066214,-29.9229869226145,-34.822812274104336,-37.98534690972129,-27.68591585820525,-19.70783682170238,-22.579127159042613,-21.347176435816817,-18.135081196243952,-23.53346097807034,-25.997076208671267,-21.84769809161076,-24.53937497646585,-27.373933073136097,-17.980666732242284,-9.5350171902415,-11.242428107088276,-12.472756998116987,-14.919710062535216,-25.637509396251325,-30.835823071755787,-24.578489443662264,-22.665128978025447,-25.518061949477254,-22.931815386552817,-24.22660952255216,-33.05395468879523,-33.7968386563209,-28.43905037492543,-29.25864981748876,-26.91821193449674,-16.89288351201855,-14.092550820750649,-17.515493622707364,-15.933917703127445,-16.91277852273612,-22.217739505022887,-17.376963231883707,-8.111791702668615,-9.187356147993237,-12.703556041487175,-14.390471282718082,-23.470133486066036,-31.117922795047022,-25.823056084064685,-20.652789280497878,-22.820314607462254,-20.892822498330602,-17.716443891621033,-21.265698093296418,-19.975165743882325,-12.10057660393211,-13.574151302608755,-19.470690947378262,-15.547823553977105,-10.598540761138906,-10.542943292296242,-5.700014144780839,-1.8754637330963395,-8.523500688104857,-12.50151340275104,-9.277017375379746,-13.479216278095594,-19.35237459709785,-13.140081700145988,-7.436841633443448,-10.60478533225739,-11.600024701693506,-14.218083834230633,-23.8225225615013,-22.194930896500054,-5.7680489843301475,3.7879008069187785,3.8046461521088575,3.842689993927361,-3.131243174142128-15.191633049725919,-16.01265610430055,-10.801420765109171,-11.954763637418845,-10.82480125522979,-5.6376515670023455,-8.614823794739173,-13.241590631627245,-9.176286934526674,-7.418860977923931,-11.301370515679174,-9.610800403018422,-8.161550818571214,-15.111286507927712,-17.328484356313705,-10.833445564765356,-8.757130555125157,-7.031743587791759,3.121635050008085,8.78377124260099,5.517234245499017,7.2058310931955845,9.931995822071576,3.4809109996273286,-0.7590833446445316,0.9415950953615038,-3.6090315716849672,-7.351444309666235,0.8704408007106998,8.289808899069746,8.563557521431381,11.877456634587503,12.77576601720974,3.6707325021540633,-0.47728186928549515,6.456919106810237,11.295914159932638,15.208528945629185,23.77719028132955,24.2201869040949,14.945501271111212,13.21197334571267,17.978808688093736,18.035592625210075,20.728464559850423,27.785076024071323,25.694971727384065,20.145899106571648,23.24762449863553,23.43606910866378,16.928248993315073,19.018571546622912,25.42893562594105,24.37536574239681,25.432616808504537,29.51009402401464,23.212667523602683,15.531335434318443,19.79825229494499,24.455841739064905,24.292656404316773,29.143682579085876,30.893800308654345,20.177980374559333,12.720884137456006,15.693868535610529,17.092765053582816,20.590671990516125,32.75268323224301,38.36591530422031,32.384550338252936,28.796047452573838,25.248098646978892,14.593619471918732,10.411465249928852,16.86048049830466,19.238380458115813,18.853201031930062,22.501117116722988,19.2176460034799,9.651893547176686,9.931045723693419,15.257192544307639,15.02976325982469,18.117414762370792,23.811243221117508,20.22296222784058,17.66795350839486,26.547499604671266,32.150474952882064,29.986182773648416,31.876315063666233,31.74433389386749,22.726446640746776,19.109107446369613,22.337232070156144,17.593498104689616,11.393376915454365,15.05921419177781,16.818430911776364,12.551751491375073,14.135065021421116,15.587106531400423,7.847095140611124,4.455925093672129,9.757956199903916,10.646753436586803,11.256150060982261,18.929410034676273,20.648693766881088,14.980385760336413,17.559625514295327,24.327508900736436,23.450541223273586,21.625026156082164,19.611876364386273,8.21487861517003,-0.5301642361492389,6.403192781791752,14.325570684515625,14.196475182636451,14.770081433388242,11.375307458609484,-0.49534692330993124,-5.268715883578185,-0.7050758192475266,-1.8007892607345275,-3.7130714886616225,3.629383649025872,9.350039278463662,10.468011574222169,17.252153831558264,19.919074964906365,8.25822903562662,-0.7649966641605768,0.9289315647816303,1.392939199034319,3.358527259690444,10.852444306814089,8.668315433976128,-2.651354815482013,-3.9540892942603483,1.0959640695202673,0.5781329261096333,3.1545032290495585,8.65674191407141,3.6932003592943676,-3.625341491115564,-2.916591354919448,-5.597060428430695,-11.85652425771633,-8.43221361111541,-3.036351355128925,-6.237265057470366,-7.541612978567313,-5.3877248926907715,-11.125380876844805,-16.40782066525045,-11.503476080087545,-9.060781018193067,-11.158916117087138,-5.541815352840329,-0.2239552291754563,-4.84841031065066,-7.0572681988054775,-3.416134686326213,-6.666923336723376,-20.136466697916795,-37.59171675795088,-52.12770759537467,-58.36469444929931,-52.56588331619105,-36.79701264176597,-28.17117945063655,-37.86708326349899,-46.57367893926729,-38.19472951744447,-26.54794330917422,-20.550218147850536,-14.540516336756335,-15.047268668081605,-23.730324720458846,-23.0358606247109,-13.167910239588785,-11.83770708920896,-14.153557021472047,-9.263705479188118,-8.299219535193362,-13.780007258905231,-12.74982161464115,-10.7302586126389,-15.850290803159654,-15.807983266998509,-10.288418803798745,-13.451283843212511,-17.510897854114994,-12.322979350918107,-10.793438570921982,-13.365052249459161,-5.780557909791276,2.2594049890126815,-0.550698192278297,-1.2002423930814392,1.6968267827271755,-4.299067777047434,-10.00160941553715,-5.94767779351879,-5.988459682359622,-11.808837381139563,-9.435757827621511,-5.081970354642639,-7.332944705745828,-5.223313069021724,-0.4978516252733185,-6.983355991710387,-14.494170492706917,-9.712450831756364,-3.014800440561431,2.3045418883630386,13.599616402092556,17.881653685270894,6.457357030274043,-0.3345993110559258,5.802229299690039,11.908348554724528,20.24256453690684,31.837420492357218,29.077790956504955,15.052157391038945,10.684493679445682,11.281554008726115,5.527899358145945,2.8619806063128452,3.5785565331783373,-2.2652086532986617,-4.015621221178929,4.843140700420134,6.747977217187094,0.26495835377785815,1.5860869909508395,5.416415918639697,3.076447440901481,4.885532657763352,8.426468115553284,1.7150705290595214,-2.8200757933512857,5.072474184090992,9.784402723246146,7.285200244887212,8.334303930054908,5.195179799975248,-7.94763154369817,-15.607495545957526,-16.137192332981414,-21.224331793410986,-22.148814775323757,-12.607955491219528,-7.978600734605504,-8.641324490709149,-2.2211193578276314,3.104737483771085,1.113878471280473,3.469260154798149,6.988058133889034,0.07598941356516287,-6.455522229393127,-4.136691571968571,-5.082249636417014,-9.54663345068057,-7.700103692881971,-7.522970711845655,-13.551449676814574,-12.824085229332862,-6.597605122469546,-6.887618783467424,-7.169513392047168,-2.354152320948324,-4.870434477895621,-12.732919291605526,-11.102345933597997,-5.529183625019408,-4.209401997407527,1.4360669511428696,7.3704997337235465,0.9359705424419684,-6.261833207649348,-3.3928448855577225,-3.7572548129594256,-9.050591822009466,-7.4734918207959815,-6.421780416306361,-11.20906851606542,-8.407725636075453,-0.1813411763468542,0.46216377748256365,1.4301004322061186,7.767328338241472,5.253111796491401,-3.7098305251603945,-3.3627837791905484,0.8967047485343529,2.1976791120376213,8.722503591121004,13.059332631177503,1.7410864962585886,-9.900521884181964,-6.666489299891723,0.46881269472766185,7.5777669924214885,19.07670279164568,20.501683446772105,5.776108505305675,-4.082700008693005,-1.680687890828708,1.9845836812734645,10.072910578063716,22.33960791191546,22.27284113961057,13.588913919287869,13.753809459572771,16.26085121028912,12.264408319158246,11.52743056695611,12.016888926109193,3.6902367062127084,-2.683522460021218,-0.5808251639384678,-3.5509413216032764,-10.075424969753284,-7.347996894017963,-3.4404180645617335,-5.461128293281409,-2.1945026647834593,3.261861554805871,-1.8365017495975162,-7.260687518252643,-3.3001749226405828,-0.00813048610753428,3.0441889649745475,12.585118365924316,15.079990859220391,3.466387234971204,-5.413975165167083,-7.384668891369071,-12.516317506762839,-13.839115508605305,-6.676101940945615,-4.931656421924888,-7.216548094679113,-1.7559561687393745,0.296919305167735,-7.880991046434419,-9.827817491409327,-5.222263598288671,-6.73628732759716,-6.378087189367449,-0.27644267773378095,-2.69820302834662,-8.815666015032697,-4.1841266452808705,0.0953288773426969,-4.14341253415842,-3.435271964707602,0.6172470029797894,-3.5427469011671464,-6.576193187604145,-3.293769982094179,-6.177031167871156,-10.682673103303923,-3.338563720166508,4.751544082308868,3.377207632829222,3.114995998626966,2.618097906008148,-6.724170488458063,-11.391706539475534,-3.9155433778885436,0.46975137939278405,1.575381898277325,9.224797876968115,11.430719856685103,2.5028222625891914,-1.127383335637338,0.22586622957503422,-5.287263726160265,-8.79492309497398,-5.148861666858208,-6.217304665747765,-6.233992331706834,7.6053428406117245,21.116930605866244,21.12881674073169,17.431330104778425,11.685371526678836,-0.6993669215302187,-5.536660573179105,2.87505057635275,6.7367054094537835,3.6169530152649303,5.57094236270573356.82838488255987,3.4668902312748617,7.3030933749758296,13.16301847346091,6.618846949306333,-2.2556702937703825,-3.2298140086598544,-4.699848949156704,-2.8267878799329864,10.047609448640129,17.78620814093564,12.233149697417652,8.747619004297913,8.014800497123352,1.2599487878488573,-0.15548669132990267,7.998588437257211,10.007241773649238,7.928421945830667,13.164573292612408,15.438413872696993,10.237780939656062,11.013117540563067,13.561272121206157,6.082188380053647,-0.01001537116360307,2.572868524552643,1.105611094719473,-3.8896354167977174,-3.9472322050844806,-8.741346676396105,-19.594975064251596,-19.76430097117506,-13.207056070348507,-15.078092242731143,-16.547371988259172,-11.018363232638734,-10.93107860915483,-13.014151366234755,-7.010688166054781,-5.85750309216423,-14.009742659765179,-14.05785805640255,-8.697371327218619,-11.93164763143424,-14.226059070718698,-10.260471360073844,-13.276440036114705,-18.476475187775684,-13.323458176597272,-9.609408807702335,-14.305519618225048,-13.909757237252549,-10.624402196120183,-15.680982072119985,-18.685994106526657,-13.800198041043114,-14.233672020253247,-17.22753410593125,-10.940572981871497,-5.278418212751429,-7.552790141698923,-6.622263582337606,-4.418472689479001,-10.20518614408375,-12.668731275742225,-6.059172173937155,-4.864974924947735,-8.338329135680832,-6.103390128046604,-7.3977257121118685,-14.608776300408017,-11.865608044305882,-3.235954623516457,-3.117636568407461,-3.588189793406287,-0.46364977594739676,-4.749851181582232,-8.830391296187845,0.25893177057124284,9.86632891603924,10.865278186969755,13.100886970297651,13.082951896528176,2.9671060677074235,-2.908341950953993,2.5643133348964997,4.95575861518686,3.555963661954636,6.653923868198424,4.971439143579159,-2.789085996996828,-0.37543080002285434,7.938717238805667,6.714000203638189,3.819729258161808,5.06442345084832,-0.39542595516718526,-5.825468639136563,1.1999354375421816,7.3857637889959245,5.701662141114985,9.335565242036951,12.756825737450479,4.150666100782608,-2.2227919349193583,1.595943701108379,3.3251017625645733,5.6267616633785105,14.75661817272964,15.847572875404463,5.574993122146139,1.6815104903527263,3.9446777688492305,1.5443075466630796,1.5222309596151344,5.626229937545528,2.7575015498378423,0.21020776004526776,9.673905308164164,19.260261716702534,20.803307541109263,23.438439017572332,23.769892471931517,15.203905163014175,11.868657009146075,17.41061859397558,15.084818706524965,7.546626093399886,7.611620763941821,8.268067479113126,7.756103284367298,15.719161926118243,20.45894450674979,8.9157462254392,-1.8389032593683412,0.07535651506170638,3.315093851775363,7.8912145589754195,18.38054439747469,21.32786175399846,14.817472474620823,14.248134612775964,14.986631736927308,5.56685198868786,-1.1707773789440044,3.3292037232765903,7.480097552812957,10.874862307369302,17.38027232677896,13.808119952524917,-0.5628890387834105,-6.77719007244956,-5.298110105409832,-7.932065417174087,-6.811811953403334,0.866156545349483,1.2985237928943667,-0.179723485735505,10.500636147767727,24.777668806682133,40.09332036513038,70.3734924174982,107.9937046545596,138.04791112328897,169.62714825918567,204.7268349787048,226.912587665318,236.02578030795613,238.38058480313583,225.63659739235965,202.97884724878278,188.3535086445554,174.3170075079905,145.54121833133507,110.55812157734394,76.69996802424221,40.4413055888577,12.623856341403418,-0.5300435937924526,-18.19928103527007,-46.6636552633804,-69.94512273388125,-89.1887381161113,-112.52407416864894,-128.27783427345324,-134.30154731070667,-145.8064644500077,-158.79254948097073,-163.53275305221553,-172.24261171139028,-186.97144791934863,-191.50451181676186,-190.831568182085,-197.48255749701545,-201.02305771531044,-197.72477152103883,-199.22904314522754,-198.52837305627264,-186.06445866713733,-176.01226655718403,-174.09211325861577,-167.97233836901844,-161.5432167676474,-162.8583876849575,-158.3172269505606,-142.96036758855493,-130.98317987263638,-120.05990718577658,-101.83911155792467,-89.36487464778284,-87.52463814635855,-82.98187776195454,-79.63516593669027,-85.37828006415248,-84.50867979386729,-71.20004880831976,-60.685523431636916,-51.57560747896537,-37.15971627543413,-30.370345609304803,-31.691810793602155,-24.0851595591842,-12.063460357172383,-7.427492976506365,-0.8719928573928852,9.21842426623497,10.324271909481752,10.380416253899758,21.790329457864328,33.211391342923726,39.3060803765347,49.69729334872265,56.415112149684674,49.68949716120108,44.33193638474794,47.58684845134265,48.04738561783462,48.59338302227651,54.86311357045628,53.4018549830558,43.563679681006946,42.67309818404634,47.22748966922179,45.90581564606593,47.98796116432345,55.11836273221918,55.54598435669579,57.39026511860385,69.41367035899732,76.42341432451406,74.32753583691161,77.09973885794247,81.04281374300359,77.72403102407142,77.38965755505377,82.3632462423473,81.08287358769769,72.38909424098024,61.69731407079507,50.49839708299769,39.94301556041329,35.67615293913239,42.86272359786724,51.46891347368288,48.36047772357575,43.08321414047116,47.05585296534987,50.75612034852459,52.03191569397621,60.02085450989399,64.57871330408068,57.29107757010752,55.057636458330315,62.04134414285433,62.506899971296434,59.84753267586389,62.23678769577484,57.280426520101415,45.09208307262964,42.989011712274554,46.584883371779,44.590033422573384,45.14443265157564,47.896118698322205,41.52222947791123,35.81529053816797,42.27469337266024,48.70251145599873,50.04350684147509,55.33328445346275,56.805061730391145,46.4318872977381,38.13082930278428,36.22510952808911,30.17206450402809,26.80065663812714,34.08012579975383,37.96346353927919,33.22912297752874,30.532205389698614,24.894223157461894,10.1033478132777,0.5104293186926137,-0.5975360190098866,-5.422441682959992,-5.959548113886811,7.406770073407694,18.248230277250684,19.118126366749884,20.76049345559701,17.86425507590974,6.134687943381011,3.0215922447737364,9.388553935578104,7.231602278864932,1.5858350260769638,3.900021199727395,4.502204557392478,2.5935928813789397,8.785401428848058,12.016213526492365,1.66348061622401,-7.598519268005033,-10.225552942366228,-15.864703351675635,-17.383590273511906,-7.952005291334811,-2.435336862364115,-4.955420531127507,-3.8685794798760442,-5.265132691005286,-16.065329191907203,-20.38495720580502,-13.913019628504642,-10.455039576601813,-6.3340984048756255,3.9809265997628196,6.36084987900769,0.7394447968608184,1.6845036896442502,1.3394364561092982,