-10.735168367930989,-13.550815907729415,-0.7032688423035376,-4.003660904277011,-4.673821683685658,12.41888391490248,14.527625880119668,5.937744499116242,17.907547919454,26.26675966722448,11.929785141584587,8.711457740836277,16.163297579047203,5.164587236890542,-1.8818327382765871,11.864680460184061,13.063432250688905,3.741010673050532,13.988187400535644,20.847924155323902,6.634425374668993,5.983030758215922,18.144540575916036,11.421664274275113,5.704552846912669,17.685769257310692,15.293995262923161,2.5841187198994917,11.689356639645673,20.30382045666355,9.541973166323917,12.019946444136883,26.11432409904258,20.375019968508877,14.686286788139018,25.125643189717547,19.00208675343795,1.1340526658636838,6.3441380840434,14.895694775878379,7.619551515331577,13.883667694779238,28.641149411728243,20.15045270688924,11.276107653402292,21.427796543158607,18.986510503937446,6.3040928860661545,13.77334513669031,19.47890498173577,5.96855552133556,6.053534695966777,18.174088950312825,12.140933027663245,8.036050089176017,20.479101929115586,15.368103844429484,-3.8813153651703622,-2.514560868405291,2.3898293265631105,-6.162288413260002,1.1032693762032348,19.048961656175212,15.36634541411562,11.110999433098526,24.842798054706968,24.734476653407864,12.453705592442853,19.170833974413224,25.13498114028195,13.60782090414412,16.764415742589463,31.972605182856885,27.04005959370908,21.090127499845224,30.372235837557252,22.84244426029727,2.9727294838224783,5.359465259028655,10.765486600063205,-0.022527400788660223,2.6272946094969987,15.35379362760656,7.249799264693593,0.3323197621297447,13.872549366747311,15.500093771246194,5.29599420581361,14.079219102252166,21.7713644671468,9.949788325149008,10.830510294621359,23.65614922640261,17.134638227343657,11.54572462738033,25.010027524595543,24.458709566211112,10.545797560431364,15.171526212025586,18.6478613080836,3.2043592141575443,1.7275428640824606,13.268171053972289,5.968751188889577,-0.39794699374020004,12.58430513307656,12.592996802134746,-0.0777656316984201,6.091294507573103,11.901080979608203,-0.21504676138029133,2.8185544218142162,20.053445784272398,18.350326996377415,15.629108757986568,29.29837714033306,27.958886410645505,13.919874976580275,19.382883357331306,24.643202907058356,11.045342691147244,9.955829287690975,19.97155577008962,9.45288540337953,-0.8444954198917207,9.378469547345448,9.058139945415203,-1.0763162068105787,9.567762332578212,18.44527596151131,4.340180295213935,-0.40095527812319043,5.967931738684619,-5.073512719677199,-10.957220219928116,7.43184894379927,15.387271088582127,9.882091255324726,20.12971574171332,26.101780213921504,10.359962991282027,6.144708169451127,14.050677351727948,4.491152725652502,-2.0386168211387026,11.643270914386589,12.262590798309414,0.033713252864631116,5.933947919742703,10.37372294471615,-4.161972506067112,-5.006703388845791,6.793453543991243,-0.9006436536289639,-8.572381813691415,1.9509258547362167,-1.2070700573279676,-15.481358266774727,-7.606506767488524,2.0961727708247007,-7.36515234208592,-5.8271880342847435,6.915125092831463,1.1814391271097895,-3.438294397527679,10.250755200683592,9.179304565532533,-6.148479779685321,-2.822475255223889,1.0706177660319942,-12.906172755819842,-13.161878948968727,-0.39720603961852685,-6.6131771424899535,-13.088042231378726,-1.9890699000906586,-5.305234906487854,-20.513252037404484,-12.920066687548925,-1.5001377812180845,-8.077376886141575,-4.22840697235796,9.118153172914438,1.9111808908634793,-5.426165273839969,6.4922446346850915,5.891362296606989,-8.073949502044872,-3.920334508581025,0.7688628123427494,-12.541853354205664,-13.698227142768587,-3.387068986044564,-11.897668088341236,-18.668701485595324,-4.791312712442254,-3.498510942909941,-16.077933631337707,-10.48536665427618,-3.979260734786957,-14.18095748448399,-9.96344592597584,6.269291817025759,0.6276694047639308,-7.689238388096551,2.600027070751251,2.039154120478458,-8.791078868514195,0.6214737126909018,9.35895407972146,-3.256003691484133,-5.83475044507031,3.199747580397319,-6.259213269798363,-15.167791112251532,-4.973178112920929,-7.397726258458408,-21.72259002479818,-14.451155396477501,-4.089843435848063,-12.401455334537996,-10.178642811693212,2.781986854155134,-4.736369888415191,-13.033974999235202,-1.5201569973735198,-2.3667392285829143,-17.396196273530315,-13.875477536245683,-8.806073216625045,-21.63327141488359,-21.141177031453243,-6.8961919435385095,-11.950064955565985,-19.057600294524285,-8.154246618214156,-9.27115930763328,-21.98754530953779,-12.863881066903,-0.3578881114669543,-7.909812832387596,-7.782391319614776,0.7137741543640024,-12.052532724700804,-23.80808296031084,-11.314271110685013,-7.3999169037541,-17.950606362242745,-13.559291650158912,-11.07338430876132,-26.56523596036492,-24.97801376295113,-4.99330168588691,-2.426067038762118,-3.404048323490935,11.063827284630005,11.858498913267551,0.36435571977390957,8.822013508183556,16.673634353883745,1.841153279338175,-3.1037414628766995,7.003463236310344,2.6547539189578195,-0.5042488253405514,11.822231276671818,4.509553020606102,-21.707746323623482,-27.819393002808813,-25.072830188573242,-32.303192412960904,-23.184962860714016,-2.5265843541140978,-5.0572805272535515,-12.176267261018845,-1.9458536865638987,-3.875867650418928,-18.142172895334824,-12.061607509595358,-3.1574397890020545,-11.664817217229823,-7.721211880929237,8.481172701521682,4.495937798204368,-1.2663878995889963,11.822780794540481,11.949877918662121,-3.0947191979565787,-0.08096923209847962,4.95745989385881,-7.869370486621581,-8.469317579815485,2.786333273643373,-7.298381859592089,-19.930821301640712,-12.571524281983729,-14.163422080927536,-25.11772889592362,-13.887578661001994,-0.20024372633648824,-6.565416444514884,-3.3479522427575055,10.587067707741108,4.222060949429203,-2.9962065642659077,9.635488131933851,10.216872090365243,-3.4068603942622975,1.6271581847317451,9.255896578943648,-0.20743619780455447,3.159916046529133,18.550365277437542,11.446703702486237,-0.3624543170378245,7.304861320273741,7.232128147020527,-2.785074340066314,5.244279680351084,9.954692235267421,-8.85143411269254,-15.581898941023677,-3.508091252508256,-4.287683801446027,-5.091150425234257,9.899385181190013,9.308411981230462,-6.141982682308686,-1.1148073070650333,8.41059989158663,0.2778637109782691,3.045163649189913,17.50851892745012,11.135567635341907,1.852364578860822,12.237286272165004,13.016972053550427,1.4161408575782461,7.630890088195888,13.111865690770461,-2.4815688351506706,-5.41342915162045,9.700418988818349,9.886246765309814,8.127667327620882,21.65161839159259,18.8586723026913,-0.3423614018240482,0.03799303337918625,5.214813496094354,-6.514158609510978,-6.044460985639574,8.61256590731225,4.345533252330879,-3.157546721592864,7.669096623129966,7.391658507844261,-5.921631505940166,0.7007257833689726,9.985839926326731,-0.692581862693447,-0.6143003550541586,14.533576255452205,13.041610159463078,9.908525125599576,23.562976702290992,22.616004175718206,6.49003092349893,10.722028631210993,19.69324409749648,9.539277980670636,7.228619611236686,14.614945525727906,1.6773983436044313,-10.701542393479086,1.8511768097014754,7.721356120484492,-0.02951830056832705,8.026779339082301,14.975859060748391,0.8622455857504994,-1.4322789294607234,12.263384038499707,8.063337910654305,0.5100223939672128,11.212736316389421,11.195189257684504,-1.558414180619736,5.557656224715625,14.910649134165416,3.418118955777272,1.8423820286194608,14.25382081658537,7.995478478428189,-0.9822423076592477,8.25974082018815,4.6095056127927005,-14.017019900809672,-12.388469467373426,-5.12380164388561,-14.187077999852502,-10.424596843685123,7.801123159099823,6.835533479774977,3.1169059668535684,18.421101005265648,20.978967446185372,5.687979650502278,5.064159431823135,5.694401949432326,-10.161621324299418,-10.147661173529375,8.19857654337677,9.694977417769394,7.2021047550328925,20.278600180299417,18.282420787277747,-1.6416677914858706,-4.940233828210431,-3.7421984362165404,-16.370082579983304,-12.126449123667527,9.388704584666034,10.323729639339474,2.8444433612315487,9.822435617474436,4.92556737123391,-12.347687174931291,-7.72009466766108,2.3718589017405867,-6.569254106752337,-5.874761933428825,8.052472080451945,2.5994193311226783,-5.494274637333485,7.030223849416667,9.65538782285918,-2.8296616210364007,1.7308488263709272,8.704396344940825,-3.0379595817435643,-3.402941341966116,11.237634612905966,7.187765874827599,-1.0837475752559702,8.957449411561504,7.9474652182500565,-8.297060572401056,-6.106209195455204,1.5223661587033157,-7.112093017521925,-4.103476889269695,12.364268669027709,7.784302269295856,-2.3483907439557257,7.3007365967282505,9.105396854704985,-2.2661570741731314,3.989342204621697,11.92706279441959,-0.9627587948971348,-3.615303023118183,10.470371576835898,7.84263805052433,0.612382681548262,10.445693080591772,8.641796122311632,-8.08951376362322,-5.0000833728027505,4.073663233314207,-5.524139470459393,-6.929665392750763,4.3768441499606245,-3.129459127892388,-13.541592642608446,-2.6829360367580266,-0.02732529843535636,-12.122077062158507,-6.702321853443134,2.9535307543648197,-4.385151422674274,2.01169147222278,27.557614598054904,39.24855752461197,52.59728226904704,92.21007360942559,127.13914829093811,146.60397224103082,176.81667862628228,198.2355165155587,186.8385730275888,176.40781605796272,176.0332403046819,152.14374113572165,119.04012575124104,103.8193322287959,82.07456027269575,50.87037426217886,39.62118760210349,27.176613466971986,-10.117287901688048,-35.749743410445106,-37.98676414665298,-49.76786276672398,-64.92925030899335,-69.39945144322024,-91.00487084558816,-124.99739014336267,-131.96012154395478,-128.10678148430725,-142.46021105487907,-149.2691399601646,-142.35967298255827,-152.11353660005065,-163.1452982323774,-152.49157715890703,-150.08102762208378,-162.03179643927717,-156.0819671960288,-147.128936279491,-158.57308338355423,-159.427333635236,-142.23268505213315,-140.79901332565453,-143.68540708727124,-128.2461833022725,-122.64585550065274,-132.03915903425587,-123.39535614683487,-110.85127157226903,-117.24980882653094,-110.4436208047572,-83.447877737734,-73.43992373408734,-71.74019639747532,-56.69679696821041,-56.80303387146907,-74.68903026372669,-70.29696407265882,-51.483447653423454,-44.071869285142625,-26.43415426950471,0.7330938401007234,-0.722652960856891,-16.44839458296816,-13.070393328967418,-9.940596608978982,-13.003902914824387,4.133026076290771,21.737880234541453,12.894992198312336,7.597090470063996,17.60768919406851,15.375168029524318,14.522680409433493,34.07773525709916,39.89584704162294,23.58562813034076,20.26173357371248,22.334184193578736,13.006214646199714,23.940507351708156,56.048615847090495,66.58321767258138,62.1647869175361,66.59304338643874,57.16128069526212,35.44053381189114,38.20884926713497,50.135086431069944,43.30890237526647,44.842247987528026,63.046864931038684,66.56095753705199,65.74490348185861,80.22308066573765,80.33737726974155,61.51116262242372,59.991842626966346,65.64044309957043,54.28464349689014,52.12891351767298,65.08512205099944,61.763518269807875,55.891283916239054,69.20139243480571,69.84092660461737,50.79483339092558,48.147732622539635,52.89242847995872,43.60217700266449,47.910454115611905,67.51757325260925,65.35302543289394,55.14690886125921,63.914408611189266,64.47875436978225,49.37830194418851,50.74155424783849,56.55286905417611,44.44239965478462,44.048984077115925,61.23094331675077,59.088760471632725,47.10670960358539,50.85182972660729,46.15936164405451,28.99823131229548,32.27775858754894,41.63077779176523,31.988123053271334,32.415541560158,50.32365114153566,50.71747735464055,42.176439505648815,46.82259583989902,39.15271859923827,18.38347504937535,22.11693680159035,36.58426193443785,31.585315676562765,29.593749213946655,35.83238655423914,20.74196714098947,3.1507204198035637,11.405375391408796,15.510455710479102,2.9956033652334666,3.5741881655456753,6.462070264117589,-7.552298294595046,-5.819115460288764,18.163213973295843,25.649533529129176,22.991911629936315,33.17340366121276,31.167400720397353,13.291000913917173,14.089039053099388,21.33841341775914,9.264863724199131,3.5315762865742366,11.449317889115909,2.894373804270708,-8.882283340271304,-0.27910200801014273,-0.22612575349059982,-18.02833200719066,-21.448528992543487,-19.512987687145177,-32.54852999084892,-31.573234664596153,-12.152383668045612,-11.78169057456425,-21.467656634355517,-15.569413771177343,-17.320747591768605,-30.552984207732756,-22.22572883959684,-7.315393591713978,-14.454351417744405,-17.276884619284775,-6.186577770036875,-12.020379247559731,-22.818318282307526,-13.89553056773006,-12.622324356559576,-27.985516617031205,-28.48377596388716,-24.706628286566435,-39.38484717386459,-43.73852388561809,-28.83557794092367,-28.428813433623557,-34.537548462965134,-23.898978302598668,-22.279301777529568,-36.203909657607134,-32.53908250997508,-22.9372038481669,-31.942756423667188,-30.74617850024911,-10.994661913921066,-7.607881430526996,-12.741143958359743,-4.19177038748307,-8.497148448603927,-29.48766311528187,-29.924956448828553,-20.600885389998304,-29.708559922615056,-32.4792302634224,-20.683770147665587,-25.931716315552208,-35.501968585911136,-24.170869046270617,-21.394462384816485,-36.46910524511724,-33.68700285444155,-21.713404387583104,-26.685997437982408,-23.32259086208539,-5.120438963472284,-7.67020779387704,-20.40710277678811,-14.763359509797292,-15.13240803155964,-29.385123635051194,-23.376116314311872,-8.678151134109003,-15.714198804296663,-21.10768041359492,-14.414105821275692,-25.176549931385185,-39.778474113786764,-29.792504993350676,-21.353526492816,-26.023771840263358,-14.203701875170315,1.591913046468993,-5.495329874400854,-9.373992135571184,-0.848060318802454,-11.075441933231227,-25.902635745711898,-16.381454232818058,-8.569442702968667,-13.444023613520093,-2.824130544236177,8.17928896630094,-4.9293560401072005,-9.701653493813126,5.676394690846703,5.291374328041432,-5.3673197945018565,-1.7196761802914908,-5.442043481889466,-18.907607551596914,-7.466010166243768,13.289754576197385,9.426138508247108,3.5520213487281596,8.523335472985448,-1.9889347904951276,-14.698612094818172,-4.049422994163196,2.67959528777008,-5.306783902935292,2.289854982670806,12.998289954551925,0.9262680332548872,-5.016605133070601,6.940939310970649,5.634146529440571,0.2615503441014315,11.802965189441577,10.890151955592966,-8.996811951589802,-10.091398763768478,-0.11608585709867958,-6.6791745400721005,-6.412211872070339,8.383020874383742,5.060233727089672,-4.5783916537448075,5.643623310940501,6.7069254936406715,-12.202140951804768,-14.72800432215271,-5.0409995660189,-7.453429751986191,-0.8979175264336527,16.57643247630017,9.326014045183719,-7.868737517456227,-1.2553063293687856,5.088293550992543,-3.0675177338641175,2.162206953244331,10.26318502022205,-0.48038237232212744,2.054508003156183,25.923817680550556,28.492826046455242,14.39369880802711,14.24455423766718,8.481334592202348,-7.601510916347876,-0.6001467380608378,13.049450108224832,2.66662139167856,-1.346199181281871,14.520378532770092,15.29586678929304,7.277853879216626,14.59638935849895,12.236265694361187,-3.8270177660289644,4.011826698185476,23.9981916002984,25.609007526517985,34.45839167067716,61.580064290141266,74.97616446143299,85.92218990881072,121.159844517279,152.19013786203436,165.6064251147588,190.10914256387701,211.15949401311178,199.65849171074768,184.09411697513292,181.41304547363174,164.64900387224858,143.07829900326655,138.9181169510291,121.35927841728818,77.953473729038,47.741834015545024,31.05982979799453,2.8711800035469457,-16.145175668190934,-21.111874644252477,-46.9331367880828,-79.6248934574278,-86.12785875146898,-93.00623056091027,-117.12283171450751,-130.07596187390502,-138.61471731232433,-162.35251535100588,-171.95091301578196,-160.40298171441324,-166.45584512838417,-182.51740040846988,-178.61452732145955,-179.563916657451,-197.87087622136218,-199.91100451235206,-190.45344693055898,-191.22145834373373,-176.86918443185817,-146.7059047036898,-145.2526894938244,-164.0656230864106,-163.94559125155092,-158.54759404958682,-158.79580068467072,-140.23362821421756,-118.30177415188847,-120.83948026586359,-118.72407435868746,-97.26418219299609,-89.37757837959812,-88.23491177589675,-66.77364805444286,-51.03939647493412,-54.95346834119731,-46.5623277964349,-32.26054165022603,-36.92462128868776,-33.98572419833192,-13.63393108696065,-12.236501946785557,-21.40429573434423,-9.567351264736168,0.3978935368296175,-4.16957740224775,7.976035203749582,27.739783018083394,27.874602447708295,34.25653740072041,57.328868897789924,60.953337363619994,50.613686490705575,55.4644351265295,56.76442928262571,48.19802516793186,61.66760278253017,83.14457283426395,78.83114966904047,71.93367023688508,78.73641566534961,72.03581399072124,60.926410278048394,72.23943699964141,80.23024935986443,70.97535932222284,76.23080099641541,88.13136500385171,77.8923855374866,71.37025439287913,84.93566149337533,87.23840838442642,81.58674875310962,91.71566920865091,93.70971781186648,78.28051982893098,79.61631928219524,89.32236405606007,77.53754581460373,68.41622159766344,76.76346638022574,73.55494424477561,66.49266675105133,77.97225505946378,78.67628034086766,59.109444463765676,57.48197769394923,68.42698578113321,63.5750196693842,63.69807208069798,75.82650486121533,67.91405159711111,52.601784919855334,59.93387839143833,64.04272619629276,50.640111573386065,51.019245687420565,58.053417081389995,46.257228734968834,42.40590753174543,57.148249338849624,53.66509034603558,37.85667261488498,40.03853129147812,40.3235994510578,30.171418525099178,41.21406760855603,59.28883601478633,49.2248944570633,35.20546793233764,37.35267388638837,31.450420456468773,25.45087938327864,39.06617272618492,39.52910392144614,14.725929853294973,4.537759804164145,8.197365477750397,-0.7500955520643915,-1.1823814472546883,15.48921244560702,16.75113444728795,11.351180993777001,24.901700963965958,29.670484212955838,14.354019872773543,14.985534820340735,25.076660706082524,15.041921464594385,7.302195006624068,14.408061125442957,7.710523946651985,-2.026364062217455,10.354669443829067,13.668721712350237,-7.816952830645193,-17.256546400020497,-13.092605492489932,-17.846082752504028,-10.949547913423162,10.027858896924302,4.204113631443362,-21.666399281025853,-31.595039463502445,-38.81620702527318,-49.06197896181368,-32.23592651686856,-5.088737938171273,-4.226869672331915,-9.15361246548292,-6.555479152659699,-23.191259001378686,-43.295669290956205,-33.932156066020724,-22.0061304617127,-25.996761489682473,-17.711363607945806,-7.636977767656709,-24.121137170095125,-37.67161471099384,-30.291459597773176,-34.06064514557896,-43.97031919718169,-33.74525695651446,-28.612895625947758,-41.83809062286847,-41.01205057134599,-31.338613154587755,-38.70728536267859,-39.57953329643766,-22.361465493623975,-19.9936448132278,-28.0324880661659,-20.659551847764014,-20.50457032505671,-37.49239585020092,-37.77668977248795,-28.014249295196315,-35.84234847328136,-37.229476194897025,-21.140385058621206,-22.22500284752764,-35.04877865356829,-32.17213005561533,-36.04467667448804,-55.10426813777609,-53.09783590756871,-36.84307032516485,-37.21015445168521,-34.47232251781362,-20.216703447509133,-27.526951532573634,-45.54256276195929,-40.573640555260056,-32.55481765600326,-35.36187495374392,-23.427717911625173,-10.315722756648164,-24.95632196628095,-38.97940272191921,-33.88569795570827,-38.92440421412383,-48.375887221940616,-37.17781056599573,-30.574500770875353,-39.92222000909174,-30.78220941481017,-10.597817494412048,-10.732805419347187,-10.302252076116785,1.8721421936983917,-5.9719104981268405,-22.579202595045345,-14.837216379683506,-6.61887457709948,-14.745067087171577,-10.050294082461098,0.741002703876362,-7.922134612196746,-10.345448072608601,5.0863032983054355,1.9793203378683,-15.45930186260863,-14.535253074141732,-11.619189822372785,-18.12002080871541,-5.551662344856431,13.396856211013551,4.693277440862186,-6.721887207216473,0.12412969395349727,-2.372865657618057,-9.212546234236239,4.250698514931261,10.464481951414575,-5.851549190245131,-10.033602942355074,-4.539492243446982,-16.39968021670775,-21.500555419877735,-4.766918168932065,0.9647351353972238,-2.5445959914777996,8.421117032016717,8.657596521474666,-12.473867305870902,-15.893175640368266,-2.8864391830494087,-4.043284608157359,-2.217527267098898,11.754260303272616,6.271721452217092,-8.497336233464786,-0.6538420552238655,6.236710486622911,-4.961232156137074,-4.395658056020128,4.155111927529932,-4.9759722038280465,-9.036819547841205,3.750708772250963,-0.13296375733195864,-15.51310022921457,-12.52460589867616,-10.647213454230883,-20.32728680263709,-9.494233658030861,13.229439657613444,16.31354423415505,19.279102924888686,32.603153552977005,26.427662959258342,12.509072368118424,21.0799052836301,26.76485764592733,14.944768860018856,17.154593222642024,25.64102881151632,11.68097531718708,0.2924365287626163,7.343527070768449,3.343609732251764,-4.315455317603329,10.560284249486804,19.29123432207292,4.22803275252622,-0.538937732603012,5.527208150041896,-1.623023272322012,0.4499685686049708,22.429884539052207,29.67004535183171,26.502858763857944,41.0142054321057,49.22728210494396,35.506448714791354,31.212069847826164,32.8813217983273,16.637113106208595,8.79311948257532,21.73551854147412,18.716918743776795,1.6985440885583865,-0.04386112119719865,-5.014190930638466,-22.690125300589365,-19.287864899562173,-2.0108384929813505,-3.258346089483544,-2.5405575901167197,14.325171345519113,14.721886144551412,2.5256063312149153,8.196408934878262,13.18507224923073,5.091375286325152,13.537660042556311,28.273309864981233,17.83956662232073,8.181984986847024,18.53666390142622,17.87453163388526,7.244402557067867,10.140367048276753,4.99377800926581,-14.242605308675682,-9.648452085918812,10.900364158413737,10.51681778380946,5.8054907299579455,12.245642737130986,4.051594964663736,-8.628390739689262,5.050901960682768,23.014443414137176,29.713427322191755,56.24519881166853,98.68284191653258,126.42443943993207,156.4785558204457,198.39661166364198,215.51595488104,209.39712137202727,211.5093294084388,205.57444839405707,180.76521896825875,168.32546606793107,160.40787563870188,127.90678544769403,98.01823053447195,89.22492948600659,66.52518290815715,26.960905309317198,-3.1689307026186553,-37.19927984820808,-76.0598687452113,-82.78047715739663,-70.81953090108357,-83.33882534642068,-104.06842967181299,-112.73977168650755,-132.54316941295934,-156.20758945341913,-159.50743146936207,-168.17931407389958,-192.00544287529604,-192.84032236579904,-177.19919821801093,-180.59079850113298,-184.5120276634803,-173.6215550118026,-176.2772324424055,-184.77886251815139,-170.57425402759264,-159.09781047613126,-167.57355946639876,-163.13143548806283,-147.42148848132092,-148.37721513819304,-145.10926005726986,-124.88955942535601,-121.69702404275696,-131.88655849319792,-123.69120828806571,-113.96707034659232,-115.50292935749516,-100.22481028090968,-77.55783558999393,-77.71483373225034,-76.70034464460849,-57.59594104474076,-50.55549502075237,-51.31436773814261,-33.436701688494225,-20.83036501744,-28.08147246343446,-21.92209666617545,-5.451417969383726,-6.853769945273664,-2.4783959649007605,22.620257610050093,33.40261315282737,31.09896743730775,42.62709227965115,44.38616547173252,24.057135109427815,20.314014207967194,33.465017095848076,33.644870057976625,38.89706285327846,58.50856452738249,55.820631874913396,36.771465134410505,38.159880159228905,44.04697695645395,40.454565147040285,56.08719885731421,79.94627677059354,77.46636231613431,71.36704583252279,81.01945362117903,77.98848505398277,66.91535309587556,75.08286417582646,79.25055648070438,65.43467543275835,68.83050429954328,87.47044336348846,88.81865023482302,88.24133808008564,96.75109774416505,83.41415633482322,58.73056756216413,59.681054517868056,66.94116662767995,60.85901083887225,66.08062440694296,75.5426152333643,63.55982636557117,57.30850495541816,74.14398451449095,79.64945948851464,71.82142343717672,76.14308338292656,72.67534156411799,50.32655292157557,45.34096484414211,56.50404592172714,52.402274913003914,51.195246323324085,66.43283782617914,64.45518120243622,49.325474221290165,53.81092396280823,57.76391931371751,44.403886189644254,44.16686031625446,52.945443617039906,42.97127248249858,37.37120444490599,49.83265044889324,46.49548401709785,32.227633313813726,38.361710950789,43.74250704052985,31.77318490811038,31.28557573057562,37.133933225927905,23.496809529450708,16.188611397304044,29.92454974199515,28.51435037413937,13.466697011042132,17.35820738625587,23.196187216863105,15.266510191733449,20.872417175346566,32.80358258787087,21.13955238973896,9.762348607352108,17.767935438245882,14.372157742708215,1.1313360660120093,5.458022445257685,5.647692204145453,-12.47513910742042,-15.63361783003781,-6.355152947003462,-12.699134296746575,-12.732902689152784,6.700671231018159,9.953296035635145,-1.4811085997984526,2.448518792309597,2.2602705785303687,-14.45203136710367,-12.395655040658081,4.456685128886725,1.0927883581292175,-5.36968019407567,1.573838169343622,-6.938659490855164,-24.417143925379367,-18.634614604171674,-11.589037099650454,-23.192135424471818,-25.010738923905393,-20.26647024795117,-36.037455847568324,-47.45997015694517,-35.32939017067811,-31.14542672226451,-35.084245182663565,-21.287869157089013,-12.772813176287782,-24.88284599261511,-24.03960563263569,-12.825645943133349,-21.463104343387915,-28.27829504980047,-16.924347223076786,-19.997674851444852,-33.79141270530524,-26.876618413127478,-20.28819271005252,-30.621539680490546,-26.43951418111894,-11.955769232310722,-18.36434761635856,-24.703401261594415,-13.885705150186661,-17.232243193315316,-31.87373441424932,-26.749580002987,-21.350136790478846,-32.92131765425938,-31.831271531786975,-20.89032228573869,-28.680615176208654,-34.243104085243765,-22.738201573216607,-27.224363326043544,-44.459302471728286,-41.611945550385386,-35.31829614489256,-39.671926235121965,-26.69841259536185,-7.237223644216174,-15.408734210385736,-27.267999366558723,-21.061543396226668,-24.577560865074833,-33.987815949600225,-21.478336653574768,-11.008255879076781,-20.950865259418862,-20.555879274434435,-12.953299630557346,-27.163750943749484,-39.44746956630125,-30.93915040981044,-33.834372593209594,-47.11777303922098,-40.42321996222588,-32.56375960109056,-39.07637673931389,-30.30583084876534,-12.850462748734643,-18.39492967153189,-23.667081890476453,-8.991964424834837,-6.178237842379839,-15.538962286172715,-8.844511956406011,-5.88791074261658,-21.20171574681306,-21.414037045333487,-8.490368929317153,-13.33980611350164,-15.675529095444718,1.1519388678695819,3.4544226832851574,-8.736889384657962,-5.3971889531151716,-6.625173509781538,-27.69276452302884,-32.210036899980366,-18.024758039752122,-16.461455812277016,-12.938000722397225,3.2556997882893635,-2.0507428474928013,-23.34560492690373,-22.50917550267226,-14.633077928414252,-19.138884041940894,-10.22624283238472,7.675509428393667,4.858777047517842,1.4369429905467215,13.362334963508525,8.454887375933794,-11.00620335014828,-12.27662595750322,-11.777392634951347,-24.16041676185418,-17.985394805305617,2.1790636969779484,1.783711702324597,-2.1905894798742787,7.262565725694866,1.4230497672594025,-14.5159848567434,-8.060790243972535,0.7672781771089601,-7.457760138177953,-3.07794289327495,12.340614674290965,7.875836784616614,2.2636434395580736,13.577709290056294,12.526885616436067,1.6827073076934558,10.493055562973376,16.917299275497363,2.564118950025338,0.8000689496214264,13.042089217403383,8.880761746949844,4.843214545461916,15.176065852171993,8.84063930896176,-8.689235656109693,-2.0888241219874275,9.72615248444658,5.031337790627265,10.88994850093979,23.83738246982474,13.80702122748578,5.052015690051352,18.645513043844886,21.456520974705242,12.102449733945978,19.352518375915956,21.782012855562186,2.806509608723079,-2.395186973740827,7.337082455146054,1.368590103165916,-0.2793142469755761,19.987023992870892,26.92407173935189,17.187120347443624,20.354981247992196,18.67173664878344,-0.9029062311153488,-2.2085017710573065,13.719901142660998,12.94386698700346,12.397462207592264,29.4739248944428,33.82688233417993,26.212548849723383,34.65219425769662,36.702931658139605,14.158121417204095,1.7338161422969418,3.752487314352363,-7.615672117792797,-14.257901084961112,-0.010586852141027947,3.667240154704359,-3.364655372898696,7.899000846568125,17.24190300126809,5.407885467971651,3.087423633724697,12.552405464099085,6.44555339757272,3.7052691113069525,20.3887246830796,23.646594959985084,12.989518169383675,19.23797512759417,24.400039991085784,11.2447174703506,11.297399583563951,25.042857003485565,22.863840682564096,23.86151125743323,45.526146222710814,55.89652009229629,56.0721800115985,79.71752654433016,110.87473272598928,131.01965705248693,165.71987809795232,206.41103893858266,215.27055127779983,209.09385208455694,212.09566025291244,201.77900689524841,180.91853775656722,176.38091572788335,163.83561699191281,123.51978284406457,91.93961703545185,76.76783892789294,49.9463586651882,24.198087503299163,8.995689381639254,-26.98924950602454,-73.9235527477387,-92.27711021118793,-100.14974855264065,-120.79467705058346,-129.97642337271128,-131.43528583873297,-152.51659678313428,-170.68354391012562,-168.39615497685142,-177.08597014447122,-195.16603101464622,-192.00270363539033,-188.2015849937128,-203.1427308190245,-204.52391624669542,-189.0467082599318,-184.7691753512247,-177.2266247267578,-157.71547135787125,-160.78942948384747,-180.29144235008866,-177.06918436388315,-165.58440389144528,-166.19338961014222,-153.2551188259191,-130.7463144882239,-129.36083710047436,-127.2958133665997,-104.92478815910755,-96.26806677165561,-103.87481457452544,-95.95880576937692,-88.36742029943446,-96.03319585063191,-85.00219312316781,-57.22771629727907,-50.66599150229668,-50.25541246315028,-33.27676130262648,-26.594467867437423,-30.832444827024965,-16.939824099873206,-5.31819056400665,-14.435773411229015,-9.114061878779072,13.207899757494756,18.18967644330765,19.941559659648227,35.200497777296206,34.20424638802773,21.76527768547111,33.4532331013047,50.288545060834565,49.617484068095386,57.405255866087046,69.61165011935725,56.304754716175566,43.49569996605535,56.9492776273194,65.61222877926267,63.759567925022296,76.64228562779284,82.60934775962585,63.45271960048055,54.72563542164992,63.19320148176497,61.0964542063936,64.5353120693492,87.05041772484675,91.9112364623353,75.76929306630687,73.46835048184293,74.16966996065152,62.90833117893785,69.0309270993486,88.61098212938631,86.31272690155997,79.2743584716192,88.82461576708266,85.64513956551134,68.35644546764618,68.66112206805583,70.8098715746175,56.98861245560369,58.0515944518537,73.76194063201694,70.27335037122882,63.277342727929074,72.49048093991154,68.78499820920811,51.63368493521242,52.53654797154016,55.4180597545354,43.988738501173394,51.47898496176707,76.80115251715488,81.64674964871072,76.99494175279928,79.4061225902822,61.97316065129239,33.57509970373938,33.437779486591964,43.45936345453633,38.39225417950297,42.59971768977939,52.9276957621411,38.86998938060741,25.21768626154003,38.13790049586649,45.767426801772054,39.722926200428695,43.94987291332514,38.30990206919293,9.112530781574016,-1.5266192269572776,15.612871013892494,25.58585086781482,34.269810764293624,52.72837512159234,49.07058242685955,24.763288794043344,16.645737724495138,13.958633732416255,0.6850134435329434,6.352436234785801,28.235288982718806,28.45728013328285,19.046229343209156,20.882902570169296,10.183324521576386,-7.880491031313739,0.2683219979234934,13.221434175390364,5.682409909524546,6.106800491252015,15.668922438178477,4.150017206268391,-8.131988664660332,0.07912917110060924,-1.7927140427669745,-16.262020338561417,-13.631714964566088,-10.751673303627896,-25.40725153508576,-26.24892477092737,-12.133593318287497,-16.59389870952091,-24.04314796589092,-14.046615248561542,-15.839424852081018,-28.981122161421204,-20.600835729320607,-10.239042129640398,-20.580181247224296,-21.290553459038627,-10.24554813003153,-18.514034268597104,-27.88919561734792,-18.32257035397436,-21.403380362164224,-38.99553997953177,-37.623779476830585,-33.04988694469829,-46.21563229229354,-46.38077956775496,-29.442052521139733,-27.772957475218032,-27.980277835240205,-13.193397670832974,-16.664071913102948,-38.93411801476228,-40.42066922609405,-32.0705075798154,-35.76726188060903,-26.487917954548486,-7.621916549801263,-13.526677105255676,-25.064236677070515,-17.77629303578141,-20.12494440107292,-35.515358977842155,-33.97842168363324,-31.511608115944966,-46.03598171152603,-45.0803573608255,-26.254521785318296,-24.796223929545956,-28.57034652067758,-18.875599135287693,-24.174173561176218,-41.80825122329851,-34.945353439868654,-20.54378614331015,-24.635356979728904,-21.87967209409716,-10.694698806899385,-20.13828240458978,-30.227357950756044,-19.094650639952164,-18.402359648779154,-33.33440938667288,-32.723496146616476,-30.58000574238829,-45.18285980405621,-45.761063802319526,-29.245852903268954,-27.553685404069764,-27.2887063618903,-11.349727668544297,-10.079946664676745,-24.167880137568126,-20.04832523506738,-12.737546082975632,-22.789969147311844,-21.562691682833922,-7.439591786055328,-11.749757390219246,-18.186053470694283,-6.7854386704548535,-7.353527346376495,-22.245137575005653,-20.047015894279895,-16.508249670154612,-31.264148771745145,-33.251937702603364,-17.93397320493313,-18.014323462607116,-22.625522072200344,-13.696281191149234,-18.098287302520887,-34.32663485405535,-27.46957214566686,-13.259047157186771,-16.817634633146767,-13.975101883853053,-3.274500361768138,-12.815931989647009,-22.053257198713588,-7.6250366214120096,0.8103775339284409,-2.958331741027284,7.943683223670097,15.550068434302688,0.37899771595286325,-4.930486412199428,4.67081059957213,-2.73180507326236,-11.627112039060382,-1.0449153749176379,-1.6433124354682733,-16.983768077874043,-14.623995986668323,-9.587584050570882,-21.538223212784214,-19.22570915833169,-0.006738091016177172,1.1363288831191167,-3.463896875169536,5.746474382162136,0.5363302578332885,-17.623226645514713,-11.838960136613576,3.500223022946152,3.2125081447500152,10.43033321648715,25.632386740809814,19.361036120991816,10.884023648115043,23.492044194568482,26.63126299322593,14.199273819434374,17.538068982082677,22.866508255453002,9.726017503193132,6.568373336908507,15.12905019979073,2.531627313560275,-13.87805040421907,-8.438021661180963,-8.400512700041604,-18.286334677563232,-8.779803168369144,1.6950711441725597,-8.357082259894879,-6.5617025526670565,12.098410108062794,14.228734893874684,11.87710753408996,24.158465435061018,23.300501148039043,8.796064269926308,13.987690888523518,23.392269474201914,13.43595858528283,11.20703577322736,20.954398144521253,13.237839219663979,5.071046012236718,18.043883370731013,21.336500591961762,9.336697318614515,13.494780580530259,20.26767615600278,10.081014134976963,12.251427794292402,28.604495492328045,24.910987534921624,15.511094020525235,23.606942240868115,21.680922180038092,6.260410260276704,10.2702653271348,19.33530384973053,10.8310336188115,13.091499733052302,27.638889799390707,18.95380491200013,3.3236657018951337,8.175585547770632,7.948784964930443,-1.7555548264167244,7.778678357499231,16.9203852109109,2.3884345908115545,-1.9901292386586231,12.787700553017684,13.604543422109309,10.90717836475934,23.600770675496385,21.99804367928689,4.387151539692839,6.865904603621283,15.170166764468117,4.236616506844113,1.9978262301099157,13.711374907887231,7.755955144985658,-0.5439538933001664,10.237171555464334,8.817133208517903,-8.848347676207869,-8.197122032985586,-2.0005312169011824,-10.549646392537685,-4.539934776084842,17.373965981208833,17.33235759211279,4.565190142407244,3.277892836530196,-5.599690871603595,-18.2567428456998,-1.7087847602448942,22.129245962441182,18.860101483257566,12.140835179103671,14.55139746648912,5.386199885665832,1.8298626846210726,20.319246412677973,24.54862192816402,6.876156382401623,3.7845262726889777,8.932607404403658,4.358548156085303,16.642162454666458,45.53375935580484,56.956838642787844,66.84333127620776,100.39714362534913,131.07399618630313,152.5738556774785,190.0698245430059,220.41317556617597,216.2814046815061,208.01075483322498,206.19272927368945,185.3523217872632,162.53943667730624,156.6874939926539,134.9177184462937,94.59615460345336,75.48710922230734,68.33198567395074,47.76104027069746,36.10558115242106,32.86939022780991,2.9401597567390425,-35.75699497318297,-53.80614306420521,-78.54672753193668,-113.53682414443068,-122.36595810481113,-121.15960873438115,-138.93902145028946,-151.26357939577252,-155.39407770210445,-181.25883308400176,-207.7486639430945,-208.38945686090892,-213.80226813458432,-230.40920733489716,-225.31906392419262,-214.42323327195356,-223.78074174637538,-225.3758073552197,-211.6343962485255,-210.94856684034676,-207.51189736428316,-181.9485678032198,-169.42370468693943,-178.3770274854038,-172.68216713824162,-159.89046018696172,-160.417840890919,-147.66620664440154,-119.98566540308552,-112.21582713998347,-110.98836272621313,-93.47971406343508,-89.00731236465448,-102.20072798179343,-96.57270957976235,-81.78057618089528,-80.89200877368124,-67.68232787418296,-39.50272130681094,-32.715838334848236,-34.44265483994299,-17.466197084099797,-7.815241391820685,-11.711027038440681,3.2238539197487093,21.928198775420377,18.026729161629042,20.6519115139794,38.62969372556526,38.93109816237238,32.87390231280219,44.45477113327555,48.59434219904779,43.559042290584024,62.064829368671916,83.89083930956313,77.21004941665201,68.74983003510835,71.78895797385611,63.08216886668943,57.35423530460987,71.70663253684073,72.13009541044826,53.508324533364274,55.30122786593076,69.81699631242824,71.24216771252944,81.47157586897187,102.4552299419982,100.58857550966341,90.34106990814382,97.82371277736549,95.96555327979101,78.80783503990673,80.1972177455167,87.70593711579178,77.00526665503503,76.9994824344057,94.79995579568828,95.54614586189437,88.56507129859936,95.6286950566416,89.6324942798553,69.11806529938164,72.51096950885976,87.64967733137374,85.25079783715009,87.43967014604569,98.87333516096935,88.69732311695478,73.82744061021015,81.48552012715679,82.0752830467321,65.4484621847543,63.8455370410842,66.74567831554616,52.072732554219115,48.585009830627115,62.39836149637736,58.64553360633839,47.70316919326878,53.12162034368986,47.66280006679746,27.42247600095172,30.879318995060732,48.98835508309907,53.488300963355414,62.45465932639695,73.99252053855852,54.752015630663564,26.887050886691306,26.71760485763604,30.1891408330587,25.57423788251639,38.437066678420365,49.88401553236113,32.66438620152114,18.775426047919012,22.524135266963214,14.007717950514506,4.724920388817122,17.313703726116422,20.388574239507385,4.270879111880114,3.9329341394162616,9.66543533944517,-3.9842430349044866,-8.950628757747328,5.45219678741006,7.856090709024466,7.866345820365584,24.94142825107464,26.41362671153579,4.5818883486575155,-1.7102956015503714,2.878840943093905,-4.961385533496664,-2.705138467154879,11.057559512740784,-0.23546282128222895,-23.137831002270097,-26.37026671928379,-32.34739907412998,-47.72197473450686,-41.07351377697757,-26.547459310681283,-30.533125848756814,-27.06412935401224,-10.737810096647275,-15.848440134318837,-30.044665757113705,-24.48148073133128,-22.04594518813032,-31.056046330469005,-21.85016647050011,-8.354884959154267,-18.303888591758145,-24.74342842786315,-16.19718437008857,-23.514303089308434,-35.91788010539294,-27.65747999831128,-24.97155299917952,-37.584488565361994,-34.228293290795904,-26.168572061072577,-39.01205271759849,-45.078505964303474,-32.88070788485588,-33.68756890925339,-39.21613259028455,-27.56308474177323,-27.362437346485272,-46.947826219650985,-49.354363142224,-40.391419499010084,-46.232151709237016,-44.87520120389741,-30.300609204815892,-34.100506860250206,-42.295555874322176,-27.291412373047308,-16.962185472629464,-24.19662210117317,-20.470938262850865,-16.32957257713728,-32.074541531322254,-36.1643590461166,-20.27628550421398,-20.714369523637373,-29.219494007814184,-20.691451751487605,-20.811646211930015,-37.18802721805521,-35.913754660608944,-26.85076933542613,-36.67484046389739,-39.6783694320864,-26.20070960553491,-30.089892832479403,-42.755319322598524,-35.679369181958464,-30.757364644591277,-37.56975412535198,-27.214226291653183,-12.91989558828147,-22.575860935625943,-29.683596404807474,-20.916210435145068,-24.388690036679815,-29.47441889772282,-14.660380340403849,-10.806651139620252,-27.17213689367237,-27.727887566084004,-19.358307067177435,-26.41266291483016,-24.359742152918678,-7.4175186712732595,-9.907095334280816,-20.740135848176724,-12.652332433184762,-11.524442206633445,-26.83134591544577,-25.56577034959521,-16.35144165108862,-23.647244829633646,-22.006769587503744,-3.391864663499228,-1.0020566315495723,-7.194226190628443,1.182626753307587,-0.9926981353712749,-19.7514809633395,-19.206696823073198,-7.190334186561798,-11.386158812908162,-11.373218312990879,-1.846608937880191,-14.080842001766898,-32.77563340456703,-26.788559338804546,-21.081178349919327,-28.33578623877714,-18.362713016871435,-0.2879437344334388,-0.41555440712203806,4.78922437605668,22.47846561740147,17.868805133943926,1.7045545125351014,5.458223677534321,6.649165899632739,-6.853438665043117,-4.642828747979484,6.203224801685803,1.5093051649603733,4.731370665066672,21.687739112862662,15.938976779871236,-3.9925082641067497,-6.1249877390006,-8.139915336590784,-18.63823613288686,-9.695865602796808,5.526589379915201,-0.15280657662362174,-0.3548261427643862,16.144979657894467,16.687756049253764,8.763195604775602,17.307075606944906,17.67971976420161,2.2084098439999202,5.327297292648184,18.114247929413313,12.471634051980013,10.594412036132582,19.912335128899603,8.273995568255565,-10.318901552719565,-2.719778109900668,7.434749279743827,4.503246169993773,14.12799958454566,23.45386717075718,6.925061570596691,-3.505212770423461,8.891786225866376,10.388235055157217,4.671209772596358,16.612986590804862,21.848446963147644,9.590777828033014,12.993635884081298,24.303518652783655,14.386183354531127,7.38119155143352,18.12922767876166,16.375435852659127,8.470418158692901,19.188124869235565,22.18342874700631,6.089653805846298,6.2500483709013945,17.84141578395956,13.485384744299358,14.182588514286415,27.732499563808663,21.65865422718126,7.052592906734333,13.709884049716702,16.905229421185766,3.583846940268353,4.987846400086136,14.199621662117268,6.505916350072369,6.512568532187759,23.224745463327984,22.42875280418226,11.25397968115968,17.380948990651117,18.22250187133476,4.095766840903411,7.638099174988344,20.130254075782148,13.484053822312614,10.792354411592552,21.8852871253071,15.750724238537455,4.28618678515091,16.078194784437628,23.303892028874415,10.511949814146654,9.540160328650876,15.368371838933026,5.403322080034885,6.654365384800999,26.764716237855364,26.69324849139371,11.300955540495174,10.90649947869482,8.429675852833943,-3.147468829126299,6.050903206744996,23.182145732083974,15.965981967850087,5.927731983080905,9.416211653070299,2.2741174374866184,-6.58605086075549,5.4566655737821295,9.134516178674593,-9.56121828906724,-12.971474087286243,0.7258245231567075,5.096808537126924,14.438948402575475,30.452258926479097,23.317233908939624,13.946797867170861,39.46851941654904,74.63720513622987,96.42797675872012,123.08321930066863,144.79805187640378,145.67739813830255,167.1036922035471,243.9648748789828,349.9111319450061,440.0395836428726,473.47535897209235,423.2710280894814,329.60387575402984,294.91630020555914,366.1923617073955,468.7873914619074,500.7258893655457,438.5452900534202,325.1503237147462,226.5242366619259,196.16097867253146,207.0318011782275,180.69263930684951,113.21513690137172,55.13721253015833,8.919493710469467,-33.87909741183559,-54.367245638451905,-68.20008220517357,-101.062348414768,-125.2739380300928,-128.3330644746458,-145.21765883376602,-170.55505259681573,-176.06070770360031,-187.62848341610376,-219.52938798192636,-231.88454961421075,-221.9916861137721,-222.01549813123722,-220.7511575841176,-211.1477896280232,-223.21994446023885,-244.54309648696335,-240.92085548863818,-235.09094940068348,-244.44990387816276,-240.30858728178174,-229.61933858420437,-241.76954535952027,-254.8483632155071,-252.17577335275797,-259.5204533874357,-267.06696945416525,-245.83277396441764,-223.1099349324557,-220.95487269698845,-213.52088635314288,-205.89425028119305,-219.19965990938752,-222.32889263054636,-199.50959657424588,-186.95763165957914,-186.42884490091535,-174.44696800874914,-170.8815169746117,-182.80525777670346,-175.3437377213843,-155.06991866260185,-153.25977260397963,-149.65712612571306,-130.33221511292592,-126.89683917761779,-136.203012133916,-131.19276534715493,-131.59560810468605,-144.54600011267635,-132.47926135308677,-103.14908098181675,-94.1685525607825,-91.12129869417285,-83.98480182088423,-100.68186470869105,-123.2040626326584,-112.99062808940528,-94.22461047503836,-88.54024480262956,-71.61015864389631,-53.80511747043414,-62.540234594272405,-68.90079988469776,-54.816634224775,-53.674318171251755,-61.79406899044304,-49.180863898793945,-38.445733862367575,-45.059591327823554,-37.08613795514437,-20.575899424044664,-25.18188726186928,-26.303313238713752,-7.323168969261498,-0.9479098714195435,-5.1521272248304335,6.015219619584969,8.767535217271764,-9.072489018301019,-9.188453669276882,8.380963263029386,12.353745207691691,17.792439822031977,33.14612693397365,25.679241256980976,5.579752631328825,10.040673518262002,20.87079457594876,20.017089718853413,32.176029168243986,47.54213921713153,37.33776994093919,28.123860258264617,39.67050718570168,42.98892549698868,40.55881044919499,55.58756019182637,62.44590646530262,47.591185241806876,46.415686443236666,58.37054125051158,56.28731747565524,44.654461975144606,-6.407807710165535,-145.55963286478112,-319.95594125636285,-434.0252444064459,-461.2257603526698,-409.3940407109699,-309.1882177408328,-240.50500834546904,-240.05056425142672,-243.95640551991065,-209.48818330838077,-170.8196061590508,-140.47668915407803,-104.38701746937764,-83.51753159398339,-80.25448254425432,-58.71222420147728,-30.30326850371454,-26.612606519886697,-18.083260861921598,16.90489089143104,43.19298365904599,56.118663665090395,79.79957634027502,93.9149841114058,88.67402428701394,100.33634802670144,126.00033359168037,136.27404608673936,151.38846648363125,181.60331297737042,189.13441811490847,176.38836900970512,178.5481821789577,183.10813534446467,179.14912644377856,195.7599382881295,222.48612999100976,223.0038794378782,216.78448723230977,225.0605043776517,224.11573862450126,219.3689920119589,236.0709046741381,248.7265423318012,239.55867527271874,240.6990432680189,252.52455315448512,249.0237113113579,250.70746036905146,269.54752954642527,270.6316312627797,255.38577917253514,253.58923777109183,248.46232190874844,230.0428990066974,232.36616277434823,250.3472873625419,250.30153807045858,249.12793333694492,260.1219373390453,251.87172622182342,229.9834738820229,227.6017988688657,226.99210356290283,213.11853725295703,215.46202423956257,226.60738459445238,212.9872275512134,196.62407086409135,200.00646429818175,197.338435256963,190.56061266889978,202.384409762436,205.22498340788675,182.40965163195693,172.0192491525968,178.48770151846054,172.81041877927868,169.57998685702466,177.7576974492006,165.16854036505435,141.6353899670441,142.58989403235648,145.60442612387635,129.28695728712108,120.9016498094886,117.51545908795467,95.7860678486307,84.86340756523987,102.01181215469525,107.89483177021592,96.19608935361767,91.98110329123709,76.11862208908217,40.833197860146775,27.85938019138304,38.304858547181475,38.85523460528469,44.620596936023716,66.40621404918545,67.52376615869727,48.943506733453404,44.15523662013258,38.573103105022646,20.25884221722261,20.911796412236075,33.51821004912288,23.16158113867406,9.729058237117494,13.003546531044336,4.352916448286041,-14.000913283266023,-13.683624761211178,-16.059317349789847,-37.69650000754833,-45.273712728504464,-37.69651688385764,-43.496204361391264,-44.60828479100384,-29.03888685219504,-33.295254596946585,-56.507827275877034,-63.13887231187219,-64.7857967219149,-73.37721967101488,-61.51566231447903,-41.26621574971071,-48.87907952473941,-63.42248820832196,-64.52215530519125,-78.18502464089853,-96.96649024974846,-90.35060460495713,-81.74602057870277,-90.69498684334205,-89.3032797730355,-82.7184304048159,-98.5786580895257,-110.67029871765585,-98.52273149677673,-94.39544312568181,-100.92904437000611,-92.48459468178915,-90.06280532764532,-108.57148384196088,-113.14392740272838,-103.35341888694265,-110.15370096417391,-114.95499151564412,-100.68351925354015,-99.36388176541536,-111.6452663698179,-107.68711890513586,-105.47795436231668,-121.15846334231568,-122.95272196532844,-112.24935875868795,-120.39249971806078,-129.00412018803576,-119.84408117844407,-120.84124480201321,-130.31397404967612,-121.38126623931416,-114.90158210560033,-127.19271804240051,-126.67885475532961,-113.55242056467316,-115.9584254693864,-115.03241360267691,-97.41706427235502,-96.25642318210903,-108.51682007646644,-102.14567496724553,-95.77952535796986,-105.55063654469465,-100.23963802941549,-83.37909253363533,-87.47427977553565,-93.87062385658916,-85.57129909440928,-92.94244254048732,-111.86950685696051,-108.08387506492596,-99.28725268868034,-105.92049454582418,-101.63691365929756,-90.3657024743905,-101.88440370447323,-111.92636328923248,-97.69450422458418,-90.09808373978905,-92.14168860313137,-78.81541033677082,-72.21380340558656,-86.32327155266118,-84.57903915898817,-67.9794931045347,-70.59056238810565,-75.45849512840414,-65.37908796355076,-69.41669836971903,-83.07361685298564,-75.23597672137645,-67.05928322181362,-76.03957000881077,-69.79720417075757,-51.1049384541267,-53.51788610961625,-57.941881137885304,-44.5163247518914,-42.515432469339764,-51.426191081552794,-43.43245555447059,-39.475185860414314,-55.4643800677168,-56.486068897535894,-41.53434502343927,-43.351139447439365,-46.318062249966715,-33.36666681874104,-33.37800618792796,-43.53461528860779,-33.24490788232542,-22.997992002614275,-32.344814469046334,-31.584603600547588,-21.582700366329842,-30.811546439225015,-36.89842624576455,-20.41616830154107,-13.497275610815036,-17.58970805589085,-4.788424621377681,3.9410485743653,-8.072739322039041,-7.596209765090426,4.46019985266731,-3.6882835437194004,-12.660069333853103,-3.0218799429964838,-5.127794201482391,-18.616101635843442,-12.676167755958112,-5.272380539018311,-13.37272802563002,-6.191289787520468,13.7614741645372,12.521119554735066,6.978884546668327,18.084697480837747,19.203796169402278,10.048505627398082,17.339899994083442,20.72497634958088,4.419821030280029,4.346646206915946,23.05070093706767,26.397608465479173,26.894554241479533,39.305960662826756,33.487643835985345,13.804396162745654,15.068924801891464,20.019712574305558,10.597530298301121,17.186074512860436,36.5065062208618,33.35014835903635,24.35849848360193,30.70654002509173,26.448651111823008,13.719479289274862,22.82343614204988,34.44861384185426,28.75373194200565,36.122211278157366,56.957580681753655,57.64528625435281,51.56212893998612,56.80342581859229,48.363737297320355,31.329812742734596,37.309143613991154,45.96504738851916,35.40425488747124,34.43583449771593,46.028326665677795,44.81126066950794,51.136161013282205,81.95314991009317,105.5833285864035,121.43161713891976,159.67557716348762,201.72894971543911,225.23259107845433,252.56306969166934,277.66649085577455,268.6840632248044,247.1810637961042,240.02480775171404,224.57163909635415,201.0664812342112,194.61454762939792,180.95520045230757,139.7052914254314,105.80703713467793,87.42929601745006,59.10389805558579,36.257763673535614,29.42484216084942,2.590438587917995,-42.92467948029895,-67.59898726426042,-79.98452945210649,-98.49597118592544,-101.77441480470266,-98.6923866875763,-122.84911924936475,-151.51574405979417,-156.9504280551761,-164.24526010131774,-176.85683383313796,-170.18403880720234,-165.51562657208305,-181.2112493796923,-183.8053071464043,-170.24989909104363,-172.23900600049583,-175.39647331507706,-162.49274966663125,-162.12438216429925,-173.05787887215192,-163.27244379033124,-150.23427322052132,-154.70126893532762,-147.4936581041771,-127.3625455954872,-125.79086091362285,-126.01247580629621,-108.03737916809114,-100.44447779590587,-103.3764092898579,-87.21631289866207,-71.60503784039126,-75.13273188943545,-64.80670172143887,-39.47446920852751,-33.88940113261417,-34.803918138130385,-23.807500139231237,-26.237134986430963,-34.56838575851819,-13.88188730451732,12.681041842765687,15.738060581225533,19.397874069371362,27.499622423222224,18.1652606241231,15.984969103707364,40.007720650956465,52.74931755007839,45.95281852466282,51.78942652354562,59.1292986648696,52.50276784363734,62.59246297488103,87.52809382381962,90.78322531955065,86.88517188350859,96.63421158670062,91.38286009479813,71.32396258912502,72.59748405940755,82.74921360936436,80.62179491723768,91.2277349241587,110.825485639158,103.92176356897615,88.74394956428898,91.46322591643556,86.51437691303629,72.81949877188688,80.16076942697188,88.38352641788512,75.43078762285649,72.8610912138912,84.81716523525262,80.10802730715787,75.18208901458773,89.55047392553912,90.41790454652786,74.26719390038446,76.37515398420588,84.9397001696855,79.82191031929142,87.45273443118722,105.50087384892838,97.76507332203077,80.24796298298162,79.80019996873133,73.82824048140066,61.80786386877148,72.08327600368358,82.81526777687749,68.39506909486856,57.35283659852781,56.85923025031721,42.64391628607219,35.08920912824055,53.50708832520848,62.396941045515064,52.85963715524633,54.086539813922585,52.5279429840763,33.156773540730896,30.494034272683493,48.01213298335141,50.8121832738062,50.33040014131316,64.12229956566644,61.77316639716935,41.873876107774905,38.12066102495227,36.37420441009806,18.051108772571396,14.689819524345502,28.518006544647886,24.764732604231266,16.44336502254638,23.15823576120858,15.786427130899149,-5.779505474355538,-6.429043975793126,-0.9179222934791675,-10.779048223561231,-7.180551157684298,11.502282320820271,11.108022130688173,5.247010267333197,14.332239340317097,9.70584339927754,-9.355291623456115,-8.084493039518287,-0.5310205389856324,-8.90110127398442,-7.361005314311254,3.8896376438165152,-7.5828437650735365,-23.83337154935923,-18.721993721666617,-17.483716299571608,-25.100859906220087,-15.70531214168351,-8.573605408748708,-25.05309466826524,-33.036027891977994,-23.65294363136094,-25.541205052921647,-27.499906117251808,-14.213682391871242,-15.560068581863359,-32.21823621609704,-29.882384843187396,-22.544759368973935,-32.670554381051446,-33.63790987474371,-22.557498535067985,-29.04226078088833,-35.78734393277334,-22.20574222828303,-20.52942952490648,-35.796324431889936,-34.48951853742008,-30.265727206682342,-44.5174812219726,-47.39404456364399,-34.8999528741915,-40.53768385783386,-50.12853998251654,-40.560491169224,-39.815166389040435,-51.81684591198164,-44.242929038964476,-33.07905622387921,-43.16780893390849,-46.87668513360644,-38.73369583103442,-47.00834460574804,-53.15586408760902,-35.730860206155896,-27.651593078967185,-37.28562131997769,-34.953623189527065,-32.537857392557804,-45.72191881321745,-43.61576938635501,-26.722179949829915,-32.041397866524925,-44.6316059425692,-37.56118510104731,-34.51510676966267,-39.21017793314206,-24.768254216677214,-12.395262742638309,-26.719457989912595,-36.139170475573955,-32.09527901381553,-43.13468895539819,-51.52784227603234,-34.10593187043288,-22.555382003038964,-26.591264412007238,-18.823427414187726,-14.555759818514735,-32.194150613341904,-38.15625402659307,-25.872066085333586,-28.09895716537805,-32.2380280361281,-17.690914391403595,-15.034465905937267,-30.48208327700747,-31.094397353167746,-28.169073993758897,-40.57372803788347,-37.95705109163812,-18.526987604041448,-19.13603887037621,-27.146232495487002,-17.875585440155334,-16.53796183330386,-26.841628748477852,-18.604042584651573,-7.820797617167905,-16.479828411604753,-14.679824367339812,1.9883946793859097,-1.1021264947744478,-12.208802901459082,-7.5592653208679685,-10.448178969255288,-21.958264132058385,-11.828698025308212,0.7859611901854424,-10.540936240344418,-16.43402832730061,-6.666644463117327,-9.213752893449549,-11.666897572298112,3.3289374394113587,4.557153222107029,-11.835480472597656,-11.922431214255926,-7.245470561680501,-17.58868063001789,-14.313470286398754,5.757998125507394,8.526834828053964,4.294961721869589,12.107281659808244,5.24489496266675,-14.3052816747504,-8.83632212126049,5.814416875758326,-0.6417932702336504,-4.615299110600958,1.9437881697872648,-6.286630595572383,-10.514904530378631,11.320315054540865,22.44081119051442,8.651343833946967,3.7767275536558116,2.642783620446393,-13.753022186730831,-16.412822742034137,1.1852293478290212,3.5529686425362557,-0.9607254752726204,9.537505342512404,7.447670747539659,-11.273921234822991,-10.476794049964395,-0.37897732394834716,-4.660996198153969,1.2377932625803205,20.408710576911226,20.460740489349863,12.678567609691989,17.397392310230998,9.785206446535895,-7.716146947661805,1.9500142657557138,22.775350767375134,23.671741734275585,25.042557820427167,31.46030182787331,16.481330637269895,-1.6056992741978284,1.227831409002781,-2.4773321029675976,-16.6485034977998,-7.713408536558009,9.613942740949692,6.995284502211853,7.840481681265804,18.612143452561707,11.441710206462147,2.5556839968405156,15.512263786641963,21.487222570441197,13.13135044978003,21.034237105655073,31.28906644548713,20.938315274904557,19.439260598485276,33.70412959318683,29.64959593832196,18.11228488380804,24.33877881661862,24.584199801279848,13.424184261808866,19.315603483358963,23.556240533833336,-0.29372116951440397,-17.889004753443835,-11.812859483916583,-11.03131022272192,-8.308672782677599,12.232813155159384,17.86658106588736,3.433690352550652,5.9274554767690155,14.477927547761865,4.054408824996914,1.6729070362577425,14.852942025113004,12.32372549115739,5.9957693940674375,17.794257046860093,19.18555402357532,4.186921483232529,6.890040602568368,16.854874597849165,9.725536324847106,10.030564668892072,21.9198221436031,12.226427308323581,-4.716963993558383,-0.8698719121801357,-1.1029500900478222,-11.744265073155674,-1.5027839729196808,14.38773019573433,8.986737752193662,8.122328694401121,18.629317592265327,11.089627223571423,1.3294274738073355,14.0857277138308,20.257141373370388,10.142972368876574,14.762594723375958,23.8114054008957,13.815618695230173,9.784825046535673,18.55396108357223,11.14768383195874,3.142537766847275,19.875881473441453,29.67560794032385,17.114639295218353,13.168890496280158,13.375308324523047,-0.10117209610692068,2.3982196754817693,27.10947436949621,36.46688672526252,38.630110445832926,58.98782535179551,72.85163784668865,76.05301396128678,103.8211898098729,143.59703334687265,166.669264271667,194.16624777788456,227.61115740236997,231.6035167010093,218.28700264542198,214.74901383599195,197.9499397434827,164.38249621106635,148.60988620296257,138.03519543674537,106.71612070492415,84.72248331919236,83.10550917319404,66.71958295190056,41.08738138533691,26.27887936225907,-3.775764331245581,-48.50443925962017,-68.23532613141519,-75.71918533081625,-101.32630377113937,-120.74994345029208,-123.54518600076337,-139.78101089988044,-160.04488646373184,-161.53648742722217,-170.8525799565234,-195.18488692110023,-200.42846013375828,-196.54176453739274,-209.98381903272866,-215.41255357409815,-203.3638563275369,-206.22207623696,-215.89147803378398,-207.77908414158895,-204.1116558673554,-209.97692938122975,-195.49077380714112,-176.28878859160037,-179.9270766141932,-179.4842011271586,-163.91842458302796,-163.10680279276332,-166.672922427841,-150.75113187025443,-140.47522634138568,-142.2560432411581,-124.78589690850376,-102.9183808508275,-104.60822447841517,-100.98142991243316,-79.34525680163809,-72.1474110174251,-70.9112560301518,-51.733398948743265,-41.980149450198695,-48.22517597445516,-34.99713910060393,-15.032358410762779,-16.719625593843393,-12.244787667587891,8.992769101955732,14.288723331276326,12.243069073814684,25.14909108593473,27.409607839225536,16.152002150490535,27.696021455472078,49.814907760888815,52.48110026537475,57.58492727075658,72.97844212188699,69.52146679684071,61.245936177691476,73.92760543323728,79.7828753279247,68.90795623924039,72.50524133771312,79.89468366392711,68.15607936117745,66.09936225818687,82.8902828069592,84.21590630492338,76.17431643094844,80.71476458349133,73.34914985115988,50.53024992794566,49.539172931132086,62.85765397744694,64.2342585415493,74.75622365289473,96.81774194105297,94.28082219683873,78.89291345873401,81.75458943793404,81.60138380693655,69.05701352968481,72.9120671863159,81.82854203264843,72.55758177193307,73.10826016289465,91.32218283268489,90.13179407789279,75.54810689469512,75.49854798646192,70.96046991822274,56.47047143318592,61.46860081785353,70.52793072094224,55.603736207176624,45.30123545533406,55.91393260491084,60.11384012124515,63.578797017586865,82.27378628874685,83.83212735832204,59.17533946193189,48.13788841633771,51.2419223019231,45.851329369431596,50.461702816983816,66.22803242247159,58.46415510088944,38.92975159546336,39.401460700462955,41.56429242432729,36.056140618366015,47.18986661907322,57.86924853178162,40.090016510943016,24.46000776568201,31.04000241518421,33.072346792825684,34.63553431177018,50.8097885834474,48.527100168269946,19.65038630368641,5.939868907416475,7.362535214748718,-0.14426374227239958,3.4734242215351623,21.389234845895924,17.23040073935456,-0.4009112221985802,-1.3726018735933838,-4.080711032706599,-14.959440259363811,-4.744930321023294,11.612595833522672,4.781365051091446,1.1468843402758742,13.171069092464485,9.776074795771809,-0.8096278388765121,3.915588449786473,-2.806534202231132,-25.672417623611455,-25.622052013387044,-10.34202752394981,-10.420092378185558,-7.236253636084623,4.8877048859610595,-5.620952974782024,-24.107323466094268,-19.062697612599607,-15.540379218622949,-26.575116917999047,-22.19354833574544,-12.257197854334926,-22.35165727918339,-25.81941838492609,-11.91988696869434,-13.479028138343864,-21.922829289063397,-11.89347619914539,-10.504165157591583,-28.44290184490664,-30.840906796187078,-23.135170807431898,-30.30671267159027,-28.449280805766335,-9.920066116250716,-10.480147223033304,-23.237419757821566,-20.22437296683491,-23.600791144456174,-41.3468055558853,-39.81732128854298,-28.57753805642261,-35.53789026855309,-36.89051851535366,-23.81839664635271,-29.094348249279733,-42.471317951254484,-35.10830765939943,-30.541191311405164,-40.024926438077095,-33.616466137038,-22.31077311435807,-32.962223434942864,-37.8379177541959,-23.178135766540255,-21.965717160393794,-29.196016319486382,-20.188045878161066,-19.78285110663167,-37.96216226388984,-40.18545833133534,-32.339666175041835,-39.834281953212454,-37.786111956036834,-18.02585401257227,-18.38538370381332,-33.85751413842632,-34.244425876129235,-36.80087006173458,-47.440619419775715,-34.76479364629006,-14.061126851604389,-20.50716937679343,-30.240558786645504,-25.23860911687551,-31.62174642615608,-39.95633877695863,-25.74881773151253,-17.339877705635622,-27.283191855198677,-21.937024849131124,-9.135221610087772,-18.11720585216381,-25.12596985991445,-16.30574359252209,-21.825237343214447,-33.36200185597092,-24.066014747883536,-20.53342003338829,-35.5728383659124,-34.578078952759626,-23.473498925477813,-30.34007056401368,-31.26633159619242,-13.94794152188814,-11.092964696567423,-16.79672267156594,-5.272761099084406,-1.7627230982731381,-17.924976722561194,-19.280878326998117,-10.396252568922026,-17.194761812565055,-16.583193870208394,0.693158018012447,0.826045592658172,-9.557370915548791,-3.0420708150927216,-1.3328200976603555,-14.226792840166276,-9.356740231685851,5.628695642824255,0.6100860380377569,-4.7955656547844585,1.5584867680164645,-7.056859948299839,-18.363670289517948,-3.909511811155072,8.23251034948751,-1.128119677328395,-2.788972199151111,0.41756563364543475,-12.789524469997492,-15.413897817533815,2.286042806342614,1.7626393700306098,-12.583436916971182,-9.36392718654636,-8.018711666939806,-18.950135768179898,-10.29088662684146,8.006365232000524,5.112426622735778,4.87639836744033,20.67750630540279,18.354830785340205,2.429179306167205,2.5394794445048934,-0.5020305016567845,-15.071264001266975,-7.376184539137082,12.398152661686119,10.555588526557836,7.5529774605721425,16.551711667768274,8.108940423863393,-7.896617530184304,-0.9673839000472313,6.176444396272564,-0.7342021322628742,8.281022331369723,25.1874270665607,20.132941669351702,15.878860028300593,27.44380452937519,24.238061058495724,12.566227822094074,20.594186147652888,23.846307443405536,7.768325406316046,5.373271638371998,12.97556301625868,4.2364959421515564,2.341351820386295,18.839513075240124,19.15833998058565,7.59705622668778,13.536053243926304,16.336753417378535,2.720684369810418,3.2721736468679623,12.38827666765628,3.004441753717136,-1.2733602659460952,14.555214573471877,18.557577952806714,11.904496416022305,19.801525108904496,21.996897226507947,8.253523809077386,11.07363634927134,23.10104587901019,13.638249121818626,5.602310953925695,16.20664559205029,16.98352739824229,12.061849766375587,23.695106044388094,24.73879434562963,3.755920165130984,-1.3956040926005506,8.483283436285635,6.30340732863861,11.085244859746432,30.678838114395933,30.45143971135478,16.12180679860009,17.835489427393913,16.095141051787618,-0.1432029978637619,1.7713334274383534,15.557584467758714,11.434225216217621,10.933987611109437,26.25457928649953,24.31999342491607,11.305878444016932,16.63530790313101,17.39482388401627,0.032541707871909686,-2.137401848742942,7.480641756360436,2.4068657009301773,3.926041082040909,20.421473115436,15.609066815794229,-4.452846911600179,-5.791671799768516,-5.294011643449373,-15.510306599851528,-7.004264041591046,10.674563504534742,6.03362809739596,3.370093594542456,18.145955028547974,15.937652662203885,2.106263680600973,8.736376440954224,14.507020369130556,5.905528351923785,14.523547395736758,30.853583611477358,22.438307533237648,12.350502650896058,17.402228128446776,8.713382699102338,-5.8836734977801655,5.72173029270053,24.442887636026306,35.192368825355786,66.23296043135733,109.69294198934475,133.62933875418628,158.26724584860253,197.12662180807985,214.67079430263425,210.6033895702821,212.73672171893867,202.62896586171678,172.113890209732,159.98478844318603,164.2997251656841,150.88467360934396,133.83258728197123,124.48754762864715,93.85436657248795,53.26864233776954,37.301826417319,23.019354073559413,-9.936189274547472,-33.99497871240096,-51.03166825741696,-82.96606126569979,-106.84570973211059,-113.62964183728194,-137.09492830395055,-169.00269449044748,-175.22260575317108,-174.67265665677905,-187.08722359378385,-191.04895033901923,-192.7038651714574,-213.13109311221422,-224.0310057046521,-209.7400352060657,-206.30569181044092,-215.2775503924702,-207.75371980071466,-201.4094425946089,-209.80220502069557,-202.9021202554668,-185.22348836439508,-183.9490741460582,-177.32065748270895,-154.10471052466,-149.9407977305602,-161.47897877243238,-156.10796054585575,-149.41269894099094,-152.42155227035076,-134.3618060707794,-104.40856769640504,-97.35405306161267,-92.95342969557379,-74.04020473984832,-70.61044131339241,-77.074908772709,-62.46151243713419,-48.870876923442424,-53.11447413179444,-42.8877667308969,-20.805798329535694,-17.39124442055573,-13.572644680730772,5.824426413024628,10.612941698884867,3.945656370180343,13.4803073969406,18.287132306833193,5.190207712821474,8.915124403675094,28.838685597273077,34.85041075424593,42.47463436265719,61.970783502539085,62.12246142417264,50.05020081305619,57.49035544683228,64.26257829061834,55.74115536671853,63.243131254440925,81.2871090367793,78.37927579386995,74.91635729959606,86.5809755373309,82.57480817504091,67.79180542389011,72.62840786106014,76.17385289362468,64.0638536914748,69.16362689718345,85.9781366464335,80.58241654077045,72.86103498851453,82.07967892724898,80.06443682817577,70.19206486595237,80.85203689553687,89.63095473614183,78.81254048473842,78.97387793580572,87.46698537079851,76.1481195287874,68.90833195007369,85.02942496272648,91.90683499235043,85.54529676969614,88.8453540921066,81.00364765362716,54.528467028616966,52.07506199602472,73.30472237514535,80.24833305192247,83.28121196840141,93.50218089287253,81.5598565209683,57.54922754281388,58.50198112207944,64.3497617678448,52.617343122088,51.036671306489126,60.002637658939015,52.856361888746896,50.36738791863147,67.8225623875843,68.69117978428983,48.816720250727414,39.897469331905135,31.287994518269173,13.77255856976719,19.400722304432467,40.94567766525052,39.84387578093853,31.35378867719561,36.40383464811543,31.328707529828478,21.131332428143438,32.50644616346627,38.97957547065292,21.17322135459152,15.622381621734053,27.223025587158034,26.64230008030148,28.32307673694224,42.38353976322313,35.585996290573554,14.314167819688489,14.346024139908407,16.660903083314984,1.6939225425325972,0.12718630553089083,11.850280983647993,6.916304718896868,2.8992160984997684,12.849393620778429,3.720858901490522,-18.48637186199836,-17.2396782808919,-9.977826854248804,-16.17762315029947,-9.403497053723159,5.358745197714573,-2.2926002240059526,-11.41941638306336,-3.4858871688288264,-8.723717756009341,-25.06611216651846,-20.95309748553261,-14.909864928071233,-25.269797150668104,-22.581007906609784,-8.920499274145714,-15.736379747562303,-24.694084309092947,-16.81888504943572,-20.382643845452634,-33.22588316655608,-24.759191718368516,-14.891894885492839,-24.457452894540058,-24.679299856086224,-14.30746102583359,-20.730776691658704,-24.353791547327177,-9.314504074151328,-10.236610231992518,-28.342700850356973,-30.482956218176284,-31.854428223342623,-47.739878657126866,-46.02780289169944,-30.28421896076123,-35.226344985330684,-42.00184394429323,-31.105587064283043,-32.593010005611,-44.59990928265868,-37.340393579864845,-31.856064706200897,-44.46574924988728,-41.258216466489884,-23.178360453952322,-23.20044947152582,-26.19770533396492,-16.90090267042477,-22.59953263897885,-36.01813194112462,-25.201887035487662,-13.537508045675098,-23.569271273373182,-26.030796313726142,-20.47485938184569,-33.99784626834064,-44.14805900156946,-32.61124531027933,-32.19960322143748,-43.242425239074265,-35.291391291129244,-28.20532184322593,-40.39414102471566,-39.49510951886057,-25.110948304903655,-29.502958187930815,-35.409635163219946,-24.07538574885874,-25.306271257526326,-37.77061072170724,-29.52785738520229,-19.137707399981128,-26.321376512967625,-20.8746211621758,-2.36062748893373,-3.4057920138419195,-8.976067426919403,-0.9859591583625837,-8.532969550935189,-29.85999014161613,-30.408948841926215,-24.3862204317236,-30.43742405505884,-22.558402391784554,-5.647007611230201,-12.978935512888377,-25.57237828136773,-20.439060174395287,-23.00465203082049,-32.42938156552278,-20.829594312285778,-9.711953588908635,-18.93061234930639,-16.370212254164453,-0.7131152812599781,-4.123005579177944,-9.480084760383406,1.397669236420172,-2.41785418971129,-19.132760646114576,-14.42851037079267,-5.790852213587248,-15.292830533838064,-15.605905741337185,-6.403188118727847,-17.24588363215813,-28.59306269636224,-19.68741732396948,-20.29205325414408,-31.77402663937779,-22.904408532859485,-10.43866013498617,-15.653985755500905,-12.082724597869696,0.48889744687744674,-6.909987537775985,-14.461457258896568,-0.9922328194911527,3.582031056157673,-4.268423358691216,3.0873573065945896,7.6978181150949565,-7.046515931349791,-8.257056520416194,6.0600848424548195,4.1009350051652,1.2308024615172939,15.119709443174298,15.25954531662328,1.7345197558364793,7.471572880169017,14.696348184879476,2.047414078265443,0.19357301565344254,12.03890906797733,6.1434341854087755,-0.15777388485171207,14.593032696682393,19.008249188507257,7.304310089844348,9.766556596820541,11.151693348040384,-6.8507953377175435,-10.42881244756346,5.41395869668651,6.08832945403995,5.157600200906558,38.57070891191667,100.14247219144431,164.31893529606438,211.13878814478625,222.63568220583412,189.1982892392616,136.17238267075524,117.78363885537891,137.5072829318631,139.6644636638614,115.27877339435838,101.60338251144772,92.95211798667307,76.99560103164742,78.8958638609407,87.75843061848056,67.9816087115474,45.56441401770927,48.483369035069195,42.87081278528576,20.952674172679693,17.330435203641137,20.61702086825654,8.724704268157454,7.007894974433601,15.941285049081637,4.5500154445420335,-13.633325113786057,-19.40779399419541,-28.65994166541631,-53.43861115060142,-104.0168167356273,-180.91330111955583,-252.02440424967062,-287.93729167901876,-276.43127862383534,-221.8553539632066,-172.52417754777923,-170.68444378110036,-182.3384748020555,-170.8476429671961,-161.12552141629277,-160.9191239398913,-147.0153573722522,-136.26765116079358,-140.4786845032848,-122.97250055122979,-86.57237344537404,-75.31687163005091,-77.13302932286425,-64.70044395702692,-62.42592544698408,-73.24215836832701,-64.39031658713061,-48.63447457897122,-47.80501161872955,-37.33644163314308,-17.70055667596647,-21.120210396112622,-30.76736364914833,-23.211042309499454,-25.663316194813348,-40.76439040326969,-36.505601176118624,-26.86777069378884,-32.4093911897519,-24.9774559677469,-2.121591920834115,2.7191158929183907,2.864438860593638,20.497143888837073,27.35157640781319,17.92706218005697,23.598160518949374,32.54686118949517,26.65913203179227,35.204514199337865,58.056631104144884,58.18183252466227,49.565597324086404,58.20256063376196,59.455714168422084,49.537381475552685,57.221236450292125,64.48024250118281,49.1784109691459,43.11468235523215,53.5662736347746,49.44432887736542,43.855546216953336,57.34356359355043,60.94886141772396,49.47768658841417,54.570290660805696,63.66846303080716,55.792166146562806,58.86239418832133,76.66658190406858,77.56551983027713,76.28643666484243,95.82264290953461,110.35362505373791,116.96562414105536,146.52789877670594,184.05803669770512,205.52325909697603,235.0148292147266,272.14014009099935,280.22925737093436,271.06256694920495,269.0699429532544,250.77777789622172,216.87006122575144,203.5258988872906,197.61158976558764,173.78939811954845,156.46128484200872,148.43610811699767,117.83144947018636,81.33752302221811,66.54680388345338,47.75458972230435,17.413817848935228,2.980903757837317,-11.69282229097593,-47.03063657167687,-68.90150173729023,-68.19460623882327,-79.87877244475865,-96.91841862864139,-100.55229884662941,-117.5511902363243,-147.16417940897574,-151.44205489947834,-144.25807879319885,-154.34366436370686,-157.28296737582934,-146.18505574037044,-151.88501140527515,-161.96006256539877,-154.69486794059856,-159.46424374453346,-179.90300810412865,-176.75178005366982,-158.7882195473001,-153.28438090030969,-141.19407852532427,-123.27989356422324,-131.74409216593114,-147.1224429405875,-136.6922216437217,-123.59438562923327,-118.62799025621945,-97.07800384877476,-76.4202056888183,-81.75631019289693,-81.55939413863493,-63.654535518900104,-59.697458615832076,-59.98246592695092,-43.17715251078485,-38.594039333587844,-51.53864989671516,-45.09407187170679,-28.835028566895495,-27.869936107598054,-18.414033694748525,1.476915804375662,-3.4506313434359734,-18.273583200299,-11.286648795012876,-2.808379770541395,0.23985229022982435,23.134188249275084,45.497105022424456,37.99467139923737,29.028454389261793,34.49687561720194,31.151568353324137,31.50834123900298,54.14938216395741,66.3356937404481,57.59721634120514,60.84442983312878,67.79940133261988,56.97641830922614,55.70901365104222,69.85214011553722,66.20582277648163,56.764999322054585,64.97942643957039,61.491111059813484,38.887260288931664,33.24392908133369,37.50312662861156,30.675779006614675,40.01490177955146,67.03904343758472,70.3805023272389,57.81179402953073,58.31756138347717,52.807098603623075,38.47853239547754,47.24137685185374,62.973122857717065,56.09562551728227,52.8393693283917,63.268524571804384,56.46706745883468,44.302979201034496,52.07720716999007,53.90322326398737,41.918037428396644,46.79921254391702,56.239275296317686,46.0928357432619,43.670900811257624,56.779975167983565,52.27473458097375,40.05022322746786,46.221285387198805,50.07950793654926,47.99403048112205,69.01031922711243,93.5906208002219,87.2901200664189,72.25942958888679,64.81528181138032,46.768136773077586,34.420186529001256,47.47655788021515,51.53433413349856,33.396475140622464,27.416353352458213,30.888275330403747,22.90243352543513,25.204140829123492,40.303825489077134,33.6919623817864,16.954729263766456,18.56477433121117,15.425100248940044,0.3282863445134927,5.324375375122656,17.217350599654562,7.080030254717492,-0.02722671945200128,5.86448397452229,-5.205655307841084,-19.98170664763103,-12.579690616248188,-11.00929223903962,-25.64188754974396,-24.786687866255093,-17.787787768509876,-28.377188974807186,-31.70138474642958,-21.424681286537528,-29.04310550565832,-41.80981740491629,-33.645204602791196,-30.514478214690314,-42.09066223384211,-38.943842032218484,-32.23172475243346,-44.53986348837842,-47.98012053707388,-34.751996619434266,-39.04547394240015,-51.81835411559246,-46.88918050420167,-47.93524741227062,-62.16577349271657,-56.413440813688894,-41.853127737639184,-48.10701543219018,-52.573098442890505,-44.59309367802118,-51.35438346462685,-58.503198478743,-40.31110221100816,-27.382574956181998,-35.4379471983243,-34.62193990450176,-31.375020539453132,-46.5207839808034,-51.89934241439097,-38.55180207852793,-40.816197963101786,-50.089048760238015,-39.7491007138688,-35.7283988290724,-50.024889567956656,-50.169218614579464,-41.84933008633442,-49.15587935964901,-48.44658734603113,-32.90828810595334,-37.34915778690718,-52.021378255122784,-46.980424287235685,-44.68149899752187,-55.45488011807217,-48.34085055544058,-33.408056250367736,-37.46841573012485,-35.91412381593231,-20.39087219859703,-24.785821921591644,-39.128502355794495,-33.78150492124696,-30.45339706763095,-38.523588750486084,-27.16667757319989,-8.11989267981766,-12.489061728293684,-18.528818837778704,-14.03884948607196,-26.86117354086856,-44.6865680138358,-38.12937353333727,-30.530115102473996,-34.22545126979666,-21.268736199368725,-4.4078807811151774,-12.37495424187231,-18.926216205302254,-9.309719207764957,-12.48901616576069,-20.234293013005047,-9.48431552693918,-7.445828660943376,-22.725145138370852,-19.421741399953135,-4.950065321912718,-8.5547520337033,-9.99963938343737,-0.6806990000877056,-9.857212441504817,-24.636458363016416,-17.11926835803934,-13.734860906220003,-27.034617405275593,-23.78706669964032,-9.123823889377887,-9.967455002891835,-6.765266016717665,7.181058345752665,-0.14778961541793834,-16.53380539123811,-10.155418860024103,-4.797560985654274,-14.702811864250075,-9.409777900571928,3.684582285188565,-1.2950794279054083,-0.42415472594065795,15.074012417164738,10.973279985736788,-4.973001533054325,-2.806223052696618,-1.5776380184289927,-10.249186182770643,1.518342304733891,22.072427703608717,18.663186448903932,12.171824785473197,17.52346705745728,9.401153975135419,-0.4586421011605757,13.931258013000132,23.77577437082243,13.270156333965033,13.326497920488192,18.733890075088517,6.441106739707278,2.1767371749132307,15.998117357847343,15.438863719978702,8.375794987777653,19.44809650970842,21.88867437256026,4.369674619541305,1.6275772126481158,9.688988335062758,3.644365321839276,7.168890235726939,28.273232402135076,29.90544125905221,18.41609105325652,23.715613340324428,23.956081864822572,9.025521204786138,13.210367189198442,29.063486000621513,24.793206268202617,20.170010893482562,28.348265099559235,20.177879100681082,4.488641511971666,11.203977877210646,16.18959220951626,2.662963052316057,1.7787191804760651,10.373308624685617,3.060119346686778,3.6057552049232946,23.152011181943724,26.384910293108575,18.181010009220216,28.038588356101094,33.60770119994504,21.029537679593904,23.001368528218812,35.636976640203585,32.000423925680025,33.96267106097667,49.84512852395916,43.157314531536684,22.693686986035974,23.539623794299764,26.539860555470568,17.814379662822205,24.281861342968906,34.83682953802252,22.31791031157359,13.82307128345099,23.39856710458393,17.87652675713924,3.896786989768323,11.371518981727665,17.377912084294564,6.55105365906228,7.970088701801647,14.68478518665153,1.7864831089963413,-1.7220161380647243,19.99729261028203,29.139069401829122,22.05810408255637,24.39731909669808,19.449172800096278,1.2200446888749124,4.266748087117099,19.654133371170754,13.612808424567909,7.290848216308079,17.948730296035833,16.542390711604426,6.011253040014596,11.096556302779456,9.788335165348268,-7.534676264571423,-4.994236559224203,12.216022563443055,11.42808166428392,10.774164071497793,22.76221132071971,16.870211833402195,0.6348901433253618,5.257069344018721,10.222558378563297,-0.04946531183315006,3.489916327475588,16.019577953831803,9.509670872676848,4.860885411745799,15.631973843414732,11.326059360994993,-1.464053789723729,6.5850318602633795,12.446167391987252,0.14055745814906562,-0.08151570127091956,7.988364777558702,-1.0824524334892658,-4.345419596071309,10.09954845428883,9.78878534304507,1.7106030873434137,15.150626199559312,25.050169009176383,14.185798242025314,13.969448387834971,21.5846917558253,10.538266530260529,2.447234391196294,9.53954065414324,0.7748289689298966,-15.329054818478863,-7.037944896709716,2.9313674523332205,-3.51959211858509,3.046452758068986,20.391466930989942,23.00926588217696,33.798679934660576,67.71624641863352,92.5131314476268,111.40038510890308,152.69611500809282,190.5099616637698,201.93838737537192,212.46690065868984,217.2606586225588,192.37492188183677,167.31205758220418,162.61450561133577,147.51487720049556,122.91168211047628,112.88959389497097,94.07511482976689,55.77151263174626,34.42938318132665,26.570931635992498,0.24498769016776833,-27.371445235873054,-42.621222317587,-71.86017356146724,-103.84586178419505,-108.63502389191885,-113.23803532828926,-137.7923132154969,-152.5628335260249,-158.87026375614857,-180.6368133890649,-194.80503246731743,-188.03972467450126,-194.07407043778406,-211.70058303715007,-212.2103952682202,-214.483012386979,-231.95357364920926,-231.37490624449998,-214.4014046948246,-212.63346695871766,-210.28096179801807,-193.22650471298775,-190.8096991266816,-198.63279217382413,-186.25978152097898,-173.6485570519328,-178.50830933094807,-171.5291414808296,-153.45397453863177,-149.8913783963348,-141.3927309154297,-117.49955135117074,-112.05893426902651,-120.32382135591163,-109.39651400892748,-96.59114191234434,-96.84169780159742,-81.70417135539472,-58.314324577574425,-57.36503446526808,-55.66260826299663,-34.992273943181075,-27.585882382445497,-32.532237190611674,-19.938488889437213,-8.475849755541168,-12.845316878142778,-0.2705800271572212,26.280294802609745,31.12038520590498,28.205608676883333,35.45937397469988,28.77565010273952,16.83291380953417,32.21475835279711,51.72901118840216,51.28959075641876,56.28264159744907,64.43344776940404,50.65449079624317,41.59585153807093,57.715807923888555,66.67736234708318,66.83724624203045,84.1521360749121,95.52591320507501,84.2892978142561,85.00471989132191,98.10592540577468,93.11362079324837,89.53469493129455,104.7687928853378,106.47404711470905,93.46727779765739,94.98154543500263,94.02566480373909,76.84085306983616,76.73917812782085,91.91711943163729,87.23988076594749,77.64793465610663,83.42811542905267,80.82511371628615,74.3734806106693,91.35172089174804,105.92029621036265,94.89781790874056,88.43405419472614,89.71544215065917,74.70879738114436,66.80948104625335,83.27625073157157,89.69220543712021,81.35061699442329,83.64728767979321,78.69613727106858,55.44236586418822,51.788953497163774,69.29789026487867,72.1689652992592,71.3127647703694,80.7015655767139,70.5806491981568,46.54825749660358,45.35235714708298,50.466066346448514,40.81057776074202,43.11540737099999,55.52630291051229,48.747720000745375,43.085090117889884,55.837657790207786,53.548166175997856,35.48188290117804,34.3902617132701,35.35621436271325,23.06837202047916,27.690776562537742,44.56946221791696,39.79442119506097,31.950020693047627,39.23315613155849,31.537774523316088,12.01960881484284,12.897034200740023,15.678642629786989,3.1936313739879427,5.6979437192772036,20.98181581061079,17.908585553692454,13.64432203441841,23.584133368315207,17.236621989853624,-2.2019894783252445,-1.6397987918509989,2.5675142861575377,-6.702400452897098,-0.6419671687254125,16.750779718656233,10.91602916979953,-1.7252355296342112,-0.20560888331085092,-9.11331478834361,-23.82282336722718,-13.647155984189553,-1.8052617935339028,-12.758823361630204,-17.643442010629357,-12.738174490699311,-23.58276571426104,-30.247913711562532,-17.235076344711622,-19.757496247958098,-38.71224118151936,-37.781303469663115,-29.749091299722885,-33.800152916242126,-24.47118142097867,-7.997448294183709,-17.852265258387384,-30.665568988344454,-21.074911746443245,-20.168048080580547,-33.18225713470713,-31.153470860128444,-29.673762168558433,-43.069156514022666,-37.800156726847945,-16.019618781347248,-15.802408805010359,-24.481319573282825,-23.058508534377353,-36.856141422946116,-58.85541594300991,-53.294345596674475,-38.994975979062815,-40.3387570470336,-32.89405953815673,-18.35497859797392,-26.01128831813308,-35.042855344294026,-23.796997708759683,-22.695810791983934,-34.77483134285707,-29.02634333090966,-21.63258879167023,-32.86902690118542,-33.88763499877097,-23.41781313490801,-32.537112748712154,-43.68538927415102,-34.63139548477176,-32.648826365619705,-40.617673148929704,-31.285870191600814,-23.948316120730063,-38.84655661778452,-44.859480486992226,-36.66635673482164,-41.264368869478766,-41.354911966582705,-20.637750302615423,-12.948288587256826,-22.975240484086868,-20.247427724686496,-17.731241354471038,-30.100780923030523,-27.13575304033916,-10.916873990676416,-15.701503473926676,-24.95394603970519,-16.343007074816263,-17.207621874494613,-29.801551406767086,-25.031845549335387,-21.171696690947527,-37.889697174344406,-43.04551312854028,-32.979459628498304,-38.66045912311328,-43.08870885224975,-25.852368774912357,-17.85046432137196,-23.318597454602504,-11.909169361485494,-0.5965910138374118,-11.090937570976386,-13.605425662694747,-3.5796228539407555,-10.142578456857752,-15.79527635391689,-0.7223206528158057,2.5882753559780234,-11.916426696651705,-13.813126089204346,-15.833784256489196,-33.1359083036671,-32.772242759070664,-12.622765160431966,-8.288749057367742,-9.701036268889663,-0.44693023686002675,-8.823673986601564,-30.90025077710978,-28.98062627020802,-18.639932613763193,-23.886352014046714,-17.590080389285887,1.9318213936475734,2.3827667478413925,-0.4010375338763612,14.095679133413428,14.903927758269667,-1.1661769729294766,0.3031239517249209,6.000912865565162,-5.085436589938205,-3.6592798440147503,12.501644938038663,8.133242888821297,-3.6558916955403347,1.295070211040927,-0.2932785003172518,-8.90623622198183,4.025644005602761,16.879513952370306,4.866957962702745,-0.6343126677657966,9.419476185632853,6.749073300863355,3.465872900426379,15.11951980551661,12.117209614928207,-4.7719671220476565,0.10759104517845852,12.782607319346967,9.306697015209256,14.026553066910363,27.604129317098803,19.243787614147262,7.329478493409102,15.38568500206426,14.388933606128322,0.8627466842378952,6.781619504079777,16.153164648547147,7.148239446306873,8.623694833275634,22.441738171856812,15.96563216062533,6.207466805156896,16.347554426868097,17.027507454561945,3.713299804023313,6.996101954877018,10.964438961290504,-3.306555190188001,-2.311184043345285,17.918771484250957,20.899130262839822,16.25270637841647,22.38713741609718,12.627416494387393,-8.30108417039884,-1.5524408427416816,16.95530806017018,18.883985817493333,25.297679781558173,36.60842329881624,24.36362495502474,8.612453989288493,14.93762364274019,15.727748523500596,4.310227019932476,10.308266653068817,19.582931803699523,10.759744864278435,12.756331006188624,29.24102513384193,25.838388650386417,15.053785215296099,20.48445544606203,17.572273906984524,4.764785723441174,13.313134461590751,25.022182489437192,14.326856112099208,10.35716261411094,20.002489827804144,12.355007521360292,1.932283528442834,11.26259107090852,11.963468874264738,-0.5875842231272879,4.910619828678992,12.856398983228807,0.7088443202344639,-1.4824079340313192,11.642543376108335,7.130094497760913,-1.3415376622538853,9.337982291944728,11.492424978805577,-0.509996605867884,2.786849186444235,6.373875941965115,-9.195036837389527,-10.765719081854272,8.51053510021492,13.572922934827403,12.773691629099556,24.98505007821161,21.55453003195273,0.2918436077686284,-1.0864561100556642,7.633644834997294,2.0335586744976286,5.9168466101697765,21.047518655340316,13.986243305569783,0.5362414308477046,7.491322069752974,8.222994022579137,-3.880237677960607,1.6409657120964107,10.791444514902372,1.1157200771990556,0.03907153341390712,11.412030566359665,3.7590614627025465,-7.065658645152974,3.0397641540870772,5.560072564441762,-6.4434432902582195,-3.1031496118046857,1.1993017248566988,-14.171940972073534,-18.238949238352166,-5.129743676344877,-7.752533294919077,-13.811965172859937,-1.8093336834134792,-0.4371698998614437,-14.795713124414942,-10.76364748970975,0.9780058945952894,-2.2475991051592654,5.060841667805525,24.4966324926834,20.421303433722688,6.5157961435449625,10.95633384417577,11.483791890760635,4.997547981781295,23.196369396463496,51.27096530066552,64.49072388064221,89.91847837490889,133.62057035929323,161.94124476028426,182.7206459589202,213.5344417845455,222.0301824240172,200.75077270412748,187.76251734483304,179.90923364583892,159.56377623749557,153.1843845002517,159.9322733174834,140.52048945442533,106.6897618447031,88.01375881115514,64.25121788887846,30.90944050555165,16.710856571611835,5.621482216871199,-26.897872537237852,-52.58347727157223,-62.49652055624293,-86.77268309409561,-115.11618425063989,-126.26901259962989,-146.2019962926237,-180.12816837709573,-195.07723678417685,-199.80854408240072,-216.53084170514654,-221.86794352286915,-211.60438465911716,-216.58755027475775,-224.73827732605858,-213.38560086873187,-209.66819245592416,-221.7170618808068,-219.4287965944633,-212.43120027853817,-220.20127145863904,-215.4398964883156,-193.1985198000005,-186.72239061112813,-186.5777363507395,-171.36241649603608,-166.72128362922223,-176.09739657324872,-165.57740027554473,-146.57278103229538,-142.94642857618223,-129.4377688776996,-102.3990477616965,-96.04305344158581,-98.24908105349925,-84.58069440370464,-81.4555725740097,-91.96092756005686,-79.32466297256633,-55.7918292032465,-49.026771922955234,-35.64513250540561,-12.212198448232677,-11.804545142658123,-19.48120512260442,-7.865708282445853,-2.661686536830949,-10.267181199185991,2.9295832078155444,25.32460396315889,29.182363816043875,36.516700944600075,53.190206467083705,50.396322360978814,43.912252019291984,58.939317074879895,65.77844236837896,52.997580495961124,53.090443673290245,60.527694148613215,56.3929868753184,67.25520205913266,95.17311948424293,101.19099240682618,93.74653356871772,99.49079153320596,96.17636541143244,79.85313124603597,83.487235174949,93.98694841472987,85.89787348101613,86.8244740780806,104.88778314697737,106.08598942832998,98.20926446913583,103.97962443696882,99.69226306370896,83.08462421156119,89.23579943886443,105.05760421959398,101.43751061918199,101.37219407762242,112.23503859006928,103.67046397011165,88.68866665796173,93.26570831153172,91.96960973924038,77.39012476774158,80.75816094945,89.45480578648912,78.74411091465993,75.4811295966075,87.36956269438926,83.46657138688292,76.69149292109344,91.34028054198444,98.47833092321332,86.48328147833892,83.58984462083284,78.96364443679786,55.69294614131431,49.4759485825116,69.05862361508001,74.42791448119114,68.0469335172608,71.59450245289446,61.92205037962253,38.15510924642463,38.4890806391013,51.197506531928624,45.829673477001926,44.86994753768978,55.472524593519864,46.122847415932455,30.414578559454945,37.556360694845566,43.66119495896521,37.42679822574588,44.94324511400579,52.24182042956946,35.32925911448582,23.772298415684862,30.30647721225819,24.253439376272226,12.6476994981509,17.657112310323292,14.677051618288361,-2.164779233773446,0.19781390421230194,9.728027989279456,-0.7205473601539882,-4.198309258546182,10.875244848657687,13.320650540166696,10.945094821454852,24.86945510031087,26.01437521866658,6.25363809851163,3.0774112186051457,11.265792738414087,5.26425964767853,6.413342205276923,17.79873452956067,4.193846755863605,-21.278130744520865,-25.93713399683439,-29.37572014514916,-40.67747929452185,-33.79083851788084,-23.791262534294297,-36.07367453819744,-42.18527979820195,-30.259656519752244,-30.775632233173194,-34.47701405341669,-18.40647061628598,-9.86393200081078,-18.030935237576877,-12.038642881391006,-3.6177555696752317,-17.89142538261397,-28.352382584847668,-24.662409563288477,-35.371244612532585,-47.32404307377971,-35.270324441869434,-28.437476718098765,-40.32346335939216,-40.58315677781739,-36.65334944670357,-49.37577158324168,-50.604996834163344,-32.27971791704071,-29.578123794552255,-36.26411864197955,-29.07705633020231,-32.814788486610645,-52.8077419973961,-52.14178754684608,-38.58968150820834,-40.314004159344705,-37.1109056418415,-23.87226766525896,-32.848859137892774,-50.581325967160595,-46.49098719243976,-43.85253867568241,-53.985501244749685,-48.05610869555975,-37.51313299151789,-48.75666067179274,-55.93482976914818,-46.766067029400446,-49.87052405086516,-55.44497621536068,-41.046558805538965,-35.02024064517798,-47.01778775151343,-43.124731549875364,-30.429548326156493,-33.70182931424628,-30.293666702867487,-15.779004224060209,-24.044380929140104,-41.11718382033892,-36.038014609045796,-33.17978273396677,-42.888859603479936,-34.988399097757664,-22.66128939571432,-32.08744986080552,-33.93975413985751,-16.930127595344505,-15.334379992474556,-21.456810938072447,-9.580669042319856,-5.060138042615416,-17.348874674856813,-14.23274278309734,-6.35563874416252,-20.197865499620466,-28.18605073325757,-17.36092049606262,-19.598496610228942,-28.828093211126355,-21.13543327129114,-20.833303525515287,-36.413101807134375,-34.508745392643206,-23.66728388934282,-30.625989798844344,-30.541025320290483,-13.454511000475744,-13.803767087519613,-24.61782175561744,-16.898864718700185,-11.36055938022627,-17.49578781609058,-5.609824346128699,10.470059034827488,-0.022312600419886586,-10.063860447339055,-2.9032465365791635,-8.177058335433966,-19.858351446521695,-13.696183228825536,-12.691983438979989,-24.126199668221705,-14.85280742533609,4.062536974450172,0.600015908913095,-4.282071610254874,3.2695423952212193,-2.4870491027556874,-11.742286457148515,-0.9673773601479683,4.009390937108163,-5.965222585915564,2.890951235556975,21.663781049878878,18.81644525745694,13.361857293196076,16.954613845255743,4.245116764413231,-10.404745762582412,0.4063307359672539,8.519839841981923,-0.36418141890243927,4.533430773034588,15.55185929129162,7.267430677355514,3.842222343582948,15.851893240819548,13.616870211696398,7.1144161334435685,20.90884521529994,27.279122294927937,14.208646039206265,15.363193305460811,25.878361391830225,20.91297314109608,22.446417508305363,36.39327911876618,28.724995807028463,10.79904461929009,13.170780313661487,11.878800021038701,-4.98561069504972,-4.668362669811537,5.976212253940448,0.23793367361183115,1.5504851319566668,19.008565690441564,19.15868203730382,10.990407569468394,22.221580286864388,27.40797359269576,14.6468869846262,17.036300044199283,28.207598608550324,21.646818042922575,19.749139383875146,31.79101193851777,26.477538944390574,13.08643627252933,18.159259596720116,16.74427086506526,-1.4290670924791113,-1.710615446439486,10.311956769252033,7.314662766890678,9.286036456628121,22.444938006743254,14.702080044577556,-1.1086964956151135,6.825177524647739,15.428935876425282,9.967580208291581,17.44431562889935,27.85211415401678,16.3097536898616,11.067040601972689,24.702176435795796,22.388057679273683,9.45964227250958,13.804825526505184,13.572703606799672,-1.4700936129686086,0.6473365632441808,11.055537719912346,2.074267572607079,0.010156156067698374,17.414658675974145,18.92600715088764,8.857858230635166,13.714771077082352,10.962403303096528,-7.480293516321266,-6.374424291222529,7.7933652858285285,6.138826376185895,8.426996927499943,22.86880106662554,16.888845764476525,-0.56090545981922,1.0509126098657444,1.2277657819111183,-11.93740440480549,-8.428750726417384,4.97580539668899,1.8106287935212024,4.025655832256129,20.615936261303304,17.4137686441754,1.8259746791499012,5.0485387175165615,7.688080697420831,-1.762040360167954,6.111879746675059,22.37170474751306,19.720496583862715,23.422387173938695,47.43719404841151,60.4791582451623,69.07878927309926,99.97472607619389,129.69841142860741,145.70104403374089,176.46397676538726,210.1867899030241,214.86415456607904,211.25880555508468,214.88318721672792,200.71016275081132,178.1354793369515,173.53869855381564,161.21994818664677,125.17954977238611,97.92856768922918,79.97420592687087,48.96559847085841,27.002801785247023,22.078027159904813,-2.3995942598718543,-41.64031121015685,-64.7574353698337,-88.31184333666008,-118.93988274303474,-125.75550007196625,-122.20956248645803,-140.97655291339612,-159.77422091285487,-164.2659091239198,-180.97193968620203,-199.05676162657664,-193.47370786051854,-192.68222880460135,-210.49584198093783,-213.9324732650271,-208.0705057587744,-217.94182902487765,-219.0653213608378,-201.5409888470905,-199.94064164478817,-207.55535639388447,-195.85199187406653,-187.24405686658838,-192.22817660997944,-177.9849399523432,-153.3259403593922,-149.26350072373162,-144.25562818526234,-124.50454187294787,-119.29578620949067,-122.04839351865317,-106.47401967883773,-96.12438236158175,-103.62821450449381,-95.80676363858498,-76.40249255788044,-73.17352813877177,-66.06832766111614,-44.88768026021471,-41.833812944335726,-49.391989150845575,-37.60512707998821,-27.491811670930296,-30.739368924734567,-15.552735701692152,10.029822503591655,14.898809725343582,18.89638335533064,33.88267528097656,30.979398889451055,20.808321644423142,33.99715553472043,47.82914026056515,45.622173088788394,54.17807394969813,66.79228937303203,57.55783556458306,50.409487566915736,60.288141794279575,58.78757665049065,53.081706508437705,68.70840556598091,78.65767034643801,66.85532590025522,66.62767838576909,77.24885743838287,73.56785083681773,75.74770795355546,92.54050471301429,90.57546322334659,77.16796459125862,82.87980394234762,85.97819396126397,71.4795767693785,69.92828283194982,78.10144659127998,71.48957782925896,72.96113052536579,92.27318263470443,93.62172992141257,81.0279351710593,84.14058946748284,84.68144427398154,73.82839784654946,82.40155597941012,97.68853936339104,87.25756894571511,76.86680319257914,84.46225679437664,80.50139148230599,70.34013416793852,78.19858558621488,77.8346017674908,57.65172469161342,53.68564315098711,63.25724604855445,59.88671353988333,65.52009439535749,89.37580553159177,92.70642713875432,74.94629136163022,65.98951342295537,53.27596024566728,32.063596953228,35.57323832328077,54.031413544229096,51.98375080089718,46.81223039201959,52.89764281367689,42.644444662557035,25.338179367458263,32.06530317063311,40.99645786371635,34.781850134671615,38.80513955421424,44.718818865324,26.734194550051342,12.733639448887226,21.410740871485515,21.59007632951864,14.425810368357702,23.79416374346744,25.31396279016177,5.929031048319517,0.3477983435553418,7.272893936632082,0.7053669868892944,1.638306545780691,19.421619517286135,18.21751460063054,2.5839512937864075,4.120349710934275,4.700370546277538,-8.257756615433642,-5.30719350622093,5.877737333511668,-3.382518836711064,-9.103559060029605,4.136034244167582,4.316036090881914,-5.386836720710243,1.2870173336036164,1.8123635024806222,-15.38776126953474,-16.250455149190877,-5.45898157874668,-12.489171606317315,-16.31442910679598,-4.156553803814836,-8.807781216193447,-24.89580369280104,-22.18370504690916,-20.84030340346199,-32.458872095933195,-25.388644949476713,-10.084186356788297,-21.094151092403468,-36.55685064789625,-37.229708809767146,-47.19634909832992,-57.01594800792213,-41.89276202936185,-30.64740277909152,-38.36283163603393,-30.860528385423464,-12.526199520465239,-13.016737080067669,-11.84283538475263,3.1216413371034077,-0.2863241037246613,-15.655119634071298,-13.109503545393157,-14.174903780285094,-31.31559184450205,-31.50408731579574,-21.191660711577022,-30.808309753384396,-37.261170138758914,-24.251384530508567,-23.823057300035167,-34.89443143511423,-31.82446366457814,-35.06679640039375,-53.20815801414363,-49.94472946781431,-31.872045323578355,-33.148971260183494,-34.33445516144349,-19.894497137851495,-19.261917658508626,-27.38006874880078,-17.716724837476562,-13.92197358455242,-29.094386693273446,-29.15500374240056,-17.275343341769887,-22.46357584595678,-25.02003925434587,-12.46774561775581,-17.301406166021792,-35.43896821075192,-36.07145553090152,-36.62120612648444,-48.85952823704472,-43.103678260041455,-29.115793412606433,-38.51523008960903,-46.44103272774713,-33.20804481218647,-29.070996454495845,-33.589856529741205,-22.97632970091677,-19.270950210856796,-31.71428143717489,-23.88721153560276,-2.123854220211485,-2.331200417908224,-8.470389777653423,-5.429114962961627,-18.36464477787046,-36.81516375951314,-31.060012634099053,-23.97572761994669,-30.357160272406627,-21.067296505564904,-4.646136186451187,-10.96435397134735,-17.641581338769342,-9.632295022338498,-15.024244506622379,-25.200082224269302,-11.797604254556258,0.9183397998578724,-3.186954140212668,4.054213571892957,13.519500237580147,-4.059998735107418,-21.451806688433535,-16.8962101835328,-18.09033875776627,-22.66794131699081,-8.30005309880381,-2.007376910967495,-18.5895588004623,-22.10318867887716,-10.693350967578679,-11.13894700498146,-6.377957260505925,12.75073592545605,12.611075047862137,-1.7978880792394385,1.288609104051221,4.00818471296943,-6.807398600676926,-1.569893851140347,12.458482342753843,4.795975166805088,-2.8085388993146103,5.353799993239216,-0.6481671317847768,-14.076667733487072,-5.100769479224982,2.1160183522090525,-9.973020153801802,-10.216400639545483,-1.6335129304162312,-10.389208517930062,-11.951345092457485,7.442353961096158,11.621710566557894,1.5577528210909901,6.556809127784788,7.396132870114695,-8.273779930739616,-7.52151422940484,4.9628506220297055,-0.6832094750202264,-1.3718407764581801,18.51232652340461,23.23098800136435,12.960208576864733,18.07851179727984,19.105601686250445,1.0849797860620551,-2.1068701098951323,8.49626812368557,2.680998298974947,0.211339645809823,14.794187725530495,11.331523451865182,-6.861399786750127,-5.1414563483972255,0.47601782104901735,-5.473003337959737,3.6814628827410902,19.572796617149262,12.606931073730465,6.563501556774801,17.89964775528263,14.618852425137025,0.2830853094202199,5.3222197162945495,10.935059868962627,3.777073512499018,14.401913456107085,34.361483424310684,28.661994902611895,17.142003779146172,19.676689127689265,11.240025700131628,-1.1586579779782715,10.438879417429487,20.236235833142263,8.150335653005001,5.982098714711382,15.104756723492683,8.270238196059324,4.84745643500834,19.252455792650377,18.653919461410833,4.345245379915796,6.219418713003172,6.394347122538876,-7.542232213905591,-1.8798860808524518,18.81403022834007,18.456821620460357,13.06215632448729,21.582225753499692,18.401147705202533,8.315697729589377,18.37641126622916,24.21879622639053,8.454000525935983,4.377738364418089,12.672712900907227,5.043774407024066,0.1280480702235155,13.192925970159099,14.45770916087693,5.759501934631443,13.030239147574658,15.456271155718326,0.7151462736479095,2.0407679668076986,15.824624185685787,11.325640013989533,7.540994995212113,19.320638984133854,16.10552071165608,2.5521635865990433,9.434803928657628,16.09664469055036,5.77817317396161,9.340119264194195,23.198431189577818,16.47321361846597,10.138346690216688,21.606003875631206,18.62073770832474,3.1029468381534664,7.024360878205135,11.71740994876837,-0.257544535128563,0.4561440923548332,9.951082038594537,-1.4619612303342304,-10.331509782971446,2.8277876680489467,5.447853887671682,-3.636428565018832,2.7454567656579467,3.2447965211109073,-16.55582195993747,-21.005798042703496,-9.363090587973696,-11.799906616394658,-10.899494030149363,7.3974435596266614,10.060704274836263,-2.0936004091052007,2.0312021765862864,5.027994177240051,-8.821945521895694,-8.317949276773156,4.654663291083508,-0.029215714540553606,-1.977547852898071,15.85478502490769,19.40631570119939,6.845189018697871,8.741518641304534,10.272910556982334,0.5741982529561449,12.94763481106732,43.03713428480972,58.2057043554784,77.77716129233679,119.76855775624924,154.20076797839062,179.85285232271497,218.92992065682532,245.5113117245335,240.78608839393746,234.692139945898,228.75255536212464,202.74199166543605,181.89312176343677,179.76870595577805,159.5177025440277,119.01613900621606,91.26737627718121,67.6406327468063,38.7197250282818,30.15471179519601,28.008563042905436,-5.1893542486198125,-46.39633114806612,-67.56852323589874,-90.95616929161261,-116.00003612099866,-121.24282684230525,-133.2128462112109,-168.25173466330446,-188.7628527359243,-190.7813731523115,-204.49810946714177,-213.23168738707164,-202.70080813070612,-206.9628950512101,-224.89657685275614,-223.15688222226527,-218.92603005384214,-228.77253537859156,-221.74244864578884,-201.7528479096849,-202.20270467146997,-204.09996042484585,-187.88633194846147,-181.90107081528487,-185.30611211817833,-172.052899387658,-165.071659239364,-180.5267268550756,-182.58818369736724,-167.94905559453443,-164.89783696264539,-155.9252662907827,-127.51346011492197,-113.49957682377494,-114.19146103618048,-99.16812086892205,-86.85202288920148,-93.59827318977855,-85.77937417121879,-63.0004879470024,-57.23436946374952,-51.50965944759504,-29.907122905984483,-22.845793083420155,-25.975951171959842,-8.766198721024896,5.60573137014981,-0.9422697084187694,4.895868682827315,23.003609785763707,23.989480763358927,25.671980530435015,41.31217400674231,39.78871375535742,26.841890381367918,36.52609451857052,50.14589000727048,47.709569971036785,56.959483469330564,75.83898130296929,73.63773072631338,69.34439514203152,82.50041129358037,84.24010487635078,76.21920041600168,88.26003795060014,97.57487530038651,82.47999373795456,76.29092741582983,85.20494186444861,81.89572146998273,82.84926772875474,101.62765537543258,102.75621895081791,85.17592970778585,83.31180985797864,83.01725710835241,68.63877895719112,73.11454628898926,96.93833579746098,105.82569961473213,109.9202739248314,120.15873839586935,107.61461602825835,81.73256774508542,79.83641737887847,83.25212014771,70.04674718080402,66.58902981619255,71.6949929076687,60.44718410153734,56.60686975176267,75.22964394422112,79.29039957522683,66.13002482845458,65.9917970877047,63.52235025219198,48.33914411762386,55.83185483697279,80.5754775900221,82.72213276146381,76.49649046928153,82.26487122556476,74.96839968502604,59.87324472314657,68.03513845800961,76.98532198053162,64.9913666706766,62.23149087172482,68.33292357051032,52.17292801140211,34.491314790344944,38.48346952752282,36.752178031028095,27.081568992062902,34.07946870501113,36.66170691440554,19.92417676644601,18.754258347161645,33.35391777464738,30.167368731168395,23.960944648554168,32.371527519453515,28.806204787082947,17.241713385419423,27.639151941353358,37.54964082011202,25.118148919645897,20.92067142207567,26.983438212759516,14.748042072501656,4.010625051498826,12.2196841799996,6.741764796082514,-11.752585724281145,-8.96901727318923,0.4420066217787224,-2.4745978515924167,7.007809403169105,22.414968519278382,10.425889710067466,-7.813910045396728,-6.897970666562113,-12.16407739730145,-24.04062370770355,-14.668143557325203,-4.145999706173331,-11.894411328670913,-8.137573798215058,5.582394097019509,-3.8361721119852072,-18.110913549544755,-15.076219465827315,-22.044425005987886,-38.539651586679604,-33.76334275520796,-25.75493354081057,-33.25159564074467,-26.29550618848001,-7.333765723860136,-11.366775527678422,-22.458742108847307,-20.369317717214248,-30.806332895624124,-48.91107159032583,-42.29518256207777,-30.949490615521263,-36.90128886416771,-32.96268949945322,-19.194647548249606,-24.092892002421074,-28.60683984259586,-15.02945949524495,-14.998101183794248,-28.835801040495248,-24.299674613180265,-18.036554967884932,-29.136975919226163,-29.75888615616531,-21.934609546520377,-35.80370144006904,-50.71344955359276,-45.05468037008171,-46.65775216176033,-55.069501347118404,-41.80553536921049,-29.17872066477115,-39.528558807074276,-42.82581370418821,-35.34362995541698,-43.724166741349464,-47.736160494581554,-28.640169824717766,-20.112400309365125,-26.889589963296057,-18.73089702062517,-12.113079068689066,-25.57328694928194,-27.862230150211992,-17.310973398284073,-25.390597039720674,-34.862171081284735,-25.26061090692359,-25.05126547015065,-35.23676710028222,-26.858610236851888,-19.31102429986227,-31.90496556084726,-32.487442579620364,-18.782436539326753,-23.57344137808048,-32.164024723134865,-25.848437201373805,-31.252328542878928,-42.996053340958426,-28.197030874168902,-10.763873630113387,-17.571460439927357,-19.78292901004579,-12.452661025275843,-21.88629180855536,-28.683636210768427,-14.66775309298322,-10.907979576363704,-18.118743874040735,-6.5118617557708465,3.1757206580305066,-10.931289798061375,-16.733683642459,-7.1041180512839475,-10.027348099024772,-12.767251216748543,-2.8491570752014708,-11.126590941331443,-33.05970394515976,-32.64535279358907,-26.64767130058437,-36.500384412350314,-34.28222514383239,-18.314042642483017,-17.434719639217413,-16.540324660142048,-1.7458055780221802,-4.714107007058995,-23.368891061936598,-21.729240479589755,-12.759573380536242,-15.691843546342668,-4.966013250812415,15.856731537999199,12.773987469913326,2.0133308684219537,5.856830951482765,-1.4889886737397346,-19.707198230757847,-17.957335204905085,-13.854385797095112,-26.80302007255905,-25.852033092658004,-10.696253472793149,-15.743872008547017,-24.824745690664983,-16.23804314642873,-17.291454466267393,-26.072013963907906,-10.728056732968593,6.862036985326192,2.2242364075335894,4.200367694925309,14.696419096604716,6.015927121699431,1.8518123607069348,24.50654179482072,39.01974144033614,36.184623804065765,40.97106686730636,35.186027580657964,5.6509386912552095,-7.91442150563526,1.1640512659773083,-0.3853572550983988,-1.2268458013224322,13.700382684239635,12.62083427319498,-4.852389283258002,-5.156820392223294,-2.6829395566462804,-14.141698178085303,-8.330185706883881,13.443431261461086,14.871453153709684,9.861243079264431,19.50441874447029,17.878961227093374,6.438183737240143,15.42487649367198,23.905480828957614,10.411503739634892,8.30977484706098,23.035198651765125,22.20812993853045,17.952426246279973,26.538151996309782,18.534043829607555,-3.175799415555816,-2.2765357177843515,5.556854334852441,-2.070217796376218,1.2491361971625619,15.446760988838319,10.817565708700554,5.1769921484523564,16.085774558471346,12.728050804635824,-3.4643351549133863,2.2717850225380323,14.042338732325717,10.022077149263753,16.027871452574527,30.465315634377657,22.555330938658713,12.461650907298994,22.778505802173722,23.541865141958986,11.87317948143351,18.716847376512085,26.303039829000234,13.630546344979122,12.027753910177351,25.32596454054355,21.516170672606442,14.956611799200807,24.869814091813844,22.153085093454152,6.068792576902678,9.76613077176572,16.683315584831902,4.808395845717034,4.1488101999140845,17.974968715699152,14.320031607649048,8.227250178488825,18.695611906789406,16.259665406221433,0.1313462691093541,2.3535579227616155,7.700665185507399,-2.7261333571676616,0.06546845092783604,17.240168011445935,16.45196865210632,11.539602180904144,21.308111179403024,17.87411399025707,2.5759501190890752,9.874463296039623,23.427254784128692,18.550383661578906,19.528769112679747,27.13507738212371,13.249271122951864,-0.13991357986904474,9.998814794696843,10.62864190986548,-4.330510224586309,-2.3074988361007254,4.316729183860236,-2.625338916488329,4.4526879935963155,21.821805341962406,13.312854736797135,-2.3296885503684575,1.4389976582703685,-1.5209163744816498,-12.646853612651332,-2.1785188433677733,9.887609623531853,0.9944009409226506,1.3900910430136109,14.734144108917523,9.143120850937034,0.004310549804294794,10.053191795873097,12.65103289666761,5.133607573536333,17.474039364149018,31.848378595194177,26.18621099404117,32.60957250125106,59.360180892787405,77.00004986174554,97.69756928647178,135.99534834576139,158.85388899712555,163.5724907707178,181.79696841681712,196.3056378824577,185.71962011179693,181.10798869909726,187.74073179358646,172.9183653743475,147.7630225563724,132.54648997690413,104.34617118092459,67.28518903414093,54.27259595571879,44.90313690006668,11.670305628150215,-18.14268247585262,-35.232663075930844,-64.7457768913006,-94.29829198364655,-108.44317877207715,-134.19014363797328,-168.86330078225944,-178.28541943590454,-179.50870466905067,-197.26414520465568,-204.97844304525805,-198.5879309783508,-206.71635667057456,-213.77012280939306,-201.61866700461528,-200.99018221370014,-214.11712407216797,-206.95923912420363,-193.70269199721494,-197.66506704700467,-192.70029529321536,-177.3402630664147,-183.37216187233705,-192.1256054110942,-177.21497178394247,-164.66840186874487,-158.97468138373353,-133.76782906865336,-110.63386517985853,-113.44384101822342,-110.78142506952015,-95.39057576332935,-96.21954195569846,-96.89444589862907,-77.88080170760647,-70.35772871927622,-76.32146876986197,-62.31760465913497,-44.95687252183994,-46.89496249422734,-38.27954817936879,-15.553825435639375,-11.756253185453682,-11.441457976449108,7.788522410723015,15.502425572008786,6.926968809850478,15.361146982461586,26.543406053439423,18.800066401867824,22.582570948436807,41.66636435577216,41.10147120184442,34.38042009402015,45.625757831655626,48.81281097631317,40.24771193236629,49.66318626934043,61.167147237577936,54.61507541688774,59.802818291053285,78.82127980644228,76.93378961807592,66.94802755938602,72.00590160166072,68.5598391983757,56.75700874699671,67.26120659795602,81.18095473773215,74.06705655878041,74.53871294525824,87.6772475282034,82.47522874229533,72.87263919349213,80.50722713942696,79.04316386739016,66.29270716678657,73.97100715600482,86.13090009110739,78.11868363245843,77.34743878364259,90.20480580812762,86.94892303102378,81.25442224075078,91.70830315391167,88.00314828931508,69.48553350265453,72.18570166568566,81.2316973248775,71.69476304669597,69.65875370916484,78.7521884927088,69.18986455463072,58.02754180517031,68.06766614867634,69.90127994500085,57.50962496253905,62.31640603962044,70.69294351840105,59.55369249424531,56.60813753782884,67.70997069953536,60.766204633146145,48.072715311734186,52.79945452228401,49.788282546997344,36.023770609195864,42.17071060677866,51.18714509548028,39.368148332837855,36.40193346440081,47.54955141001801,39.4100392191539,25.21277912759264,29.677275058109522,29.648243800215937,23.532540417219604,39.52618639518839,54.59665672008171,40.08798069477344,27.165804780171047,29.14297767822596,19.71942963869389,11.761746914891585,22.825008778657477,21.58426754343381,3.8504083283144652,3.5241322888358613,8.271471438899267,-3.540307850338393,-4.314329659503167,9.393503074962217,5.289366433374075,-3.1741757681014495,4.983318387345526,2.481599159354621,-12.004312872318769,-5.657359365883956,5.217865012782212,-3.4954486239978495,-4.165516101433453,6.590810482326753,-3.896264432655128,-19.456674290536434,-14.32456324953673,-15.292174582695928,-27.713943356910406,-21.834685518976084,-14.601344290502166,-29.70177480432159,-35.760312237049504,-21.769899628689387,-18.336276267595935,-17.955717886164138,-3.943979218051279,-5.818084346525248,-27.490236514085357,-31.79962461055345,-25.407542800271564,-29.757741770129538,-21.99954199321372,-2.8621095317876124,-6.839630019364083,-19.601643984098523,-16.549014893787216,-22.880440855480757,-40.12713995779385,-34.783742472238416,-22.04165396477614,-27.857291448267855,-28.41445145745528,-19.87096689038829,-29.87221967561999,-40.00766630598751,-27.63170168809456,-25.24261705990451,-41.351652300653775,-41.5030195221467,-34.44584042525479,-41.48970131544756,-37.422603087301006,-21.729490462527757,-28.406555627556177,-40.73299999520522,-31.949455585471732,-29.007141614282443,-38.17066868381742,-29.990352458662528,-20.463087523609097,-32.573999747458544,-37.576700011962835,-29.248119198695314,-37.313746164613285,-46.27067688289507,-33.48553704891519,-28.17542187567413,-38.14934510707474,-35.90172699742958,-36.158661024435666,-55.861437205990974,-60.28102642743447,-42.57667265895738,-37.63748310080224,-37.45719721402229,-23.3358464025592,-22.109980826000328,-36.99246356360677,-36.522774279919716,-32.73505115679095,-43.80906693071324,-38.85075162075805,-14.25378303897007,-8.488564006003177,-14.900563052286525,-10.959773859655066,-18.708126823906003,-37.35777075977484,-32.881006998324196,-20.479062284380554,-25.191056456259748,-20.60202261933018,-3.0134782052608395,-6.199508987217958,-17.68803725866877,-13.17778632632238,-17.22391342979304,-32.15885974596627,-24.912665027455173,-10.291321302241476,-14.059833645658996,-11.747022053830618,-0.07539915888010285,-8.812640275510951,-20.092579181698433,-9.603080027974455,-6.337927917525194,-16.554715211141705,-9.35530499238091,1.1625370212605053,-7.209357912592753,-6.293290249614438,8.716596936682766,5.175494385397776,-4.621102025455947,2.017326929011891,-1.5193952810066391,-19.27236741649176,-16.484332460751784,-3.8403190840901105,-6.503894167893604,-0.8142209841614085,17.445220490540343,15.178018484132714,4.426474790363643,10.26717432452866,8.183262890677861,-5.991234414227424,-0.8861709642397329,8.448706640714308,-1.4839235083459998,-1.6109986667426375,14.220062451891168,13.115641229374717,5.6721069645309825,12.470442647126196,8.383879809436241,-6.899465905190917,-0.036970899325434736,13.706121758419075,7.475238550792357,5.300076891504162,14.53048336131966,8.654295863390406,2.926051926349907,18.81389856755906,25.81635205982615,15.00483814580187,16.34148203671838,18.058214848132653,2.1182387438933867,0.47434677936066993,18.079845549778334,19.873620302027835,15.995904895567236,26.3418143736138,21.880807323006472,-0.04933715906767233,-1.2932390549278314,8.9194476186829,6.032145929600736,13.787538484210675,33.01062846435035,27.346666863189522,11.215059506729922,15.313529673575784,17.85277975624897,10.935767581474146,20.57310930422566,30.602589635763188,17.388998992641433,10.152856260842476,19.12582268791897,15.000698998993158,7.745567087434158,16.653216525177143,14.12670110613661,-3.9270472801916148,-3.4098903332228168,4.915043393875513,-2.8653008686242742,-2.124226591905898,11.635380278268801,6.083649081190088,-6.496835856010652,-0.992431594597647,-0.7749679385529764,-8.91853601525879,7.353650417343805,31.467743101833303,31.59859160716745,30.14751597449619,35.58699896729574,21.632684130923593,6.639469515778497,16.886276338731292,22.510256317909935,12.05337175194516,13.834420819678254,14.811471685472908,-4.628967560904435,-11.07363176227531,3.76520904006661,3.795451268881766,-3.6404141908412386,4.134326606293644,3.71488991966117,-7.354385896243819,2.115237214148153,15.175238030263491,5.585239447917632,3.7102048111588664,20.84029557302838,24.137073010422313,20.89057838393051,31.544317336717526,29.062642091244395,9.698409175691728,9.469724519446427,17.722985669512084,8.462773242971881,6.356925922264249,17.655484994378526,9.98068202499723,-4.982756252638025,-1.7195443932769492,-4.589579958874867,-20.484943256918516,-19.520653744042875,-13.242086536944473,-22.09996219973729,-17.254176527927775,5.987824787050845,10.25249399109472,2.53654464703975,7.021183661495265,2.5968906899259485,-10.574575596653965,1.2259983514391912,19.93856161530698,15.54299752052647,14.352319627884853,24.722430239972695,16.62246590527166,4.498782895601301,13.511849054500834,16.08854120290183,4.463410369229922,12.083667648072552,29.310066637926337,33.171429172641304,52.09596828879951,93.32295729649651,120.73624401066306,141.11410415357776,175.16569164424865,192.87329599404907,185.23062632826168,187.30501844729883,193.3959163584331,182.59477352885236,180.1554612736769,187.65479287425404,166.767898153704,129.50513098305822,108.39380922637729,83.8616646091695,46.88742076913016,22.349706283134694,-4.174087893260449,-51.213172048892375,-84.23139457306885,-92.62776701571691,-109.69426793535861,-129.70687453542422,-134.21421175195547,-147.21754742343884,-171.73537613748755,-178.99087329921582,-182.98764701782483,-204.04408485088783,-212.45567738031724,-201.47826048287416,-204.30546674182347,-211.75232536117778,-202.08769572870784,-200.44999185330886,-210.77309916053622,-199.57830010195292,