5.687783147592477,33.02906332789742,72.29147523487183,68.14809020864259,10.113783393854478,-46.01669852037042,-90.28144079095333,-120.51546829609754,-89.20120796158378,-45.40718419312367,-80.00457666796322,-126.66539459993714,-114.2956741846773,-116.37261209840177,-142.61350506322643,-121.28340207585312,-105.34619170662181,-144.88413144221792,-150.23315195540187,-115.6974687141333,-133.93293222637314,-159.21641239359548,-125.7910607840712,-113.4143326188196,-138.7952298642396,-119.58775779090831,-95.93955748561552,-124.18516902635864,-123.39488487950103,-81.66202567054486,-84.40818837633466,-91.74709362303638,-48.353248751513405,-34.443232143048455,-56.49082443367634,-24.967586504057046,14.864314772192404,-3.8798527706715724,-6.402864593875838,19.87934272104977,-4.536555572719367,-31.65152773335475,-0.7337202778729583,4.412705181667773,-33.134607341580974,-26.597522346431074,-11.249817412530035,-43.560815613194904,-45.086572015053896,-6.162942133116209,-17.252175999035032,-41.194285964931446,-15.772699218256538,-14.920686669446146,-48.66929718840703,-30.21960084329106,-1.3043856352163168,-25.705586785787595,-25.097450388624523,14.94527578225968,7.619232495790343,-7.81510674908626,29.299841549484043,39.5447661406035,9.936955614195643,29.35286928818502,58.10688162674793,31.729143565292976,29.091820390163054,66.69467179974352,56.03526895518955,34.57242062942518,66.77607915020565,75.53097365946593,44.76964745685649,61.90264751901644,88.02942556203365,58.280301616884245,53.15617589127386,93.07635596511068,88.73634363312524,71.76148084035715,103.3214320346994,106.67993070410637,68.32859288150185,82.3831529666967,114.78235108846792,95.30076919792782,94.5402897829271,128.87480541307946,112.16265892268758,83.37185385533085,111.42785261547887,121.0189517662297,91.71493647299906,110.69816162415731,143.3203092086163,121.77766425444008,118.8259800845857,151.91542971554549,133.590679708692,101.88461084103112,126.6020477779874,132.05021357339518,97.26790031205894,110.69467465476636,138.94950394810957,114.93371817936006,112.25117007920338,148.1392102280917,132.43411556106412,100.94228603913476,125.20443870214498,131.068189196677,95.68978858102521,106.9870866955215,132.56701351640774,104.63305177523984,98.5108773626869,135.6857026448442,124.77416474444037,96.06670330568187,119.18707595941848,120.51861959158364,78.58594042777511,86.51417948012507,115.22807571468577,92.08450922153733,86.77612095733281,121.02231528485424,105.62675629269802,72.73611448355321,95.01974171616217,99.41282567790117,59.92278552703475,67.16156655026161,94.68951042952258,70.93504960480597,64.2944019486255,96.98016160936255,79.77780473202742,43.69533961856931,63.63263417657211,69.31955170762441,32.59629041445562,40.41501554654054,65.403186214763,36.84771043341893,26.222390871339627,59.72522493302778,47.53787910338225,16.66268519606927,40.07507909862546,46.705553919629146,7.6538964988852545,11.735568604952627,34.56019850294558,6.072747783236133,-2.598339565032788,34.34082966158597,24.064319545667978,-10.072922455901788,6.219905557231016,7.324594407073831,-31.756633596512437,-22.450519209610324,6.182835263804401,-22.243037618749018,-38.13622171595564,-10.205427008449018,-22.920916181918912,-48.32068350729279,-16.401924152935536,-3.45613415618442,-41.564210859641065,-39.28264852101298,-16.951496621919,-44.959544112366366,-54.84071894086716,-22.091447588189496,-37.98438201466456,-73.66255096790876,-49.78548972119377,-35.036132140755576,-63.301451869084175,-50.479552397813094,-22.942253900070337,-52.51408276175305,-66.0715085257062,-32.5842245263805,-43.54410400129476,-76.35917645765406,-55.464813563272884,-48.77603456163173,-86.88560125092513,-80.53864857557434,-53.623691584193395,-81.37514161453073,-94.08896515593251,-59.565674458064265,-67.78541698815025,-97.06595046687421,-72.64093258350741,-62.88876063734139,-99.45710194981903,-92.55348866445968,-63.68346483916916,-87.06926159244242,-94.35178380239795,-55.53241702934427,-62.204174399571464,-92.46492924376224,-69.60876475196076,-60.62673430480261,-97.57783626389303,-91.16461820754768,-63.09211993257021,-88.36592576224898,-97.78961370244926,-59.95572459552734,-68.82149568432438,-104.04744483822245,-86.15489453957899,-80.74056071066177,-118.18490225221119,-105.70820085693211,-67.90734015015897,-85.9159958420205,-91.67769526015199,-53.72448320027814,-64.37730618230316,-97.0637812869331,-70.57552484777824,-57.390715460013936,-93.67944587421881,-86.34463174879131,-56.80224372034033,-81.65434635415136,-88.56192662322131,-46.05930946535518,-51.90742334900138,-85.30364436070414,-64.27710718994376,-56.119873401872866,-94.81782025258049,-86.93584159621716,-54.17765378227175,-77.96332780740215,-88.93293427136538,-51.10601303933582,-59.00911811844602,-92.96014684356311,-70.55097210900377,-57.79129181141515,-89.21080993353509,-72.55189133249829,-31.675908836356896,-52.49469127172383,-68.13166598899885,-37.16719888755555,-46.470628192325904,-75.6315132997421,-46.009877212868076,-29.118422038035348,-66.10337388637122,-62.8633885670576,-31.655170616325492,-51.11310082205572,-56.460097938092794,-13.228016113289907,-16.765053019775664,-49.51292315789223,-26.63338794179211,-12.358910897174017,-46.4502067714589,-38.746603668717576,-7.053048030450993,-32.232034853707404,-46.340192166151326,-9.659458449984605,-15.241128309520061,-47.187149457811785,-21.88024378581405,-3.3632654879761508,-33.14038340750817,-22.978694715213763,9.65320249863415,-15.785499820793628,-30.210776347790308,9.752986848428367,11.639606597901317,-14.088400098221591,10.84890547534131,21.560927898602614,-19.180774045214058,-14.89903486943307,21.787543918365184,6.237615996405385,-0.7602159822579164,38.12790911910205,29.02405780227941,-12.538681878736345,1.767132595635962,13.038599932823619,-19.39577261982616,-5.040014800570775,39.26934857315774,24.03624246173494,9.83074426379869,41.68687532627042,32.02760843325758,-3.5605347092187607,19.761653327798726,36.41077173391238,-0.6084262719014504,0.2080684931158503,30.44641997123698,8.96371918966653,-1.087496270461687,41.9266696942059,42.30495317757007,8.874809006833651,28.54009625486963,41.84947478893291,4.396543321553157,7.674852633222374,40.073012724726226,15.077581159741058,-3.5678665823168445,32.60732438311559,32.707411954545535,4.811451930686832,31.84334791890349,50.417829568781826,14.151561881322658,16.201210501112676,49.26084293823434,28.04923486554601,13.218114660809125,50.38882270461748,47.167644337305205,12.165180186417102,32.323692036854354,47.688170571043536,11.714969891445024,16.28818909286965,52.371949693380564,31.766944444179437,13.953584466885605,47.209954358309005,41.94693533208302,7.01375761197073,29.642182172353667,49.17859690405855,14.413191068574465,15.396684721051102,48.410473715561736,28.69256836250031,14.032660262917178,51.054013258701126,47.149287995144675,8.341857116545933,25.51180918331922,43.681129630912764,11.982327932557553,16.900991907505144,50.880580680205334,27.049910108797377,5.837744966273107,40.28565203925281,40.159220098435156,7.281009390810942,27.99076171952432,45.12699040209638,8.013215820553931,8.201555386117526,43.465355920462144,24.584700906115852,6.2253344532848125,40.26308528570364,37.918489495987586,1.8841161826710806,21.083152128905844,40.66505152873772,7.579846368312818,10.656175473352299,48.28838084559808,30.417307230995696,9.77646598821848,40.33139741093813,36.262938835745246,0.43750459221741167,21.446438094448215,43.02824930874235,8.769459501590106,6.483583006806784,37.78650054948161,16.79547179136481,-1.730360688457611,34.448730353962645,34.59876243785517,-2.4892813644262617,12.906425178883163,29.948526519646194,-3.6916561154860723,-0.5226207479971485,37.511100680400226,19.971176782572343,0.19703718316390084,34.03319231492395,33.66766747753657,-3.319213571274636,11.666427000657642,27.94318292524335,-7.370585045312129,-6.047505695224881,31.68955789484954,14.0490862811013,-7.564789360464568,24.572889448100142,24.9081934958377,-9.668794784649101,7.81001477939256,24.430548740155768,-14.558220706191964,-17.99771517000333,19.504598182445775,7.290195065395897,-7.195350192143302,28.6640856385201,26.285255900269696,-15.46791258266855,-3.198595055319215,15.033968457385301,-17.49005173847721,-16.303536137534422,19.307138343003523,-0.919929153570715,-25.289824681685722,5.6460147612637,7.8102385606147955,-23.58519044274029,-2.564495330749571,18.649885276434734,-17.037690462180237,-20.944841403925828,13.817884853249012,-2.4352758491729887,-22.345021918510984,9.866293680902123,8.560091618975617,-28.457147433152116,-9.461417687894656,15.03547631039576,-16.024551462502856,-17.532675703264736,17.127451747950417,-0.5471946775818743,-20.562718544955683,14.934289977487687,16.879204119272206,-21.966863669028328,-9.171209465123663,9.315830804072682,-23.948650724915346,-22.892330867603384,16.96845703556977,2.8287606270987435,-18.86410501473176,11.167883435695812,9.01819863553885,-29.745733129754647,-12.309195119737591,13.960988769904375,-14.130540231019316,-15.249093055211269,17.280528877657872,-3.6875379547389624,-26.134781584710712,11.940256434401295,21.618757778613585,-11.415221620656048,0.22534898007083015,11.406597547273687,-33.10086838747367,-41.71972841485705,-3.2776587276154174,-11.683495820101411,-25.698772429818376,12.13771874336775,15.42436241521677,-22.892996398766638,-7.111281436749056,18.152472603711278,-11.476769176698626,-12.735235843836803,24.264937082974964,8.202353384723885,-14.573705243307206,18.638332779653922,21.306417450097953,-17.308768675399214,-3.168936983476444,19.485972364108314,-13.417086147975807,-18.3559099474704,14.834438022515204,-5.424045144967531,-32.11615511591701,0.18054226906572168,5.963511476289068,-29.031610908907055,-13.910955646537593,7.901612530635058,-26.053053340826814,-30.624114608931237,6.13259847027952,-9.187286732424088,-33.568072555647575,-1.1031722118859477,5.681982225687848,-27.99653265122342,-12.422598042154364,9.889760558752512,-23.111420942148833,-25.66157831083722,15.147429175846954,3.8120951307455098,-20.283794987769923,7.869900439175126,7.947172366790834,-31.31872229442051,-17.64980893206964,5.953534572777315,-25.63883750587035,-29.28762321693988,8.311375418823204,-5.573182758843499,-29.52504925931899,1.6200974583732268,6.244362480669591,-29.361704296553153,-13.569639021025305,11.565707897798912,-20.301123019810746,-25.81536909224333,11.880382968318417,0.07449855671237415,-22.572896452301006,8.58006662997079,10.455022363448212,-31.317792601930165,-19.248211597039,9.844178244754573,-14.008446961541338,-14.387450451320472,22.765290045895085,5.527327790508204,-23.783481941055648,6.301762787222227,15.368416887370845,-17.755066432147206,-3.5654911139128203,20.15028251324608,-12.500520610923669,-19.47508875541101,17.858183323660064,6.400964382793105,-17.806781622753586,12.413889565822869,17.10090829155051,-21.494763911674205,-9.29291068443121,17.72253230897759,-9.136652843155801,-10.986282990421024,29.341499310967166,17.311704532914234,-10.606677502065573,16.057341118343608,19.491690551986096,-18.750967065448876,-5.3714967962675075,23.31726505882325,-3.4152448308578442,-7.914277854652393,29.48566941789577,16.109420932513864,-12.195208775525938,15.35816732590947,20.59449730048055,-17.551312290402283,-6.611618581322848,18.64161150541526,-11.242612962864996,-16.92995546037553,22.525022491100714,12.22070998480559,-15.353409286955024,10.857130259458842,14.940903793111296,-23.00215070221086,-9.696468776654898,19.326906306411715,-8.415008345611982,-14.564352465242994,24.248337422133428,14.768111525350852,-11.273854543310689,16.35431808972865,20.86142160036023,-18.470881861057716,-6.2298702976265545,23.907828646646603,-3.1552556705034647,-10.944661891457166,25.577964042009107,14.51332015203513,-11.668248696004019,17.711019621890294,23.51306136514995,-18.730917692923825,-13.395784415702956,10.903536443944821,-17.361922673679686,-22.571032671644772,18.304769937467555,10.12565540323772,-17.014336844372536,10.806411632784181,18.721528998965532,-16.891139990882188,-1.3229352209856469,32.322198833972294,6.2550290197917775,-4.482881417088735,27.892377297528526,12.914008504532895,-16.5042177395053,13.66045431030909,23.861546727760125,-15.97029891353963,-9.907729726356253,17.4966450334297,-7.131951856594323,-10.561262082783786,30.54132907080072,18.15114558249537,-19.326096772273903,-1.4076003237152221,3.971932176583842,-28.695758644676793,-8.593979262108963,30.841569292391863,8.949639298118463,-1.7169392560515648,30.40930359725207,16.547233393786307,-13.661552724659433,14.20181220729989,23.915398600688157,-14.703912953485402,-7.980723813840074,18.444923686496367,-9.401684466139235,-17.35317320444717,22.31501184350321,13.805460722620682,-17.842787916918034,4.498756874561231,11.011447396450436,-25.29302517900049,-11.449582791506558,23.274274149964715,-0.9992895378041382,-12.498104779374616,20.75605770824768,8.134207564165745,-23.311835143390176,2.742726048342444,12.452923781916528,-25.30460783988188,-16.463157035746555,14.296628777712346,-10.12498123217295,-18.138649039228603,19.896053289920665,9.944623326835487,-22.37846291288631,1.5647286761147985,10.225598749928164,-27.98375866854083,-18.78279526975276,14.396068436182235,-6.800913253597763,-12.70407727890184,26.630278484129875,17.47539594098933,-14.947082970230229,9.925648572229617,22.52108207106826,-12.097167047863032,-4.216116869064706,23.025244161970637,-6.14756646903108,-18.589357135871058,19.56244311830597,13.10994495210317,-18.812767006646457,1.84807319496349,8.010810075748882,-30.63355002282803,-19.739705062090074,16.840979959164294,-3.8972579127607077,-13.591697653538205,23.916461893690226,17.13805301152455,-12.195637339293846,14.582910357619129,25.093710553768545,-16.919507003650516,-14.569835700187815,15.51795441291142,-6.771339399483418,-15.83055575806412,19.808332346520714,6.277424103945286,-32.012681181709716,-9.909474520636389,4.661570335159996,-27.94452406440882,-18.680367434767554,12.123821268520597,-13.684808998055992,-25.46966726770441,13.444117077339858,8.872307818887991,-21.013290198678156,4.855162258043791,19.325548197445364,-15.396718527854356,-7.436400709611133,24.533582465171705,-1.3650981326117595,-17.623996569851023,15.385185561547656,5.974963320501802,-28.149234034308183,-5.564673724361544,5.839196363839369,-32.989655758895076,-27.611817117476807,7.071729730202094,-10.364143911772299,-15.746302231447686,25.35239404332598,17.79378220587451,-19.783968927502826,-1.1562570017606095,10.652217527623016,-23.206311160652113,-12.256875158506649,24.484450010767222,3.1979810656305894,-10.37123624573914,23.34082000257502,11.894061073226696,-27.021297433301903,-7.967201538582035,4.6649830825274545,-30.450223217590608,-22.49769974841502,12.562409409361743,-7.7832499279078835,-18.32139689551851,20.39401790133573,14.24000085412145,-22.117049206419605,-2.5246534537187326,11.810038455596601,-19.71196692320588,-7.623367872754887,28.8799555426321,3.4226439500001486,-17.087424921221693,14.388100917137919,9.327955372381206,-18.747087636328402,9.715652626765527,25.250140077725717,-16.085743543959207,-18.255380233058936,10.976330646219948,-9.493010993809461,-17.589806851979016,24.222559588177646,20.21506386284134,-16.100568337853478,3.184317952489028,18.162697364519268,-14.069942681222285,-4.59626076514248,30.738910787811555,6.5701801384701675,-11.815506101363082,22.02738477553625,17.767981111842353,-13.255749895385167,10.681626173543426,24.407541477107486,-14.623734958821657,-11.13533729373849,25.1229227713022,7.832269284596052,-4.587712142489025,29.08916997750565,18.294042551593172,-21.730476960958555,-2.3195664483105443,14.569074702340851,-18.716373410027305,-12.646239758195629,22.393453377922427,1.2417495285638225,-14.89095528307747,19.44113269179403,12.67623599021308,-24.59430182383691,-3.308902941418255,17.054010432427635,-12.785818345790162,-5.307030269185404,28.679306816769767,3.4106484468368077,-17.569602161342452,16.197047793260204,13.521434243937446,-20.895723833877856,-2.3899689637245025,11.73225774845533,-23.231575244775662,-16.74421971045853,21.74710404606251,3.7927227536700983,-12.874197528116992,20.181103747088454,14.437233758036221,-22.670338457108926,-4.967443054472412,9.777675147306864,-25.016853034236846,-18.565659798964276,20.655869334648884,3.175141746480989,-13.623722466419885,19.786843297028387,15.391811670507922,-18.870040786335423,3.5558901227544286,22.253864277481426,-14.333294436367757,-16.23495097259672,13.812593763332798,-7.848776372527588,-22.680409149424033,16.271807483806427,15.981971291973153,-18.933643397829464,0.28151815503016664,17.71140814792193,-15.548921978002806,-10.219751483985641,26.81100061753553,7.504386419874759,-10.081539666924435,24.34528661923622,20.608984089143092,-16.463505524379386,2.0234708253212013,19.885228942380923,-14.547385364541723,-12.737533125031582,21.008803036476564,-1.1589019493088752,-21.16940662407571,14.643747175662273,16.32480222486337,-15.730935416975028,4.749544297066443,20.899754320687137,-18.839699512200685,-21.661602021512145,13.900152342486109,-0.31523461072571557,-12.460359453299006,25.796374050466433,23.25535196736223,-17.235516002634167,-3.327722144933457,13.32614448017809,-20.71252159331125,-17.880079001635064,21.074487339235944,7.0067990438872805,-8.444772609199543,25.266787675121957,18.191271272121043,-26.32303819406242,-13.431413055324956,5.828631385738561,-24.81970068908866,-20.59506139967442,15.712248271173442,-4.957851879857927,-26.145331810171083,8.919875565233163,11.541663585921235,-20.089752334887542,1.8555871523013625,22.54254681333499,-13.670420747487539,-17.08018596897012,15.660907573014487,-3.9147884267595643,-23.617122707310994,10.868367080562152,9.878501591834612,-28.9752092434152,-13.582574053427136,7.717944984611139,-20.170765981799857,-12.328170504408872,29.07565540335292,10.605071235039365,-16.5334321570436,8.182101497943043,3.0250583531787525,-32.488868227591716,-9.960882000295474,17.032355432414402,-11.026505334374047,-8.964030015675883,27.021719015164955,8.841380903846193,-12.075703445492103,21.262231057056397,21.373463950431734,-16.329331117657894,-0.8003138037102691,19.840873461205366,-11.622352690455546,-9.026782413963776,30.71032948524226,14.968565869798734,-7.36025242471157,23.137006007189683,21.06481557074327,-17.180552723975318,0.5813004253312375,23.950733455390573,-8.815651734014072,-11.707117586415318,23.109340533463467,6.450283586922058,-13.517515468430462,20.406591168983738,19.67253056157243,-22.57736177429114,-11.936894331291406,7.75453923763363,-22.961680066104954,-20.63819829748276,19.93655266265862,7.0868508641640995,-12.271789002414566,21.394520366358,22.278881347788303,-17.18931183520418,-5.247811512941773,13.126078639958102,-20.419554650702896,-20.81376176070124,17.4426593072473,1.6604645058774476,-21.597616459680133,8.678798047513428,8.576003152249063,-28.72523006983527,-11.900647291675554,12.105673898193096,-17.505829227128565,-15.817675297433768,23.63906986098832,7.486067403122197,-17.179542922787284,13.809379854316669,17.001661535764562,-17.322384829271115,0.2505742278388823,21.467527066299283,-15.655828271299418,-23.3380325074338,10.831290837088291,-4.561849816796663,-25.30467413752411,10.1576183360491,16.110878063210524,-19.912752214272306,-6.359333734134026,14.769209685738844,-17.308757032750947,-18.460835183670945,20.996894831245484,6.929672938232973,-17.90335752934809,11.541928174847344,13.605544344627667,-23.89303607836287,-10.188262551323374,11.936761212550525,-19.280206152323537,-19.023694120839302,23.264316965428506,12.23629249923327,-10.815445287602605,19.094441437666127,20.96542433279017,-16.594225314336896,-2.1106953083359308,20.99277312083581,-11.789281634549017,-17.015266479538916,19.20711589196997,5.2116504015136975,-17.946004106527834,13.120647172714536,15.11213338799513,-25.120826985278356,-12.814836354221981,12.582947005281564,-15.298104158123783,-16.111002121180505,23.474540995883473,10.92967876611026,-11.845873208778574,21.979320074133458,28.6063323082153,-9.694012457114638,0.5477155792554544,22.550350590204268,-8.677582988503351,-12.918629019812505,23.861402793234596,8.49396171602897,-19.447452063959112,7.961087177079399,10.7795415038964,-28.18455169528518,-16.802935814319255,7.913719364713218,-19.821958487324018,-19.790763571657696,22.61071902858105,12.093663093162426,-13.128030903764152,17.333783007701513,24.53925657732142,-11.06808698771138,1.042430775208869,23.12310553031675,-11.126791624435413,-18.738675359956627,19.64700848608836,9.273159327564994,-15.525356652096978,13.130688500937477,17.03703019731709,-20.910632479803876,-6.931522533696372,22.55033230384567,-1.7752396342007994,-1.0701302002723292,41.76010218691112,30.659287748572506,1.24119308569378,24.9606747410986,24.328648027887382,-18.89744831128936,-9.694413891494595,16.01762055093285,-13.310232498414083,-18.959674343126434,18.654176328189777,4.060786568764039,-27.675789829891745,-4.187138120615934,-3.401624895600085,-46.72725646088519,-40.70192939755573,-19.686794557824214,-53.275154375262524,-60.9571657774848,-21.38673281585473,-30.39909292338385,-55.17697904380113,-23.757764060366082,-12.936615135876869,-44.278662449685385,-24.46197658370649,11.309534925480122,-10.877616008449262,-13.46605934956715,27.06790024962755,16.827153086712446,-10.905582904930517,17.700926701044686,25.886998142148308,-10.306683426928357,2.601261243946791,31.398132685325976,2.9872270723939742,-3.8189075294175137,35.71366859914145,26.49493076735812,-0.0031499861417856323,29.204919626182747,36.913087597933014,-0.26635044130829755,12.473166897227372,41.77285195848099,12.33314709588004,1.810147876268735,36.52877669190946,22.771617924370204,-7.49572537456862,19.33082560340317,24.943500422700367,-15.04078455336566,-3.799448225312231,27.01578299871731,1.3259054462518627,-4.956919764678538,32.14060545672458,17.75968353873055,-13.63593393854445,14.844572906967162,23.971251686208245,-14.222057097135888,-4.140193134737396,22.355641359071726,-10.947669064402966,-23.940440031095854,12.086869023073564,0.7337523238964927,-26.392098001812524,7.488347566579122,21.086647242986682,-15.872193626139381,-5.367363883257241,23.79912429066246,-3.8324407711431476,-6.9256924553351356,42.314121911818475,41.976056640909654,19.632997472169755,53.383465262006396,66.52645764306173,33.75263036900518,53.44952143390928,90.67363600904558,63.138842562059395,49.97483429703047,82.3109548468127,64.46674129210571,27.246668870608723,47.04085632752638,43.60389787478829,-10.446169472387293,-14.238911511745458,3.3807330534307667,-34.91314690263708,-48.887886501453465,-11.403614666525424,-24.86315008482334,-60.88184638886016,-40.09670782855819,-39.33185679116308,-83.45268534239389,-71.56007505470761,-37.877798596006244,-65.98896692528797,-75.78574191930527,-36.478156532318835,-47.737139366785,-78.00369376429299,-47.429719760708196,-39.18003310064949,-82.12718402698017,-70.93093108084193,-35.929306759030254,-60.36706977776613,-64.04142538653302,-20.42167932081464,-34.24153794119303,-70.00204301319134,-40.40580127405512,-26.991949736745834,-61.358592089923306,-43.32001534232597,-8.76593831781145,-40.641468729875754,-52.01751637857245,-10.39164366100802,-20.505489451405264,-50.60900034108239,-16.832329778984985,-2.9020149136550684,-39.570649602439175,-23.079059313004947,11.568107155094555,-20.220457558266297,-30.22054793533293,16.152248773538737,11.905285735177628,-15.830285580484112,13.837051104713986,17.602138419119477,-30.455214648474993,-18.887683129440333,21.299854491586977,0.46386886904777924,-2.184482636400767,43.981134060241416,33.69136612868074,-1.2311472287812233,26.561537634671442,36.186738401884035,-3.12823020168835,14.294461722370697,55.03959891397352,28.748086989840843,15.63275692570581,49.923358968739485,30.379788964592805,-8.785892051189272,20.752915866155924,35.827354777502336,-1.4911304678522797,9.724742955419575,40.37278436984947,7.518298134407928,-3.545587090678781,43.82079357494209,42.62208410327794,14.20248484813562,41.60746639995159,48.06087236448977,2.3439599050484112,9.537556812472369,43.93058307095028,17.63652096452777,5.102753796576331,42.375722824799155,30.870779555246145,-3.971200777190653,22.299574720477516,33.76966071372421,-5.658753134384664,5.036449458832285,42.74047164176538,20.400433922259047,10.130887251669478,48.36228623134413,36.29875237349017,-2.0839429955535476,20.925035540322256,32.3856440956184,-7.181339099968092,1.4999889683161172,37.84403668867498,13.619542170726312,-0.7402469228876165,36.17662801216995,28.64948341879355,-4.322932427781094,21.607362406617106,34.087686887304855,-8.539249937604499,-7.368058539593912,22.70409880431452,-3.4129572980269103,-17.214820698728193,22.033182915812834,18.3613149753784,-11.596730756683913,15.474563675718887,28.054481418519053,-15.556663965117878,-15.908330342165565,13.47801783200407,-13.869477061087347,-32.05830594020861,-0.3380897808099803,-13.045304849259962,-50.77729085414489,-26.376885672153744,-10.96133321517868,-50.45945947462702,-48.28648504348144,-16.462934309519163,-38.692781870963,-47.75288447660993,-4.866865952558573,-9.59714946478178,-44.58378556534199,-18.2217679967588,2.3565088978473616,-29.41556026144008,-20.20882164166283,12.756688236169367,-16.63534775735155,-34.8542563487537,4.968968964942135,3.372396033167183,-27.370352528964915,-0.16467954178397903,15.289342314169378,-26.454202946742157,-27.465489159023328,-2.1345928563913628,-38.3910266092341,-64.22049034308608,-30.44415296513079,-35.23233691080772,-68.07294086971807,-41.9304512788926,-25.30396207922609,-62.70306852407172,-52.65425958542765,-8.451020385907231,-25.21307296944814,-37.839802229991925,3.268179475802196,2.8730169189482524,-24.89362446266422,10.196782622468994,35.61986259669991,-0.9622209201712018,1.4860718527739438,36.338200422011646,15.341850357102665,6.355537973289406,54.525961889626295,56.076311356002634,21.138202106396683,43.757965992193974,58.65939699359229,17.904914480934927,21.592022072130877,58.783724910075804,36.928086582925005,23.168062634399185,65.17844433680543,60.73583383636047,20.999412189646165,42.34163469179877,59.18517510358946,20.12324558210062,23.65240407792431,59.2549198165509,34.68711335108762,18.666100931353245,60.7458546537433,57.77313770816386,20.28907170280943,48.142152561558454,79.15644208755376,61.63410326364418,91.4357344550641,152.92088721168344,147.62082857663603,142.95661257938846,192.57940760557008,194.49478477744864,153.3452246776695,163.29046441439215,162.91727447899189,104.9494977610196,92.51857525890225,118.2426361725418,83.35855241121217,48.13304959507623,65.92297714928328,42.21482007168736,-12.365942140345862,-1.4866570451592551,11.176508783683312,-30.607797385450024,-32.85722059684922,-2.606011928387698,-32.33302413719434,-58.28136979945778,-25.860777340487324,-31.623418634289564,-72.26239836514077,-54.50339435750408,-37.44410146019224,-74.98583869366237,-73.36001310719398,-38.00715770282588,-62.590794357220425,-85.75780655362705,-50.42022502462062,-50.89331413895288,-86.53112954835227,-66.87981989677502,-51.249979300208835,-91.54946548303667,-89.7619077861148,-48.515969005085516,-65.06819264902089,-84.40248927275692,-50.22140997713027,-52.70669614489597,-86.76910756308185,-58.78117371822549,-31.22874756640418,-65.64508422120561,-68.18039938586926,-35.86196855879744,-59.48376192835895,-81.87967012031051,-47.51536782493255,-49.29056435903738,-85.72797520483292,-63.41248391007916,-39.97779876094266,-74.3245321152391,-75.38325526454787,-41.93362745859676,-63.79141266318005,-82.64895537518781,-42.911025355144176,-39.8989006664942,-74.69693733208676,-54.001305152240946,-34.46024050469778,-71.8096048850863,-70.84684330734157,-31.935273313344204,-49.73252217580063,-66.30057912076455,-24.90272348082689,-22.5250935513859,-60.78099822214682,-43.83848003834888,-25.786729707673402,-60.09235745375317,-50.538664414468926,-2.106505262880841,-17.07584920544138,-39.59078343027262,-7.90716309776119,-11.40485450178511,-46.30659509445095,-19.500524604775276,4.381843636561392,-35.41097357250817,-39.47561304054206,-4.030563215117455,-23.646836351368293,-39.796084722608846,2.743296380419313,2.8111394097503073,-39.04511770025725,-21.31812715875691,-0.37059330851075334,-34.47003277680644,-25.952922510837883,21.829384490361498,6.23144683834877,-13.724582688587951,24.16780409248789,22.579586065619345,-18.51316597226326,0.8110270470994578,21.501502510592932,-17.273110133601868,-15.637737535995116,29.032626555791463,16.217810912408638,2.42187355119001,48.56030867299003,56.795256781828066,24.670474063221427,52.067525062931594,83.87178738549622,60.216890342264115,77.15258921493489,133.50908059652141,124.68410384128099,102.91653199090001,130.90764225255285,117.85188769634215,65.82946680354507,75.15781413082651,87.64644169902326,38.365280934221424,23.562428428328893,49.23251200758177,17.540581950441727,-16.399540802942756,10.016596419208877,0.7516356628861498,-49.03079363298635,-37.43409913078235,-16.853306555199083,-54.234378585223276,-58.116649983755785,-22.380294490422727,-45.25261895447731,-72.57265146799001,-37.81703700626934,-35.11597769975123,-75.33785513173062,-60.89730693191886,-40.16902245937629,-75.72798036279352,-75.62054441859065,-32.771505016883445,-46.54730406861552,-68.0253906336706,-31.79076034099851,-27.751951580405777,-64.69094724053608,-45.05194252104485,-17.849057032444435,-48.86235252472462,-47.968317710827556,-5.982829531750122,-20.862896445467122,-42.8113807316071,-4.356397892267214,3.173905423931906,-32.94013937811104,-14.842189450880896,10.929271201119494,-21.671007534865726,-22.287275906196058,20.104059756065375,6.142083874154576,-16.770834611303435,19.94264206645368,25.545617391232966,-13.78855561742953,1.5594880666195081,27.722121693634836,-2.1938257914359163,0.02169397729995204,44.537589179155326,30.651021569850585,4.624923496668865,37.929761270971916,43.64026938536195,6.475486955675855,23.134455701559236,49.58110754419374,18.148256128804647,17.09103700251928,60.10232992621734,47.454327846423695,21.4281366055316,50.80436012588933,49.70681771790812,5.898157081752526,19.98926127184547,49.84925519947148,25.439650102407484,30.60042323710153,75.95141422276276,60.89999927417344,29.66509349015905,55.20672272443908,53.72659017967979,11.357502673724092,26.39599380009635,54.20383058871493,23.23106410391696,20.155839353941424,59.684132368295835,42.290358513392036,12.19624530941392,42.0259031737659,45.47143222841423,6.264568359536971,23.07615379903783,52.08398876200499,21.706127182744815,19.74335021610959,149.9705690793117,124.31257250526757,71.84154617055015,22.93031308537527,-16.26240696879681,-56.06596606686134,-76.5083291052426,-71.51726900852496,-70.40829013573799,-80.56059710184016,-90.51941083525656,-111.76303055354254,-143.408113533003,-152.5487720416166,-133.8479178140149,-110.63336898192614,-85.23810895241189,-62.9924653449346,-65.70066321414778,-81.53549218953331,-84.904123214277,-89.3192317579916,-105.54563997015435,-113.43473631508226,-113.7252344167697,-119.91306368106342,-114.8152468289444,-93.28374485460847,-84.3385193314164,-90.4152116669281,-89.50592606318813,-86.46662103434481,-85.13226597003283,-65.68410997470772,-34.55367333727016,-17.7003750706372,-7.87631127614806,6.287881314124337,9.036597578398496,1.8224367452008337,2.915430983602106,2.6626173866572853,-7.598447119845913,-9.474053364168451,-3.9551208960405804,-8.461752718828102,-11.981538826224302,-6.347215438366965,-12.140865812769041,-29.973548961671604,-39.574789955765524,-45.03159599545059,-50.03886681692397,-35.348920329225024,-7.341342066851799,4.4493966120925155,1.7428428223266743,-2.7386940657334193,-16.75872352020534,-32.773629644971514,-29.684697807215763,-18.518287745306708,-16.792351013378045,-11.198186372263304,2.14108240128364,5.68300872779207,4.421739347815054,9.573908163686827,8.001164689747908,-0.6641947066021245,1.6490836354187735,7.334567761940316,3.330375834306686,5.802680664022459,21.154009211150104,32.03576077852704,38.80013228172614,47.89238815621796,45.56820041780199,33.809363432233354,34.341135830662516,41.94136605278999,40.656635458982954,39.229576024033676,39.99958331524073,30.25702649682574,19.92727690330352,23.017591144564825,27.135503908480004,29.1645862798337,42.694121976743936,56.987336757142934,57.586165496412015,58.83408616279793,65.02021324735458,62.001174014156206,58.58643445548535,64.57553798591462,62.09385837049756,49.48502019663961,47.189194783686865,50.342722461116026,48.41984669167088,55.60722839622463,69.53785089226669,68.47797686325256,59.88570582583881,58.31751457015589,51.87074634851291,41.76353816213426,46.30690738343516,54.56747927895134,48.951515582508115,40.25844249076607,30.781230454245033,8.310329653139284,-12.611891303949028,-16.403114269330885,-22.030968238603215,-39.392982352123326,-53.120745919333345,-65.43104864806544,-81.95161255417558,-84.04786360975868,-72.71249189193922,-74.71559993240768,-86.60414661993468,-90.2504861611536,-95.00427814261552,-103.91505805964913,-102.38190752835783,-101.45333143417211,-116.8040533110019,-129.34829037982678,-127.83365438271449,-129.57898001715887,-133.78210172992448,-130.46200723100145,-135.92599282261187,-154.96564358136374,-164.49813404617237,-163.16679294633906,-163.9044492294502,-154.2196740357755,-128.18539763883106,-104.10336116944022,-80.62245496253041,-47.49454003411793,-22.92777758904628,-15.399033813743841,-4.322934212197081,11.828441907801324,21.185875530727333,33.84100283819802,50.38665967651906,51.38120937922675,44.170638023157245,47.69058204295853,48.543108270546966,35.972298294336426,24.956102713245492,13.538896879353764,-8.178153091144882,-21.213922152604464,-16.95650151710901,-17.51444730567379,-23.381645932434527,-19.124273514294135,-17.47280020288149,-25.497351366570776,-23.847784819513045,-15.873334894346801,-18.017541248032323,-16.21701809441388,-2.5026235148123175,3.5401829788381187,3.270929978313914,11.238583871092368,14.755119301818382,7.720833543816762,8.179457628690196,11.488698012936698,0.9267599511237341,-10.347069554964648,-12.645321638105703,-20.627061021966934,-30.20427254728471,-27.01963620289084,-24.208605932352555,-28.91059698382958,-24.345261697450418,-15.525833939885562,-19.667971249124577,-24.7048780778602,-21.77636103479235,-25.57826336747482,-32.248751463333505,-28.617808911258432,-28.466825597913854,-38.43778534175603,-40.48672286406455,-37.18159247586704,-44.00062209807951,-49.92529959702674,-47.88270846171023,-52.98285856124233,-60.32323434480679,-54.99536268895204,-50.95063661470487,-57.38709127615131,-57.915674351566324,-53.223500787135386,-54.03180731949789,-46.48807974027467,-25.53239570470182,-10.338863305302539,-0.4146050932036933,16.24802845698221,28.289029483546926,31.632402918982688,43.487641057446304,58.50104626764019,59.47202790703302,57.565307161684814,60.927625108162204,56.40785211030189,50.88575913669976,59.48300625243558,68.39648674148303,69.87458449125594,80.32643988612894,94.56065746867063,93.8546620560642,88.60483425785513,88.91149429099639,81.79042397657405,71.18299344688384,70.58090977972995,66.30806527990174,50.84033536116051,41.77408355057703,37.55301210209285,24.69013923172731,16.363107111369715,21.407341333291637,23.40824785265039,20.610649210905798,20.26946373264907,8.623971163498974,-14.866954436955508,-26.82443455172341,-28.303667026093766,-35.035706129553766,-38.289176396878695,-34.25579406120336,-38.309830536768416,-42.9227259068173,-33.36396490776801,-27.648604633448862,-36.79996550711038,-44.24216460942061,-52.001437238121085,-69.20380544209704,-76.13082294054243,-64.92819018529404,-57.57223328619682,-55.971111926674006,-47.44092850250381,-43.84460955388544,-51.18607753776752,-50.53545270814681,-42.19526603432501,-41.0937317761336,-38.03299844294499,-27.975974213251718,-28.190045664057216,-34.72241119436282,-29.566898963155744,-21.50123114930666,-18.224049936371227,-6.8170920472747465,6.726028316233656,5.601607286990101,0.19554303852084787,-0.677404229632111,-8.86376345302769,-16.70871559295257,-7.629645323048161,2.6126422902625364,0.28940034828363403,-0.5943125907014764,0.41917082475064704,-5.245365622420406,-2.0824866808476883,14.887387903408566,23.08362698717775,20.78940517825702,23.637231460595782,24.550158926681807,19.8383035093838,26.999184772360344,42.568265043276874,48.61837297487493,53.898427213680854,65.94321953458979,68.77046964003078,64.55379775583307,69.06067463719035,72.15912917487114,66.53809044758128,68.31376863701708,75.32571344354582,72.64488582382717,70.12681922071404,73.94113465259804,69.40837759342739,62.15783742549603,68.5012205062392,76.18732485142489,74.61857021411058,76.09496024482286,77.03302655823707,65.6793084446812,57.775289135791574,62.73674605013526,62.5400656352514,55.7700442440643,54.261430567138596,46.463976765170344,27.602798021066555,19.519381904540012,25.164790541746743,28.462285834386353,33.80096697017868,43.562561041676865,40.393001161336485,29.127914717605186,30.468487970668516,35.95735329558617,33.68577148625571,35.93650898401604,41.64645626395835,37.814510209078044,36.31095982963701,44.58954858232085,44.147321283780656,35.67430280003253,36.776916586322436,39.97643078707181,37.961423298862194,44.18241045195539,53.6236506993511,50.45892295641853,45.85534407519639,48.25918076696332,42.63485548459441,30.562085281715902,26.09124342655786,18.833876853663703,2.0872614748944613,-6.043807241725863,-5.018623302724382,-10.024942791909796,-12.844584116220732,-7.706788002531955,-11.869572278411725,-23.10774403183395,-23.626983911450036,-22.734326990576015,-30.138084986790407,-30.381115759989832,-23.539483516561447,-24.127110966551847,-22.10668238023105,-11.011116067138587,-10.10064969671133,-19.1875168554242,-20.33112301126949,-21.042955714523004,-29.13715192643313,-28.91184119710921,-21.90373350561681,-23.918799209458967,-24.266013990247835,-13.74417097752345,-10.039059413288923,-15.359904473672191,-14.996242302170607,-16.82580467298054,-27.037128220465842,-27.61542184802924,-18.979843252141045,-19.70489690463075,-22.793869887889638,-18.263824756791255,-19.33504558817623,-24.53872660128311,-19.643909115494505,-17.97799309104005,-31.413245392444356,-41.642729990972825,-43.13211175868436,-48.208093171207864,-48.473621484007055,-38.862659491534195,-39.56528140555015,-51.15545571687403,-54.164138893188436,-54.197788145713815,-59.78244869413993,-56.610116260254166,-46.98323649219945,-48.22795816588367,-50.43332521173631,-42.39839729054654,-39.56173801551425,-44.094968807135295,-41.76314958041377,-40.36474709146577,-47.27952297833279,-46.332486332720315,-37.67011062616031,-38.69711823729342,-42.08009935644479,-37.31708766148491,-37.77436649360041,-42.981140065556815,-37.404877305796035,-30.773640827985524,-34.194175481340814,-34.09208888035912,-30.78018116819593,-37.67980900124863,-41.57181959579376,-30.158831776392983,-20.049538038263428,-15.757232662071125,-5.107834194762694,2.7750742815055993,0.18033208691805447,3.504683907714635,12.692777338636619,11.96263640843678,11.189124999369316,20.33911616253696,22.334255937433575,13.946028752290044,9.998288419245963,4.864143212512371,-6.3972900707670926,-6.479483613206419,3.7057803027529137,5.481070794262596,6.075386562147416,16.522726977978078,22.547943281503564,21.87769195908792,28.0286065358973,31.4759934040516,22.792398860681534,19.18719992178736,23.887710033880147,21.477945725579964,19.293837528219708,26.57507895061529,27.03309192952211,18.387327951265554,17.431921321494915,18.271496524314237,12.005903129863974,13.318684375795968,21.414784716552944,18.38093148812224,12.702915012781807,16.55755109184402,16.266346954925698,10.36641286788781,13.046841435687352,14.562262542530021,5.104263227756034,1.7208444685486461,6.748837630410579,3.1667082316102033,-2.3215673871571605,1.088913030784823,-0.5676942959613038,-8.060146904147652,-4.25842722793843,2.5125465021802658,-1.1994533243774472,-2.2676458051213104,2.049949708627908,-2.4217713635183253,-6.523844025769973,1.209172598315825,4.843578499687156,-0.30406294655032795,0.22895507015756555,0.4020786651785961,-7.844403612527255,-8.711984609032578,-1.3933735668554372,-4.138313244883715,-10.71389367107484,-9.491009963406604,-12.9239236696753,-20.76434786372644,-17.164493043140965,-12.393099900286906,-19.035614435973823,-21.538212107800078,-16.302842633532816,-18.683713907549144,-21.71314953972943,-16.13608111406317,-18.05115800599481,-28.385102522041347,-28.15270608818264,-23.337587031041767,-25.669437897211985,-22.01630748786846,-11.385951531682732,-10.391007689116572,-11.852452041926504,-5.188922228220445,-5.577224948130706,-14.799851424019977,-15.155993791432586,-12.752617550852317,-18.35497349725772,-17.338003292112234,-8.096509481147857,-7.326212744066832,-6.922824274293389,4.426425280132245,10.257520887446237,6.615916276439533,9.447817290928727,12.133117744664794,5.736346716356175,7.846104505648057,21.01785171333987,25.460711454599515,24.506191051897325,29.0599663337044,28.005253649555037,23.64548588268949,35.413851050949916,55.06758927063563,66.84516579503382,82.9790035643451,107.37284906935832,125.16486577382042,141.7626010250056,163.16799408204946,169.57344278816964,158.39793395408327,150.82962804138734,144.75519098890197,129.54843373582065,116.25073281162207,104.38075805881805,79.52480897588322,53.704617421378416,40.59250571018999,24.2260718790333,0.2878392607075071,-15.298751198402357,-28.51693954048519,-49.43837156448412,-63.86061647239088,-69.97025564744585,-82.7897872259068,-93.56479247776964,-92.13079367689707,-96.40842661912427,-110.76215119679652,-117.1347563423075,-118.50406387786943,-123.58343323664894,-119.82685340610936,-109.52525320548722,-112.06053037232957,-120.07464876446583,-118.90026480672577,-118.7980046616479,-121.1656956604707,-112.0846456039379,-101.34637208185282,-101.99550219481449,-99.42100782791687,-89.30269398156348,-87.0555881555114,-86.23970923027022,-75.31223923181383,-68.33005898850925,-68.18084798487396,-58.682705078470406,-47.785848849719656,-48.64321081312957,-46.6344555465605,-37.37830795002455,-35.34411065974856,-32.153760732291,-16.885925069433817,-7.181787459210913,-9.257177630116624,-7.368530245413461,-5.461616251249945,-11.496010062044443,-9.13243384880924,3.8153053860154764,8.05126239966997,8.977053848212307,19.166072016251967,23.310093706209596,16.919839063978408,17.407738741585845,19.929235102302606,13.387255646885563,12.49154488152283,21.744117273880644,24.633642329953002,25.16008933319776,33.95496482193526,36.23851389281037,28.11628969131811,29.046645481504896,36.984481683130895,39.342871967058315,45.70218102052063,56.161312092031075,54.02436711214375,47.33689120609869,51.21370469253277,53.81162623847176,50.64532799682843,55.711437263328115,61.14867346041628,53.60942598080865,47.76126897773258,49.91867229559667,45.359047995314505,40.19984132514105,45.97537551118741,47.494535307133646,40.35543533773383,41.197956618140545,43.787438064785206,35.81518979717905,32.744998970026344,40.120416792973934,41.15137276987898,39.581208968594055,45.66888085591964,44.26823434068589,32.26966460501997,29.964284570803386,34.2114381840346,31.027475070518864,31.738911518073714,39.25450524628956,36.159524902678825,28.338596748459913,31.024052007456245,32.2464975297423,26.419014043952302,28.584035305507754,32.09328646259438,22.845819452780468,16.02127725377394,20.44970789165881,22.032099461103467,24.31731251505236,35.34372844244289,36.65323915191314,22.600242294721436,14.72041573776369,15.315474105682137,14.054741324774675,19.8379318439276,30.4612419762029,24.41954681373456,7.13943951455124,-0.643555949998106,-3.3039373440061572,-4.439483603672757,6.48973850924608,17.497084862199863,11.303022975521863,2.1449937742025713,0.4475189896264168,-5.444985822504896,-10.014155239924152,-1.9363394430252616,3.6124627065169093,-0.7146236128522863,-0.6389322342004362,-0.5355073914433163,-9.386717299991759,-9.461834089384773,4.548542407841383,11.551098497281473,10.252685416900768,10.493680740982432,1.7050182585283795,-14.524849859387272,-17.669989373835094,-13.124393142112101,-16.02063788108341,-15.375241667736566,-7.235765936410771,-6.522825134510058,-6.8888023225165105,3.765864593607506,9.490110054251108,2.8160215927756678,0.2999610268721547,0.44171986285195125,-6.17637963897158,-5.79170626865529,4.010734980974931,2.7619170650503344,-7.008941850733015,-9.396796447137868,-12.37325330921906,-18.95423319712141,-14.543846698746048,-7.392064992694326,-13.456671916335832,-19.61293322626696,-17.4690980444791,-19.119551221624825,-18.730005292728432,-6.847305801521853,-1.245519609415523,-8.9753409538545,-12.801185177659969,-14.689072581673255,-23.86747648442457,-24.621040166022,-13.040935104251279,-9.267772871150154,-11.444752450169293,-7.647676300312297,-10.773393370111219,-23.258938272829006,-24.851844117902505,-18.811321285355348,-19.87840208841974,-17.5671227669815,-9.053664355614162,-11.907679731120199,-20.202239781766835,-17.704878509855924,-15.837708830921017,-20.789088162727445,-17.39810224232392,-11.11819837803447,-16.088158808429863,-18.68387445009063,-12.734345058657727,-16.343053411066208,-25.71096431308282,-23.648613164746862,-19.615016330026407,-19.96126327772948,-10.767789431341544,0.6333550421671688,-2.2042238101865346,-5.935967295136851,-1.6540255024066193,-4.741430939381832,-12.139127056624611,-9.956709729778407,-9.836785911339138,-18.107523905487028,-19.65559388905696,-18.797399785982076,-28.034499923319625,-32.87744612584911,-26.149336584126203,-25.009637718696162,-27.443443774585504,-20.18544188898099,-14.996481697677156,-17.958874733229038,-13.751248490151092,-7.26420536756865,-12.850253016849761,-17.309413630551393,-12.468440407899896,-13.343018602700752,-16.448479438516237,-9.003302823040416,-4.907658044177294,-11.501291472461862,-11.868682739129891,-7.7598375290749155,-11.810453923575226,-12.207033326266735,-4.460589187815479,-6.264874683818238,-13.079613341803956,-8.235275816939286,-2.718617320029093,-4.953403326512607,-1.2607904935744412,4.587488348855915,-0.5435822133425798,-3.0673316396344323,5.221884727492846,7.154346722819299,3.1196711061315066,6.349745102027224,6.284567209281926,-2.2859284244831515,-2.2347816858864187,3.6838589758537075,0.5122058835103305,-1.8147812779599917,2.7271647166597717,0.05856213806903643,-4.749365566973877,1.6278528314647498,5.456588073324502,-1.4320521863299298,-3.261903417913075,-0.4116933188582228,-3.1039050711363876,0.4518887780156622,13.1622451420539,15.261845148549028,8.71495435511033,9.68103285322911,9.801318111454405,4.085554615392094,7.75645722047615,15.023442610091791,9.346411459075277,3.0365719354818737,5.291966950399766,1.7637239133926848,-3.605305672185782,2.8808792042293456,6.463491274704742,-2.764073420564953,-7.833283322431472,-7.92351974574351,-14.186449887078513,-13.197698679552108,1.3767425635241226,9.101194430941659,8.184198089304786,12.136419598633658,11.515575653186126,1.9442996816117168,1.86383826359546,9.530869757105908,8.67927601046413,7.218699261814392,11.115392192928262,6.664447320897615,-0.8561637288198081,4.1122258140508965,9.766357469239638,6.288257052575434,6.667628425590413,8.598287983144003,1.2587497246028354,-0.4629199179657399,10.776604886079983,15.150287156139303,10.687411404313895,10.07013934867105,4.189147355636917,-8.76350952931838,-8.456992201865072,1.3322180910797865,1.0669679585281961,-1.4146820461501906,1.695344255277729,-2.6582565189180256,-9.052750203351192,-1.983606453207381,4.848015784102997,0.16712808134500623,-0.8693414385926284,2.0370002576678283,-2.424109544388462,-1.4354174590162831,10.25940941509836,11.786152436287997,3.225509555686677,1.8494836665645575,0.8894439297486509,-4.871642248413112,-1.028884116038392,6.029803496140035,0.30156798559859244,-3.3049773554911126,6.158489046374798,11.350652986599801,10.266598682538007,14.474318286300237,14.102414927044965,6.07341104785614,9.631484089408644,21.977644551008616,25.218096170047836,28.562686416806294,40.83887376927259,47.96186442215908,53.57490501757655,73.7894419514106,97.48387643239224,114.73378163005673,137.00537545177855,156.59717756519046,156.260142863974,149.1534777575514,146.2254186798814,132.44166148246003,108.81323141913482,90.40382285044464,69.69206609257148,43.04675577804007,27.518203435282814,18.361248747696067,-2.641513761700959,-24.66664385468091,-36.23281330976151,-50.11408334591431,-65.42104863010934,-70.36081026769824,-77.32995909756251,-94.3779959331223,-105.0543747414787,-110.05983867431839,-123.15299744912954,-132.2545258788985,-128.04127569841205,-127.18903240244902,-131.41526197435593,-128.82071195463865,-129.69710376060095,-138.62000853807064,-136.33036124396628,-124.38948935444323,-121.04811376894119,-118.60311769017673,-108.51817966545441,-104.58327264354276,-104.01283031249349,-92.07919293977847,-81.44584716590995,-82.75651750920154,-79.88544948156917,-71.72803481455912,-71.30662049292353,-67.20075553422006,-51.461359106082526,-42.226658145605235,-40.77608655391454,-33.00500463008241,-28.462126682720857,-33.53726999324946,-30.621931523267527,-20.61123943206065,-19.681294862263453,-18.2288051420013,-7.061237461335066,-1.807562810340127,-2.61887561307248,4.639420075776992,8.87381977202109,1.682491872308864,2.0541233589769163,12.08794155830977,15.734744305874809,20.352384475856482,32.233065882012646,33.89624827786244,26.66914960243759,28.516729106801534,31.62465397036664,27.685632079126897,31.86654297829599,42.38200005655923,42.73315190594642,42.93123330942127,53.332193738270384,58.374844219907914,56.547035650021385,61.03767475715796,62.02906716162899,52.91546433188847,51.702679835471066,58.558309068061384,56.8465795837026,53.72294232040938,58.00502221571394,57.284153950614574,53.650639195420844,60.44050950670763,64.80172569097451,55.87784666092021,50.46370042316451,52.03482005181807,48.67847339364101,49.8144248879105,60.33798031493572,60.67262941782694,51.096305488560915,49.663249573971356,49.71754325591434,43.55842169117398,45.082062842137525,51.300885126640516,46.454338757173375,41.840124164293115,47.877225322644854,48.107473031085505,40.25124850665388,37.907435433265675,32.107486635128495,16.31896819522551,9.16505264578821,12.125960989863774,10.058851423044892,12.117785468096772,25.96869307385738,33.105014248325475,30.551080709468934,32.71124143561911,31.947238809203956,21.795088158347035,19.634231818242736,25.0478709068977,20.72373102609686,15.876902238449144,21.929134509058976,23.860728292749627,18.95503898462345,20.606020384372997,19.75898189546683,8.161923480164303,3.9110877256996464,9.82181149174224,8.83189302109336,6.000751298942253,9.383161444146953,4.864415464946639,-6.5094377838236905,-7.4676158838276585,-4.785839141119362,-8.126287706127787,-4.4318811935739495,5.2336904387363195,4.486184104315113,1.8842983967456353,8.068774801098822,9.155320667400147,5.428441315295261,11.260926167814803,14.339285876522215,2.4668076795326717,-7.831846376835419,-11.131581960652884,-17.691359900043068,-17.34004058197746,-4.125839937422916,0.47089459502599607,-8.646449336777795,-14.49845135784308,-19.494505078081914,-28.675552870962438,-26.688665633658896,-15.188948933578057,-13.18267884456472,-14.088499172626143,-6.866779973350637,-5.022202921978319,-9.765761357008218,-6.037567408402471,-1.5902737268308873,-5.407953387565249,-2.505858439712769,6.513800572338168,3.7490823988961064,-3.168006751959308,-2.1410341074375703,-4.592556941323042,-9.578164785559034,-2.9938053181073663,3.254455763560702,-3.5363496029276122,-8.848726289247523,-10.379980350730774,-21.078640742416997,-29.025785987046564,-23.00668887860156,-21.04373722607533,-27.430530730242573,-26.977229498541146,-26.758032546608597,-33.85338076039821,-30.006643198163864,-14.889415326989624,-8.965733931994956,-8.145939740424254,-2.6799020643395983,-5.123033913149537,-14.41920842650535,-13.400442299123252,-9.928651213548406,-15.946410443981186,-18.403922363153242,-15.894904842617898,-22.157837196623877,-27.098370127310112,-20.792715988463645,-20.088826512763664,-27.623922065347273,-27.496088386382983,-26.485586277029956,-33.80255091792202,-34.802590070446975,-29.242820096354677,-33.04088253471311,-35.738885342860826,-24.793866805872234,-17.608379603744833,-20.371223738376255,-18.133340714187444,-16.202954361430944,-22.081077483779286,-18.860964534252147,-6.298562058276864,-5.034399015591407,-10.057832268279373,-9.760048827079164,-16.734652611109706,-29.284145938211427,-27.466851392822107,-18.9962890327287,-18.8907032653525,-16.528367532950558,-12.014357531615122,-20.531804561792967,-29.940045635915535,-24.79517829654393,-20.418645733426782,-22.716684003309826,-18.11235786855399,-14.797002736223124,-22.44360855842725,-22.640899042591762,-10.364313216890242,-3.5111526471131342,-0.0892330532915585,6.793844828012938,2.215175318882878,-12.617091498294798,-15.521432326294114,-9.9784433920744,-9.705533236341653,-5.969453053301181,0.221016647054602,-5.893824005958592,-13.032308943955124,-7.026474205468665,-2.1285650787802286,-3.6875165884894145,-0.12406408985687012,0.7620803417350502,-8.529559984909813,-11.232665538831487,-5.237835512274607,-7.1050726566243085,-10.253030385270037,-4.124604822843116,-2.653402231387195,-7.248217125671815,-2.1109634997428453,4.124902541494002,-0.7885179310985762,-1.7906620149948353,4.563862262040187,1.9680041120100507,-2.3716099636448775,3.3750986886800427,3.6683964354917946,-5.0791831350905685,-5.703707466150377,-3.7998660989084607,-9.799116787190396,-8.765579891889058,1.6149744523856828,3.750820430053561,3.0731920439982003,10.506994910943595,11.740043747968866,4.706810260198482,6.684346928161236,10.800367493922707,4.935529068963511,3.451241031699233,9.154427868627854,5.5452466870281345,0.12172078331397906,5.9861871971363305,9.155197651600469,4.962739847542633,7.462328702869841,9.345151033034163,0.2550409383273058,-2.425308503382859,8.060334123705385,15.084869630433104,20.152887197391223,31.13426892031317,32.99272247134638,23.27509122133653,21.30791749657241,23.569800086936624,18.115369094200396,17.832573611969305,24.681458345860158,20.635134103265155,11.414173314837043,10.763250595011908,8.610427193575184,4.38859053597705,12.644414173746952,22.015003523748668,15.836242469790413,7.262055884802144,4.12749773201481,-3.69793277462172,-7.198885956072846,3.0347098429220734,7.472388921303541,-0.2977658875513103,-2.496636030316848,-2.5810075008555113,-9.755865288739175,-7.648702840946463,6.6894137551647255,13.583716616830609,15.980888675170542,23.906181495550587,23.03913303910053,11.979510247540112,10.619479812375873,15.167277619355353,11.995975597857003,11.412203072616379,16.59075941480496,13.302018707477673,8.477296812206738,14.279329367238066,15.604784065047976,5.564568180693279,0.17143382993163897,-1.6113647814780965,-8.405646076885121,-8.052930894197708,0.36126744875083316,-1.3475121029253605,-8.17373295700749,-5.810230346949262,-4.692425151099119,-8.54423630034094,-2.9930052570975314,5.212543241627443,3.186344395997538,3.8182281769138746,11.180935510206258,10.647177437625185,9.640378505873002,19.472443801281266,23.436097760893254,15.963804537188285,14.467727389971014,16.155960269763863,11.273898388003808,13.494567475895769,24.44051425924473,25.00208062274465,20.544571246098343,26.607863609280574,32.835831068759624,36.56148635918336,55.815493066549436,86.3810457797984,112.7723471357207,141.82816186166013,171.2599333089015,179.65686960090244,171.24932750433712,163.75581753633188,151.50029029337819,135.0397241268833,130.2202464014411,127.16745909195026,109.03892744918454,88.14545583713284,71.50430945607512,47.73453119118487,24.6981863543025,12.830281813659044,-4.148427646377986,-30.80329820239626,-49.24151719541668,-62.471408588794844,-81.68370743181273,-94.88710187759148,-100.09640811030637,-113.91786115120476,-129.74289965998545,-134.27930239142654,-140.84041179958015,-153.46979288518727,-155.73444180090385,-152.95022473987686,-157.164789533722,-154.9219576089426,-143.30090206208484,-140.65173289909427,-143.02781301232648,-138.3074101803873,-140.10239070875477,-151.58175445370637,-152.13155420338265,-143.1541488842251,-137.83197224506762,-126.06125996568872,-107.5179217928366,-102.34698270308144,-105.11713139172528,-99.33883430884617,-96.22387193973194,-100.72426048381183,-96.3491139461924,-86.60381648598819,-83.18607131227162,-73.71368171132265,-54.96460686490586,-44.51704422934417,-38.79044410017586,-25.611481137395746,-18.229390550178344,-21.588696128453257,-18.320285917751363,-10.576313185176407,-9.758196671010351,-4.849161032033139,6.028573125707813,6.116544724988764,2.0591087233631398,9.008722177627677,14.33094747340032,11.710490513544341,16.64308067630789,24.497057491785206,22.513458139009806,24.316845783977307,34.61065971875683,35.18426651238065,30.6624671395304,36.553794297816,40.81198728726346,37.82218439624959,43.83462954848041,52.81194790047322,48.806808375286266,44.21376178333978,47.20450340479493,44.511307414299736,41.53604047192776,51.24059543900101,58.68284645923806,54.404720198427185,53.09371655144115,53.674676770460245,47.28557355527548,48.54629202741098,61.76094300228095,66.98570970707547,64.39550024120814,66.74187446389598,64.54429345733284,54.90157164777135,53.80957369657767,55.74384090652396,47.19068851879875,42.039572102248584,47.92895687592919,49.58220259223425,48.5749927012868,54.571657693363,54.289581520814195,43.42063131612038,40.06581915517761,43.22591742092807,41.29684969053206,45.42650999040311,59.079408099219,63.51022775694712,59.52641016881885,59.65741038714814,54.73135744995566,43.982387584347364,45.923259017120635,54.969012074335446,53.49847065966121,49.430926694252534,47.92027008138442,36.89512387174916,24.25010295524485,24.886314543131306,26.502640983455176,22.430181007976973,26.945156980098602,33.86437970464324,27.877440722702794,21.67305267900383,24.081925470563178,21.70219152216559,18.337791038314617,25.304747722551262,27.655829009024853,18.605028577946648,16.56887663904646,20.90441494765474,18.073034236398193,18.02845332626496,25.489327072639753,23.826865443331727,16.412909948418694,17.892800140656593,17.610117568951733,9.858474884129624,9.792724064919621,12.709812628197009,4.759356775234689,-1.0996189800696166,2.848031065348483,1.4427813637866507,-2.7553790684006296,2.304595225123533,3.6770404793128515,-5.023100901284283,-7.256870633203086,-5.662680273670572,-13.47043136970585,-17.626201218907028,-10.497371705399305,-9.265390262635929,-13.164480292093762,-9.21500978891719,-8.963517824507777,-17.541234038621493,-17.286221048184117,-12.04862248966737,-16.590821971652748,-18.138725803903235,-10.332067687382523,-11.250506512099983,-19.59387496428592,-21.375714401008615,-25.253505091815196,-33.67961913308765,-29.666118355680617,-19.169841010959978,-20.125734886237097,-22.758004192536024,-18.168498136382468,-18.275344609851494,-19.6794819792285,-11.445985999836385,-7.623366175068524,-16.14705284106187,-20.43977297249575,-19.37618856532038,-22.994716652725593,-20.006499075115403,-7.004184626550421,-4.026361310132379,-11.42424344990501,-15.031862307141594,-22.230924107509722,-33.97284554125637,-30.96754500312364,-18.044745128393366,-15.035823832959693,-15.932673929638149,-15.530496828944006,-26.265919934868354,-38.55038289665864,-32.826419215381044,-21.895895590332103,-19.9559692123606,-17.043979214108777,-16.22674980733006,-27.24877569705653,-32.30424493136386,-21.103497639164775,-13.20456938113588,-13.202867773087188,-10.707078696856668,-15.111135637083658,-28.388389990228877,-30.45960209974877,-23.810332029297314,-25.486345991262368,-26.433388289463707,-19.80860519368506,-19.672702836516642,-22.048397589342756,-14.59731791109909,-11.65407242161371,-20.554915431038875,-22.888046051087418,-18.3373290964943,-19.96245916638908,-17.751876157556136,-7.513275439653589,-7.999207133911662,-17.181156865431383,-17.870636755386798,-17.660538670377715,-22.3631663098863,-16.699636926596035,-5.306139995655356,-6.622317123617607,-11.166744516164806,-8.023143852213767,-9.873310930755967,-15.319316218252691,-11.537395521759471,-10.61966803000648,-20.311326688589435,-21.97537662001587,-14.35089075218038,-13.18473942699767,-11.652743433668034,-4.320760278843432,-6.4578507782258106,-14.103321149259013,-10.559295054321263,-5.785207665365203,-8.503030713448785,-5.1151567454585045,1.0251150360077619,-4.165370997153983,-8.598134807558552,-4.106603054880555,-6.820047451523392,-15.122371700223006,-13.598638990061596,-11.51072696459109,-16.122103625108146,-12.754429209164588,-5.292897978276385,-9.979907360768358,-14.861557696868125,-8.925233371726588,-7.370306322645657,-10.513138655264902,-5.301702989014172,-3.348857963408114,-11.129151799653567,-9.165538290762171,1.614742720679041,3.5227830581852495,4.392764956015248,10.42762685469944,6.3685677440079616,-1.5694912644195593,5.098869896955009,12.986076676164636,9.17224932196148,8.066256397490388,9.133013358165782,0.46839380980242806,-3.884803009170664,3.5287871185403388,3.474952929580271,-3.4075264697372853,-0.47864315406725755,3.468653240514561,0.8987021150114813,5.770862298883267,13.318345306802826,8.117398082802179,3.2612631541113775,9.106112454126261,10.505255025491836,7.806555337724426,13.041435143157738,13.972960247074832,3.924316495683621,1.6824586496429164,7.988626106066597,7.465049679910086,8.040040111610242,15.874917872884005,13.83876718993372,3.5883309618801564,3.267602376893567,4.809046365479816,-0.7158543167761167,1.2780591857507024,8.138378593066017,3.860479748862878,0.03641218577164529,6.478570532094154,7.211064355426842,2.875177771146363,8.210636378844082,12.544242079026054,6.829876852691173,6.712314273045359,12.179030256956446,9.486115858289008,9.578330941618475,20.1804324641957,22.540740735269118,15.449548674303758,15.693438226832384,16.349526213930247,10.129799294706125,11.604696525792772,17.075529621011295,9.624985394878784,1.504312829856595,5.311390512449561,6.616906064173695,4.627161777694857,12.095836683195644,16.980290470368452,10.121875124743811,8.64869674301296,13.591087909149762,10.54183774528513,9.037052002044794,16.983299663928662,17.923881151504705,11.595731081408974,13.358125348355125,15.241451132452639,9.783002466711121,11.871732099466223,19.307515352067107,15.60684756342507,10.460587120234482,14.841852653653197,15.987685104895824,14.64800910668148,23.07518069993317,27.549345432937262,17.190663448864644,9.434013372935665,8.49154342652996,3.2201123910109835,3.3662141473985323,14.114325615884834,16.21467465743548,9.006656593043918,9.149155669152588,9.697021004214074,3.4307232579526525,5.1383697008673845,12.667941439849187,10.03618397646267,6.588412462610506,10.51259075846165,6.132278390920288,-5.136462063851913,-6.010407435430862,-4.091107624975584,-8.830512226452342,-6.938432588994301,-0.18402359998085105,-4.181999686866901,-7.919939916019439,-0.036228695984215076,3.6486088731618396,1.2449426337901548,7.435779566582951,12.834470639773992,7.636676620933233,6.934653770878637,10.975944793133296,5.518836568602559,1.9330168657536442,10.77376116148927,16.075654631099695,16.55616002586617,27.824427432583374,43.31249874064994,55.89925283194131,79.89444515042968,112.27696774935782,133.39012702653557,147.88871649075887,162.89794783814762,163.2525590653756,150.01346308494215,141.10685112001644,130.52556206329774,110.66252167063465,96.66220091984037,87.41127505941071,66.75419650003684,44.65605149945813,31.95686490608522,14.224488493154421,-8.406334823623304,-21.150808798005922,-34.4538016954211,-57.94792794216328,-74.68869844557732,-82.40334083804578,-96.26801074500233,-109.01018889575829,-113.16565488688221,-125.12978557224886,-144.54665830509998,-153.5100542192768,-159.0931359956786,-170.63794001815546,-173.0409702894113,-165.89653523335022,-165.61669260680318,-164.64653726484806,-153.87354456261494,-148.68298191660813,-149.16463539417612,-139.14534591683633,-129.36912510122397,-132.55658835915185,-132.6615206305995,-125.5508870893602,-124.5599766356313,-120.17367951248474,-103.70567580965555,-93.2691132080318,-91.30526887168524,-82.36526932955857,-75.45619475286918,-80.20984100973332,-79.40470665615248,-68.92387707288509,-62.5071157209942,-53.680983571653194,-36.88520407392315,-30.13761291624302,-34.113706945910245,-29.991931646597656,-22.651350002863865,-21.039589665840424,-11.475157280611173,4.826740330673452,9.967103141613583,11.13991267644752,18.594269987146287,17.73002014728218,8.79602041584462,10.20893875695691,15.465144947659516,14.405432592156828,21.12011580386168,34.94209167868756,37.59390100457954,36.49516327076221,44.26687498583735,48.3699530192644,46.79373201694907,53.314060410443254,58.67436304139601,51.97940945121799,49.28049262315696,54.77104493281284,53.634937316994595,52.47708275276539,60.81677024205508,63.77448859178565,58.94766804018582,60.78479585059876,60.76553444871105,49.585032124296944,45.45913961167257,52.77096032849685,54.735592701797074,55.853834417341716,63.93502613338624,63.695758059610085,55.22231053972099,56.48213428870008,60.065196794461116,54.45392387936292,53.99831034234688,61.253439490430296,61.07158695150678,59.69964794786166,64.83982292247407,61.0559869263853,49.20326315635003,48.54336941128764,53.0051196859703,50.1709027796441,50.437842743064834,53.243486476373114,44.43991235391403,35.5558933208164,40.42534463411739,43.89563755181874,40.5310466969084,43.34725315688327,44.15841309948292,33.67095492081091,29.70648550418629,36.77784072703209,38.49377078210632,39.536861758593915,47.48614013370254,46.18179625997125,34.5815418802689,30.623338177202125,29.194402342463544,21.56212388259363,22.209418671278094,31.391354265276938,31.475580457240426,27.869842477959494,29.722013934205215,23.82671011406748,12.241449499836992,13.728036355504349,20.094977470630663,17.596277044533274,18.16812687145096,22.959905792303317,17.34585428880645,11.45357701528835,17.28543585117684,18.397059613884668,10.877066731739248,10.815345965698524,11.455966274850143,2.2295399052044305,-1.5886022244761386,3.5432439950363266,2.438682846981437,1.4435227901092056,8.96927719145509,8.280110404764851,-2.518996502171637,-5.230692668208675,-4.473144643140891,-9.488072007978566,-7.236540852831774,1.2651010593268843,-1.4091564115938935,-7.977175012093338,-7.119426598335908,-11.925353825427418,-22.555221520827985,-21.778898401319662,-17.231637478268425,-21.434706881479514,-21.18630183040619,-14.54336940555432,-16.680681248027113,-18.776235670248973,-9.530415560128755,-5.788857889032688,-12.550333308462315,-14.13951774407267,-15.870970298644234,-25.63410423757469,-26.060802437871615,-15.389407053509252,-14.07482032221503,-18.789737523411528,-18.376876914895533,-24.185119101302085,-34.59461881610062,-31.117200475795137,-22.193228655392804,-23.48781343279933,-23.784753925000537,-19.253134893325697,-23.19170185229028,-27.581646421831415,-21.008377086309803,-18.892188501101906,-25.769858504846084,-24.713228234789526,-20.234282313428906,-23.921487557560784,-22.55884094961337,-13.803260085291504,-15.000063212606424,-19.70249297521743,-15.560750035600943,-17.134783484900105,-27.045520926231376,-26.789491953384477,-22.064882177317678,-26.30181055758374,-27.096394537794847,-21.50554188743864,-24.923938092862848,-29.419302887507794,-21.932667279822454,-17.643226183451215,-22.343273100365813,-19.801054216252354,-14.342546839048481,-17.355703283667555,-16.27060159350839,-9.351646144769532,-13.045773965168033,-19.431873400637276,-13.991148708928858,-9.200692100859431,-10.73534616084775,-6.695556020938179,-4.392486764700939,-13.60908905721973,-18.956811238839858,-15.920350283886005,-19.09532687646722,-22.44891021994832,-15.331370065125785,-11.64315615129351,-15.443341181466382,-12.701755911590993,-9.614621587658448,-15.52626398228863,-15.564712143601094,-7.498370231711634,-8.30734202007725,-11.77372184202187,-5.900481632052845,-5.009112854617834,-13.822228204338195,-16.725933495873825,-17.871282002447458,-25.859533914196675,-24.661596253353885,-11.500380066366686,-6.191864168683918,-6.030084379385609,-0.07407598135270055,-1.5499775274050516,-11.965764194661814,-12.52602946237313,-7.940484679608377,-10.30190075369184,-7.131352076104207,2.552174857781441,0.12402059454607661,-7.964477093696843,-6.2485641918395896,-5.9123568122178405,-10.502036235950062,-4.895248352022929,2.3871400891807095,-3.462282146808178,-8.053331644225288,-4.738514391229685,-8.292524841558649,-12.998783010220391,-7.328341284159785,-5.934958807787623,-13.136247192082541,-12.38499704170879,-9.012498370947661,-14.64820532582121,-14.45069096272692,-3.9810584239323186,-1.4382801868611383,-3.7928832709269797,1.0450651518892768,1.7562084879404694,-2.632549807778899,5.289855835972754,17.120651148421217,16.165228099854886,14.01708367185396,16.37313586310033,10.633757965633329,4.812336830967361,11.132126099695276,14.6075508001085,9.122545646857287,8.661562628937292,6.702180131257635,-6.564739237599532,-12.356055287002846,-3.751035109092946,1.0408994018840785,2.7833105624884027,8.398325758700565,2.9675231019337085,-11.719261315753911,-12.290520432626572,-3.170260979276131,-0.9140276427140223,2.360495113737773,7.4226063567639375,0.643383097068376,-5.981802855608605,3.1285927112291803,11.67855902978106,10.26357949137913,11.711491421438124,11.720806172993523,3.5751203887304874,5.616697823593787,20.762805207574235,27.171860989354915,25.35342776285928,26.370085500934852,19.384370895867555,4.635333424348293,2.054431513785053,7.794382037129487,8.37060709206408,14.396979661895106,26.71509701124051,25.943249999344392,16.5712167657319,14.095437079533761,9.950393530250368,2.3448459891543862,6.711988872055572,15.123735195217169,11.754258953357553,8.58296799896908,12.218595571232429,9.10898318005226,4.845332162227363,10.887427700922286,12.58545757790758,5.153365363720815,6.935008871946598,15.31551952256297,17.111581157866354,23.472206554822073,38.85480304825968,48.457247449840295,59.27288727448747,85.64157615507929,112.98142684661096,132.71062578161354,157.68244617805797,179.33016659151048,180.34972128886017,172.15281657042652,163.3637002885685,144.51831639057627,126.0740399571855,122.4535639597982,116.67767824781832,97.6269097523223,78.81725133443709,58.169761576108414,28.452651042027675,7.140335430716066,-0.8743395683119943,-15.643598557925493,-36.49314597765421,-51.30725359448424,-69.33106808210584,-91.51395878301331,-102.03926436478605,-108.52694693843527,-125.77855274180543,-139.80750241872465,-142.063937998899,-147.45970625983432,-154.48836554177174,-153.36685890633044,-156.63024955009206,-166.2868401133082,-163.50395505653842,-153.21689319139233,-151.46557639544238,-148.34422758171314,-138.92473142516855,-137.26084696995258,-137.28022638937108,-126.39256612755105,-118.86707773228292,-120.90127295524371,-116.12524882891155,-107.96589731573579,-108.64624508031463,-105.40629498292058,-93.27427356583067,-88.1903355724738,-85.76378454941322,-73.33277526407468,-63.57815983522978,-62.06065923010108,-53.19210389677674,-40.34191438664579,-35.90040014148476,-28.789248883553704,-14.662696362377552,-9.275718303592097,-8.47438939525201,1.4349729859814375,8.890788983114927,8.079530305857883,13.975136556496484,21.775268420936925,19.07451292797667,20.47786352885623,32.30282327351571,37.11726266092767,36.76436710261777,42.23965485598707,40.9878807469521,30.69474193813589,31.51671361908631,40.257423587353195,40.90582477010287,43.83451293262514,54.76613529845212,58.19583842747164,58.68134149650679,68.62750729394946,72.52508733734216,62.947479967971034,58.639805638272975,60.02825544776627,55.24438734475278,55.17227815403643,63.4253133740264,62.18039330670376,55.32534453543889,57.9639920170453,58.386943361385335,50.257126782030056,50.50489400889951,56.579227210252974,54.39053601377286,54.64721219397351,62.184772981848816,60.618910755364745,54.09788050664567,56.49568961366873,55.89480868629828,46.83312850361399,46.31047181946328,52.58714000082722,52.128445505120524,52.91541841371683,57.655935886140014,51.82111367127273,42.68579225178986,46.598693539249105,51.45956059121217,47.59520744819405,46.9703742466976,46.27052815093406,36.51697468936565,33.81232756538756,44.15924016828456,47.72418559696128,43.43310868761321,43.220141783989334,37.26161306989999,23.781844647146492,22.70802810733505,30.95265920847146,31.519442788948698,32.580497403294544,38.29269615299157,32.70341314686245,21.76416460647406,22.496348724715794,23.555231659883958,17.06260888775003,17.99046628686191,22.31292772517751,15.48455515217319,9.781971666902722,13.182954717054635,10.841490638134648,5.998567814247084,12.010557064372748,15.609066117240436,7.69562297530638,4.042568081115199,4.81854631170481,-1.596472782097516,-3.9298691358593287,3.2150829700953585,2.3133421479635943,-5.049736727759933,-4.659850321822813,-6.357085965380031,-14.930267996912331,-13.2769056107134,-4.353024521576173,-3.8141698422283996,-3.309860614865376,1.3538595717125834,-4.626978106227527,-14.482777623608856,-11.08365001085084,-5.9354074507153385,-8.90518669225594,-7.187665664567131,-4.069969711103733,-11.998760216967142,-17.38193189437752,-12.189782895358954,-12.587611701272653,-17.185833126131527,-13.704775230289966,-14.28012950273738,-24.9480590346418,-28.198782044616074,-24.66624545383545,-27.407103154637714,-26.40690794977401,-16.672640584326764,-15.303674982687177,-21.07542425982638,-20.57283779910905,-23.990005736637197,-35.6156215528133,-35.91520440604432,-25.8671188619741,-22.65633364825819,-20.305611820544826,-15.09249695447588,-21.828828747590958,-33.745173876651556,-32.78616283049078,-29.35334620653981,-32.84412252854182,-29.902704765020392,-22.675950710893787,-24.017217005743433,-23.24717335632487,-14.829794252682621,-16.08811433763769,-25.337319138723508,-26.113170912755912,-25.703350373710506,-30.64253037495986,-27.3718758900651,-20.444011271397034,-24.98175553847611,-28.03399544004799,-19.686718804677312,-16.0040692940409,-17.894517384430795,-14.231952056628124,-16.167769560842967,-27.619699918802304,-28.643876295877057,-20.331614403931347,-19.9338604528475,-19.67061896965442,-12.390921777752041,-12.455950917723202,-16.750618068212695,-10.967557362735993,-7.896347660699643,-16.724781310854613,-20.024572516438287,-16.945521972439693,-20.84817488795315,-20.62204508469252,-9.484339276404286,-5.478733578277919,-8.117467617892933,-2.837518538290202,-0.1571408607674879,-7.247472417393274,-7.603068085218796,-2.8649273187376583,-7.347297393972525,-9.523802890359882,-1.7974374004260651,-1.0959895838155973,-6.71181580210386,-4.749845589928612,-5.425808625768128,-14.961222473203525,-16.521257063989236,-11.920449710444093,-16.207785469125504,-18.316741180741097,-9.702394555613045,-6.546057115746324,-8.00560556649991,-0.1554243417812815,4.407306889396617,-3.595904151322983,-6.708319225532798,-4.336907212304908,-10.332732735574504,-13.174385972604373,-4.932017476934079,-3.5400436035269136,-9.230491776139738,-6.988239508657623,-5.923506578324417,-12.213802580122588,-8.57786976865793,3.0178445814962913,4.5516439481469435,2.940456714192049,5.844078153397221,0.22024797347280067,-9.375879736137206,-6.084333049676791,-1.0863521180236324,-6.0256134688096745,-7.015207208752849,-4.164599752876239,-10.305065641076016,-12.61930681403178,-1.805192851915662,3.677373793290796,1.029211905830047,3.579615100510344,2.3544065325285155,-7.75238217219318,-7.492864603678504,2.7360725576357994,4.513038527721163,3.935233467871668,8.099870586420053,2.936316784637528,-6.297033496794772,-0.5929623065865304,9.195507495307746,9.810781940863112,12.38875743479665,14.593047228732692,3.9806262074932355,-4.075846171532614,3.5101826362528343,10.375210077396755,11.5934015877807,17.289477427127867,16.33171002517487,2.33177734461831,-3.1346300293465363,4.745626131685459,9.566599091891714,14.42438662010758,22.493743226560383,17.325984829786663,3.6456192273359784,3.6637047949676846,10.923169561354117,12.089700778694628,16.32141081052611,21.36668357860896,14.315964533851053,8.223758348749653,13.637695853938434,13.341219805779572,5.446264118542161,5.9416937208312035,7.952182792578959,3.9673239556933684,8.623569035606652,19.153746848765238,18.251167058202,15.395154773531761,20.48076271832238,18.59452349547196,10.67450581172477,12.425062652118056,13.90760778620936,5.951629756591192,5.289352814260142,12.292369658395542,9.8955244838508,6.020331111924426,10.414413298024686,8.454896028163844,0.4522660050369103,2.5855315205461693,6.265221239943431,1.810636541887063,4.139503220942885,13.171160930707282,12.070985689728712,7.237941811901795,7.918089004761928,2.8285894530079396,-4.815037068527888,0.1273156029453344,5.987476293480894,0.32110260641402544,-3.146946135406923,-2.5334156603963898,-9.004719922344758,-10.796886000148536,0.1665282235443124,5.221091961091587,1.0917988508105476,2.3152782172188164,1.5857945732140672,-7.720231609812991,-7.742865659659132,2.1921394570393935,3.9988155072963436,3.4489275613198576,8.582925592489428,5.284518980023247,-4.240589270147508,-2.9423088159447706,1.2383879784427276,0.12108316862918733,9.653301892238519,30.60901676740314,47.67817057797181,68.3289178755611,100.23095090851565,127.10096783857522,145.96380404568455,167.59277721518527,179.6879286461063,172.4499246723978,163.63220321393544,157.79154834491595,141.7904854859582,123.687677356855,111.64215578746506,90.1123900464865,60.08835204456585,40.00533458913777,23.242615417648516,0.007560269116059892,-16.296855959865812,-26.646726790948883,-46.86028067221732,-66.47711373447143,-73.19272585146979,-82.33060949954131,-97.23184569393021,-104.28255724766119,-112.12976328167613,-128.67421755321823,-136.64247664150406,-135.08673161901163,-141.12127587075557,-147.31400028176432,-143.33072475283925,-143.72226928050654,-150.16850182603488,-148.1101428688223,-145.91834267412975,-151.64099850163967,-147.12099626724438,-130.08704107136708,-119.11687900893037,-110.86119935670216,-98.18864323434042,-95.4640165925506,-100.98668593614924,-95.70267174143528,-85.50010833783222,-80.91604032259131,-70.09564850875788,-55.41966556120825,-54.314878350076555,-57.55641718389439,-51.64046399534301,-48.30073588457473,-49.05122032941419,-41.34430534922887,-35.7556011607148,-42.09533618920444,-42.253005333989115,-32.024037709471166,-27.562530541190604,-22.709751335927333,-8.557292151178148,-1.1701572868869827,-2.1235558975632367,5.4370316238938,14.093707029033547,13.470212116894295,18.74053977901723,30.779621483399257,31.945388166369366,29.716063663111967,35.83964911833746,35.93622833763823,28.29397633118044,30.13370849370363,35.00840543774741,32.22538285286129,35.666733318382626,44.898153558219725,42.00448099960255,37.06884059691705,45.62458073923378,53.45330148974939,54.393353446896285,60.21071616160279,62.04027722481298,51.279759804567135,46.815101873448754,53.10972894683155,53.13112813475124,51.6203345818844,57.402432476688546,55.756323453234906,45.808138524558935,44.80867743307788,47.1839221742317,43.410825324015775,45.98182512070557,53.87615212282801,51.14582883006235,46.22627322040195,50.00631390634733,48.64872189747926,41.35368556484129,44.09835049123013,49.07882254708271,45.42137387497832,46.681773869531256,53.215386222625945,48.095896004714334,39.69697827627071,41.80564966424828,41.84477341552872,37.60770133494326,43.41072313153074,48.66004531498863,40.69040873394555,36.36989185603692,41.693359776865854,42.228638676028176,42.92822326538367,49.898078253549,45.46863562225941,29.734357038335162,24.48338453116258,25.729441880566718,21.746267639790947,24.103042474268012,31.13071762399348,25.599308944881255,17.81326584363758,21.700504482043748,22.813250124441332,17.784447262497018,21.74396169003711,26.196423359940656,18.18402775963102,11.435424584268336,10.912596591458673,4.936018011599219,2.159012053585543,11.986591181465334,16.73216461685613,9.557928963871529,5.845810631125407,4.3969873469914225,-1.2729453249834686,1.7964461421867557,12.680730646109254,12.230038482426568,5.003434919049846,3.8777312825081665,0.12059960927413904,-5.7286002860914245,0.6457781483746818,9.232214060721846,5.583329092387499,1.9459078753278412,3.254524411009676,-2.045358497451666,-6.314570837692426,-0.9894564240116632,-2.4148892159573805,-13.485556569757797,-15.90843899208883,-12.731864232909478,-14.76605406288117,-11.165498933266901,-1.6452310483546184,-2.661492258836185,-7.474677785216818,-3.5799430047813483,-3.8751986792416906,-12.25497344877921,-13.47876980086033,-11.738586032495704,-16.621821639682665,-15.798928081033068,-8.44108276306749,-11.399841045634338,-18.464170981145777,-16.02144327211941,-14.74425080169123,-18.119069850026303,-13.817430413693593,-10.671343779049106,-19.293513526876303,-22.087794853825923,-13.228208392341747,-10.58029112535592,-12.23463448834551,-8.964592711884778,-13.743058354283606,-27.05953528410295,-29.992389110355397,-27.46597293006458,-31.910953577525753,-30.58368082059967,-21.14479151474032,-21.495247412820927,-26.916206392575468,-24.059695097403157,-23.10319595033577,-26.236073132360485,-19.96238775294991,-13.908045000103176,-21.563706407277884,-27.58425547931603,-24.705989965242743,-25.97373865563003,-25.461080900429838,-14.289377772225887,-9.423455045474313,-16.080544519594334,-18.0411141997589,-18.782069730441975,-26.64184671971413,-26.892585537340587,-18.18532470200117,-19.387532753359757,-26.005721780286937,-25.120714313331003,-27.17966268076681,-33.57131333478617,-28.91968153641293,-20.94248893527637,-23.10567421907688,-22.047756473144478,-13.099469591738515,-12.51434287903396,-15.67582880017463,-10.513585236197166,-9.641792683825557,-15.701336252050991,-11.993491627794263,-5.623439703874438,-11.412971302692865,-16.144649314683203,-12.448430275717612,-13.630851320342842,-14.967852726740643,-7.256969123008202,-7.176199237099207,-19.016756614680276,-22.28238820376661,-18.29194697208888,-19.216448112678982,-13.918797682390675,-2.185471835966065,-3.7598217899604047,-12.121525709154731,-10.414235614862577,-8.10120010787225,-8.062613634947954,2.39176073097258,11.090960988568133,1.6239442866419571,-9.417219831597691,-9.257996855604496,-8.673071056297639,-5.820743865206879,4.090945743125822,3.8096985882840895,-8.492899733029718,-10.082252874894914,-2.192753695261635,-0.6186770626859872,1.4540745735371057,5.942393652609937,0.07474222115642926,-5.656845151906087,2.926076604326899,9.707311788436622,6.1983272135032035,6.316812734374103,6.106704421157076,-3.2561576951734703,-5.723173265539598,3.039497963135226,4.18399922160914,-0.11525956547067717,2.3389954188046564,0.23632510174439325,-8.987873018716211,-7.873450384418625,-1.5661295541206834,-4.144207061076642,-3.491818088651063,4.9630368961340405,5.533647012484323,3.8572313038576866,12.459378721699263,17.183522852808302,11.843204457326195,11.137432993738502,11.097572387795609,2.8150556136902174,1.984970556417078,12.236072848444136,13.855190864391,8.024378182439063,6.988125729482828,1.9811098920010979,-7.240508599130427,-4.480175220330434,2.4406094457317318,-1.6151621485758043,-3.833787516100824,2.6979864234517,4.0714268182918385,3.6214885377893675,10.125745834021725,9.723468945481892,0.32154828237378785,0.6698153838217602,7.297589163764664,6.706401972536842,8.735775121289526,16.14429481237463,13.982480716156804,9.265391288503121,15.760925095319083,19.39357239844439,13.563502366174365,14.270968570109149,17.761922927575558,12.327668620429971,11.153439608557798,16.942591662951674,11.150264255190782,0.295593163520806,2.330222077316908,6.907829372864193,6.158494998467599,10.731997243412064,12.280313427050643,-0.6896360359052238,-9.13097635098632,-3.1457385513132774,0.1704263087960476,0.5558435278920589,6.564819495439752,5.626401569054522,-2.4309546778756195,2.1413317322362806,13.512267473470027,14.748420721472137,15.052608351242327,18.609704493511625,11.874068322954862,3.1285192291527295,7.003488075352847,9.610105007339458,3.880240645738315,5.223277975842353,9.297836688558263,2.772942123417148,-0.5541693080641037,6.891152914143879,8.52638164239671,6.079978351987416,10.798234218883943,8.713480434401998,-4.885390702968965,-9.27806471135248,-3.6749451675650966,-0.8391096929818657,7.8560643206643075,22.684474720020084,23.210846956001085,12.740587398643298,8.902097511692329,5.281052159870201,-1.6110840406506455,1.8683937216625381,7.9814474181004185,0.6946345595181609,-7.198373113919502,-5.953451944184362,-7.61752342282028,-7.625562890970185,4.412368824122387,10.964577238955595,2.979880566174473,-1.802346750901889,-3.0621497786319303,-10.363430382863395,-9.58377531169771,2.6243600249440586,5.593445286124302,1.5373430127249557,5.273489582687953,5.489668189737902,-3.353353175961373,-3.8087232859790174,1.7727630741859262,-0.15551465653101904,2.1527575921840265,14.121715261766019,18.59538199724892,19.085872655368423,32.08198077180727,49.836514525925516,67.39183447693458,98.42189532439416,135.8659971994357,159.98195646422718,176.01860402803294,187.60295498130338,179.97037202572193,160.64665369567984,149.43799546888923,137.92407961991,119.18455416025424,107.12228805480501,96.51107814457848,73.5306333231752,52.308716075466066,40.47087430852817,20.505474970466842,-5.4178172479171645,-21.501600224722306,-36.741611427523516,-56.77504069498772,-66.64061016521948,-71.5227280495966,-87.08216065678461,-101.14314111039633,-105.2679851910888,-115.21928777670009,-129.36416296837317,-134.1658841538985,-140.27622015544895,-153.24920448452403,-156.95679681155138,-154.83789685535913,-160.75980005786002,-162.77249461481102,-154.2124278581795,-151.33154039129812,-152.64721035557017,-146.19022989755274,-143.74136016933707,-150.42812790774514,-148.8112123758821,-140.09939521677052,-136.13955256786878,-125.7104025551346,-106.09480185310791,-97.70379569668766,-100.14645781221144,-98.21017934604966,-97.84511097302992,-100.7542525666887,-90.85699092281526,-74.5132152179159,-70.07241636093387,-67.42582588038778,-57.10757274797978,-52.12140049108057,-49.21518919491891,-35.90354652667073,-25.85488122652706,-26.85703549982673,-22.143739876769033,-12.713030077666758,-11.206046261442314,-6.508680561500203,6.904204652825987,12.33677916627927,11.795697007068387,18.976449247807484,23.51929751023823,19.676788886835393,23.140532920996,31.158880622936497,30.343461971325112,32.182602929892674,43.349101239047066,48.07786694687742,48.61058746919975,57.58481648862222,62.69642497870013,57.50036493330989,58.41803797365081,63.36870206877128,59.586791837646714,58.945245780157734,67.09883543290495,66.68273553953034,60.45161186428628,63.972792605809715,66.99715638572363,62.699583925160354,65.80718270940119,71.64903458713995,65.81449836131122,62.062152123868486,69.80732140355278,72.7249938324766,70.3454567157188,74.29411625309976,72.80065555564312,60.240978607107955,55.79645855685377,59.10605839991714,54.45999143582796,51.61676338189207,58.33267879163995,58.59246207992872,53.56997566745917,56.91298369130999,57.23308050168334,47.46272474526424,45.333594315663866,50.71059173158088,48.3085580848714,46.6667012298739,52.67767165949211,51.709245378302946,46.64709982062024,51.1227310254731,52.78026699108091,43.20987949778259,38.242439206438604,38.16374737512348,31.563035806239135,28.922044788558875,34.63527466517475,31.12835995029705,20.93034238262203,19.90804119595224,19.21994965662557,13.332027161651997,17.745947792798567,28.7503028675373,30.800911216574832,32.72996326185424,39.740947994236116,36.02870307565589,25.304213073747047,24.686468294013327,25.55424725720696,20.130049888120702,22.511612649831964,29.477177389681252,26.0916321683141,22.84120205782673,26.38491768370743,20.568302337963335,8.59717247428774,7.011215698984491,6.44818275824619,-1.0685754300585235,-1.6822307788737443,1.0150459583275988,-6.888481682044938,-11.096183274480008,-1.616398826697241,3.260553725653829,1.0572136891005286,4.376998317951649,3.3934416353011283,-7.076353220062497,-8.415629362789824,-1.3589752662450392,-3.125867723974678,-6.566967973228315,-3.543775261870315,-7.290589606292093,-15.827783986048484,-14.682988869026044,-13.46560356177049,-20.796458342248535,-22.275667287101005,-18.124955128688626,-21.74024823879631,-24.177761719552326,-18.248464887875002,-18.312577234374686,-23.49151849011356,-20.921012166822496,-20.50503003100319,-28.758257464004704,-28.844943167746635,-20.272134464339995,-17.773743390380776,-15.090504542705705,-7.995003158361757,-12.00281846560447,-22.952746052364525,-22.553681763479027,-18.88018622856376,-21.498584835299994,-18.93438068209046,-15.195263548467954,-24.253465972208026,-32.32000235197437,-27.601096555119437,-25.435351260298155,-27.53296759237798,-22.057991936356125,-20.16869908645179,-28.321532379603966,-27.93001506216688,-19.649266026312485,-20.468629640156017,-21.56501423015341,-14.710749609050541,-14.824993488199912,-18.958846182374145,-11.725152200329841,-5.594337102970366,-10.995277194567716,-11.755544073354542,-7.278095391603699,-12.081754761236256,-16.60637052636411,-12.955542068307494,-17.086456708816822,-26.631458459595585,-23.812649204061536,-19.048274992352002,-24.982187375908918,-27.88581887869969,-25.158908286228165,-27.245143629777566,-23.80045396456861,-10.789061823761507,-9.963817099397293,-22.426820771071252,-27.235303621397485,-26.35294063355841,-26.92835980970864,-19.057251950450294,-10.054520090301075,-16.361973141801926,-24.179384830012097,-20.25374810519932,-18.834057515575,-22.012161473102847,-17.98107831582581,-16.338855996686306,-23.926784963746265,-24.48986405733248,-18.05341831591935,-19.745455790960886,-21.42601357421578,-14.689901906545177,-13.630146562351076,-17.92973335013773,-13.648836407015422,-10.00395019677069,-15.794381190907936,-16.320233253073777,-10.405368535185428,-11.379413599339676,-11.025726665166635,-2.2614595708259655,-1.4649959820921177,-9.541640767167074,-9.952682477110681,-8.075125666006377,-11.364561026883289,-6.1855486444648395,4.677444007072665,3.293036646806289,-1.839889955923768,0.384129877012505,-2.733066416696595,-9.929230084889765,-6.605722670298023,-3.38905647323828,-10.49915287771809,-13.137336186141013,-11.161611832813968,-18.777718506379617,-24.368089610709198,-16.687775705284313,-11.816901303450996,-12.726006555102506,-7.157342931604573,-5.93379494001244,-17.095160970650134,-21.185357650551204,-14.031558580380253,-10.671187512815884,-5.348029046587101,7.340558590812959,9.944350938675612,3.155766494198614,5.266177749879032,8.204730776272179,0.7513062588354429,-3.2361685266121327,-2.9095455358199933,-11.193715029616094,-15.2199487058429,-3.934012107831037,3.7879877431482485,2.7084563931870123,6.472858257846248,7.090287044957753,-1.6398471623432118,-0.2174299181039956,12.088875172960678,14.658530998807407,11.249359165883469,11.493575874296043,4.8731689526295305,-3.4937715703190255,3.8285655770512794,14.540616233567954,13.681346268441585,13.882248859178997,17.2302224116228,11.44699187219283,7.4296399141472,15.352040773024505,18.516346665819484,13.772260428951544,15.360549521255518,14.679680467922855,4.108726796730122,2.4423150181620112,11.506666585821987,13.079260483714396,12.185363611799549,17.092668864759897,14.155372510617216,5.621558893687052,9.185258683709986,15.233545974536074,10.924344751602185,9.907411624896417,13.223571963749894,6.35537909282454,0.4852841870689657,8.056527539889757,13.344976793184038,12.085596969237603,16.89914330226472,18.192266346344873,7.153278037627046,3.0238937346980492,10.9323886510624,13.796427501872714,14.967736597904352,22.229077414934416,20.848069412065207,10.685414715899352,10.681403350151,15.663282722497966,13.915863153608834,16.954188264436873,24.373555589250447,19.236810405380115,10.02243135591609,10.586192550623872,8.748938897084031,2.6014193525000597,6.797613986389124,12.889549518157214,10.606232423110317,14.61113007645785,24.174785586208934,20.838812598785772,12.99819353970021,14.715845233843453,14.776886698668665,12.219253665693083,19.802327667130577,25.5700106259521,17.94015413440829,13.687174099112145,16.072534118695856,9.248565466203068,0.5097337583473505,0.8505034868872006,-2.4660342490641787,-9.404840719161571,-5.093906107252077,0.1684338329586672,-4.9491806129913485,-4.576368585055366,3.5881376636428888,3.0826865027057693,0.4170412149544478,5.257192780048485,3.7914892878695476,-2.7939545171685913,3.2680957119353677,12.224848565989948,9.818542526897618,9.379435545701458,13.482216837172055,8.142620877225987,3.966234060311207,14.531383952622468,27.116315388007983,40.51854366593163,69.06802495425026,102.31956185154557,125.75317404130719,148.25516117683455,167.62591630107556,168.2664831533927,159.02130125994364,152.62927656905933,139.68307555193414,122.30946829499942,115.19693169407405,108.29416999683394,89.10345993795903,70.57339397910727,56.25866629124564,34.09957258490449,12.58510262936168,1.4380892876872824,-15.152545285658137,-40.13766987151226,-56.12487161135387,-68.35173888526398,-87.84932303092748,-100.79714071506056,-105.25943684108842,-117.8269083928937,-131.16521411858506,-133.14910874903222,-137.7621754923323,-147.8830074169521,-147.57170921302986,-144.0487434340775,-150.21572801743338,-152.48852904825208,-146.41308028124152,-146.89538806552167,-147.82477406050293,-139.04238086840735,-136.3085854683524,-143.09649883845006,-141.87535758222919,-136.5705081702811,-136.8009455750467,-129.81911442256404,-115.96652579166937,-112.6960999669868,-112.70268573217375,-103.33322174962368,-96.86602792496414,-95.10535508523424,-84.09223355419402,-73.00985200921046,-72.7413450775045,-67.3839570960325,-52.79938549971053,-44.398717328638114,-37.055857118328106,-22.348849799942023,-15.730876371247923,-18.843574705789077,-13.954478659355019,-6.674934219347763,-7.655658749010734,-2.9742115087736503,9.03657476111405,11.447158170151894,10.163137993848313,15.858799365056402,14.69474318918758,5.60646850551735,7.498758451037414,15.83528613721164,18.867943252676803,28.47580605648124,44.28032312500943,47.57303391221248,45.05021509159552,50.49629710938788,52.554113157848974,49.96821144421301,58.16371948463066,68.46553224154194,67.27237715182481,67.63555488185683,73.40677637102257,69.4886438092778,62.71544096113824,65.77182954036371,65.47678159167384,58.76434419729192,61.45188999742633,65.17847721285773,55.84869797095942,48.90001707367291,52.28590777544406,51.963170150059646,51.94349565233292,60.72326624137212,61.99159670016456,51.74292933177093,48.69911028732654,50.26847980532302,45.063740652857945,45.904886244723194,56.484462494689396,59.470988244390476,57.35866139980804,60.60785119269885,57.43751509905221,46.55200112023786,46.20618627725342,52.3614722952472,51.65063086254446,53.63539180278164,59.75311317934801,53.99788568831234,43.00493694861429,41.88126910065322,40.97389959765607,36.4181585009972,40.58821246839754,44.717114982130795,36.10379070924465,29.3615603606254,30.67669485434791,27.019201471981138,24.854809095105942,33.54926184496517,36.635331314247416,28.66185317418886,25.21737245786328,22.979679074237968,14.328890714624027,14.84125762704968,25.709959142152737,25.99556293818675,18.866090740617622,18.16087824665154,13.976681002690281,4.551777771283498,5.281004394659834,8.114129168454918,-0.49179633864350025,-5.355842339578335,0.3464914436148616,1.0229894137178412,0.42955851006397217,8.702389059163366,11.115822872653757,3.2655310629755405,1.8522488171245866,3.358045644730116,-1.8667549540866717,0.547665106332234,12.781829972621356,14.874499555506082,8.948281493222114,7.684038879597993,2.2496167148117445,-7.160272427051654,-4.218633472321356,2.4608525244303543,-2.8571411503508255,-7.4094868297854966,-4.416835266361053,-7.492268012199787,-11.549806486516305,-6.370528367631826,-6.9470330386364765,-17.022332086015396,-17.93491929886168,-13.157787793283669,-16.6224892113743,-17.727456959191457,-12.046191439818383,-14.367902314062418,-19.289670877324554,-13.998596852369209,-12.410253146515043,-21.317105998365303,-23.770930953783257,-20.921529159356318,-24.267409772915833,-22.277118217966795,-11.331229372966252,-9.176041682765444,-13.009359794592385,-9.964743491182578,-11.296519349031183,-21.074149299249093,-22.842594083397643,-19.67476557229513,-23.57379404232569,-23.061800668255998,-14.683591909821372,-16.224758013506438,-24.219228821772514,-23.81853875679717,-24.26060797055271,-28.993825063218477,-23.532361206814414,-15.324603964063698,-19.421366685431227,-23.38712941601019,-19.69694402920794,-21.794367415046693,-25.56373552006968,-19.34733637611462,-16.36505154652413,-23.02859641447968,-23.835299283073674,-21.152071442595094,-26.289429910595384,-27.013158513223818,-18.413762799059832,-17.14488076085326,-21.35880920304153,-19.468330218469355,-22.090451947064757,-31.78608512939616,-31.024877558391307,-23.871424281399513,-25.165748802056438,-25.441550205132295,-20.88447359623727,-25.639844501219144,-32.005620264701726,-25.111306163340537,-18.56564186911282,-20.537338377371146,-17.35361743875842,-13.5840075291108,-20.39602290927649,-22.27620333896455,-12.76755962829407,-10.250156794696142,-13.62521662909428,-10.912895331203293,-13.472504324153045,-23.738461742882006,-23.490866926652505,-17.853519939960705,-22.14320643724291,-25.23689215628788,-21.731261424528313,-25.28994988930954,-28.87112788552731,-19.535043432095257,-11.92276974862126,-12.797137027512825,-7.148535424389575,-0.2206757300015143,-4.53721312156134,-5.869590813583493,1.4078596523408518,0.7594529897191611,-3.3124902930829343,1.6354184170188892,1.7507802035023958,-7.3379580151159,-6.893924034152331,-0.21684501088195507,-2.8119949399569957,-5.223657537428726,-1.9570060544806407,-6.739618712119682,-13.023596549090758,-5.603668718512125,1.408846666605663,-2.950695965279229,-4.899332006554181,-5.004762306328958,-11.873815707966159,-10.928924634339761,2.7030731388615186,9.443256538728134,8.086363728628642,9.785497268741832,5.414005018954612,-6.487203821493734,-7.704383077406036,-1.5523387057832136,-2.9109161722365684,-2.3260796928606258,4.68687519776751,2.482774349985157,-4.580168153050909,-2.026302278902336,-0.9857793880614747,-7.542822555082256,-5.7524783997878846,1.5661000467438115,0.6820105840093604,2.54911621501734,12.587765772540866,13.933758202477339,9.91929182206386,16.0465153077543,21.27461166569437,17.535179437680632,18.61617587625348,20.29710656579726,9.861903111702006,2.061588081155572,5.748914712293138,4.933300381510168,1.3810467001132407,7.861286778816197,11.431226126948774,4.571751713030543,4.290191613771898,9.41941945719698,6.858109741556628,8.425760314680748,19.63443582191011,21.85327656184069,17.000490500143073,20.788730568886066,22.904107003680124,16.34761178444573,17.03055166553885,22.023513636644548,16.68644826377411,12.481802564060198,16.04189400446503,10.80106817685361,0.7177979400021184,2.7499813479193134,6.4455346163586835,2.973174315149334,6.156252873328834,12.504907908769464,7.828652739089437,4.476033983152743,10.54730081871272,9.458613024084775,3.021813531021385,6.764719358364049,10.379165517691858,5.741072639271563,8.108239451606922,15.683176320289025,14.285165355148882,14.065252300122374,21.244287424939376,19.6295736119604,11.540865234674731,11.65294157319348,9.88750790856805,-0.4623824674908894,-3.4596115445871494,0.27127800542543623,-2.0592591415199433,-1.3060342565017025,6.741953541923282,5.839516808449794,-0.12736709702837423,4.659511122237347,9.716018946755561,6.520190326923261,8.168208703541767,11.656281244410417,4.977177874869861,1.116633770084495,7.603041206505917,8.290937120454174,4.4506389280410374,9.009802391443117,10.357128138987187,1.390590570299071,-1.529169876739457,1.0245621883949017,-3.484875012487943,-4.2695087465193495,4.534994178400966,5.410028443234163,-0.8538913745698298,1.5115957182627522,4.511688304031478,0.7747577706253195,3.6731213385014643,9.67619513951527,4.875718330930604,2.064043113436941,10.793509105388003,14.851580408498197,12.468385794235537,15.632666537059118,16.376653917937876,12.273619732557744,22.77577659086736,47.732453503518684,70.9924668188178,98.59287261843066,134.1057844068523,157.83374398680658,165.7403073317123,168.87241951199618,158.92390173135675,133.68409545795865,115.30303901458507,107.57598374968038,95.96016604816252,85.35263961080312,78.39949499948426,58.32292227476528,28.015018215460536,4.908701687522623,-17.470612143759848,-45.154349899132065,-63.8090458501224,-75.17684792823705,-92.1398323621897,-103.8785718900901,-102.56897791999594,-103.95899545274352,-109.61970385417749,-108.71744822263445,-112.40338443943867,-127.07727527498952,-134.07483677333204,-131.31399607489968,-132.58543287798332,-130.3034181828691,-120.08256936441725,-119.0937964903164,-124.6869164426746,-119.59732748994324,-113.29080323267972,-115.61907671205728,-112.95637754692937,-106.39071313735526,-108.57276004385702,-107.14240730263933,-93.34141103881515,-84.95765540655208,-84.16771272688317,-76.94043212067051,-72.11922714099343,-76.80126098061936,-73.41605081127304,-61.019689583100245,-55.124652179208454,-47.65548416846111,-31.779678355509382,-25.31762994307335,-28.980049938648975,-25.745124463754397,-21.584495208789917,-23.237891954736675,-16.228993984515242,-3.991813773842795,-4.005650773191174,-6.487716042112656,-0.4447370818893974,1.2381470601363411,0.11050178098427943,9.781053161087607,18.359533254184477,16.088452762127652,18.245040063252425,24.813831548270297,22.374262658831015,22.28666941032422,33.723046322609854,39.54489724291832,37.21605767489967,40.344993791628404,40.56556548723879,31.386900496553405,30.34014831355585,38.20346506361143,38.85370842356164,39.180763468933186,47.03374128351368,48.0468044922308,42.84791307882375,46.16816822215272,48.58076137572422,41.03997362430943,39.58976642754581,45.84610386324535,45.5305811265485,47.02800443859094,56.93870805739174,57.51272711241735,49.019382294592944,48.840185332878356,49.01508107730286,40.55792361815275,38.87887322608843,44.507339551375615,42.72717867013439,41.854098906315116,49.19128963531564,48.679927074985585,41.017000085476205,43.062746824235305,46.91594694323696,42.382528655038975,42.2787622358797,46.31449071980829,41.21884368499587,37.28594365172252,43.2683811432822,42.91408013361495,35.923499137299466,39.269761858235775,44.674276309694314,40.41439754996735,39.59845304253901,42.81999217230917,35.83656913719673,29.61454004377172,35.53737834844188,36.940583313931384,30.294284194902275,30.189991738270365,28.76725664143562,17.964359659107423,14.399580774087795,18.851906419459077,15.337844678782133,11.866453694488452,17.075848655860778,15.522987971764447,7.21729611683471,8.509226716142395,11.328796200070967,6.197838848194662,8.404692843697998,18.201846246310414,18.563500283885418,16.75826429182106,22.402229751626415,20.499583940916917,10.039808362265775,7.942219276735757,8.59285209767938,3.0430735268362,4.422672442595965,11.445641937202804,7.202530269553451,-0.3150541385368073,0.5530757236907147,-2.472185127662893,-10.120991080799946,-8.371316712622264,-6.2663375251964935,-13.503888999301546,-14.558960673549082,-8.364890101165619,-11.839921002993062,-17.682863441090934,-14.198995821827726,-13.807659156274742,-17.022005136480146,-9.389179403421505,-2.2173484275034276,-9.523644207395051,-16.802355691769986,-18.421785518694193,-24.952455835645495,-26.124441326248068,-13.121588647554926,-5.790483838732809,-11.308755711001357,-14.733565195783662,-19.078034080576106,-29.151391987131866,-28.247866873012402,-17.76406479516912,-18.295260840198967,-23.494221737148496,-20.348957725838588,-20.38424287327903,-23.81743422241009,-16.323779982884286,-8.735762406899463,-12.822521452412003,-13.011959003820511,-7.166390464068818,-11.293712644893466,-17.36262058223189,-14.200188708423068,-16.33974000914529,-25.697678778270262,-25.82043246520127,-23.433074225823894,-29.452862504265138,-29.78948685972198,-22.21684847801761,-22.787528570719907,-24.945439695005064,-17.517513460713825,-14.460686275892023,-19.1575529036866,-16.38728418421399,-12.257025737989778,-17.24061836704,-17.59932900678545,-10.922895724096435,-12.554749112232392,-15.779141430289743,-10.049888310637433,-10.019052369877706,-18.95819858744465,-21.02845972760839,-21.884588517874008,-30.99422525529644,-32.89636850893843,-24.859129367926414,-23.952664901190232,-24.6802790815194,-16.432090082257645,-13.765612742940922,-19.21625219264802,-15.496137199787015,-8.48700287836435,-10.124798527909208,-6.964091862362629,3.467242474965908,4.229874686267169,0.8353560286360424,4.868917633606027,4.073710692804106,-2.801308736069909,-0.04396020761974251,4.281412782824605,-3.2975229849418692,-10.090033240412422,-10.655026929437486,-16.158652123438024,-18.44223679357894,-8.408120459939472,-2.9445357005588564,-6.835193739949634,-4.8111377283897125,-2.285305130987685,-9.041668071378773,-10.385426492503756,-2.3408259509279854,0.4017824859622624,2.904282471682112,12.290680273801296,11.756842209572014,-0.2857728527250165,-3.5480993226197084,-0.1798395255658114,-0.881015848701012,4.720494170550722,15.246526306601673,13.324833701453105,6.9414875383012475,9.193130906024644,6.757743464910481,-2.829668095650175,-3.088912538375791,-0.2674504735826093,-5.778322276112714,-5.376860578934111,4.399789793330286,7.16070940326998,7.519113213768096,14.421310759375327,12.452134110748572,0.29652484422249525,-1.9144485963623152,2.2726043263020728,0.5488971920908321,3.517926078019061,11.797395902771113,9.596976092518016,4.462073360534857,8.575159771198681,8.108742060881935,-0.7958200578885695,-2.566477024621795,-2.294592540071866,-10.318348851973568,-12.948618326982457,-7.102688748311648,-7.679721783471777,-8.009915317632872,1.8735113978924978,5.7107677006049595,-1.4165304782599537,-3.4309624384628696,-4.368912598960276,-12.788840182795935,-13.286937065141048,-3.846690367755007,-2.662201049999223,-4.339670423322938,2.5494282841353435,2.8700788784259634,-7.35938635695857,-9.309082072944294,-5.146495583763689,-6.122750053175597,-1.3562961597291805,8.624334529195652,5.027745184734695,-4.447890701602918,-2.5799996832636354,-0.0445691866129892,-3.019382431129179,0.46648457211970884,3.5115828680842607,-3.984644898475163,-5.5471342152012415,4.197056710248299,8.193432771966421,9.587804139787918,17.85520804192073,17.668511771328017,5.451350463503953,1.0254900881793485,2.8898295237996363,-0.5711705090352006,1.883371293718303,10.63588505041824,6.764382474394194,-2.651452685003465,-1.0111668727165253,0.6831466836804259,-2.7778796421846046,1.3996488850693622,5.267291049961284,-2.8855718226011775,-7.474400228274648,-2.6261818284091794,-3.04254250731648,-3.421822811823885,5.748870465720973,8.586368928249602,0.08277361756063462,-3.659593547340477,-5.524618361841956,-13.863894907525484,-13.388773358032605,-0.06976747743848577,7.548144024946087,9.998713379893541,16.299766026530875,13.960043219452471,1.6597033182822596,-1.0440754003949169,3.5479992678564396,2.2703088981897226,4.122708374398029,11.171909245138934,9.115339007082124,5.437757501154703,13.053888295840652,18.17224982642952,14.664858559500608,16.500514347306932,18.594648114086148,10.282315300253568,6.268098108833214,12.158262691066168,11.87125517305415,8.33842423612412,11.663274108092494,8.452576335468969,-3.857820909909325,-5.762607053318753,0.16083621486645283,-0.34156048921228144,2.218364628723106,11.041360956469088,9.904652827439703,3.6726781439677576,6.468994308970359,7.41547709280969,2.4560412800294174,7.550844241261063,16.894207944274655,15.156503903655612,13.38776369234869,16.93592105949774,11.213019936186857,2.4302908870846007,4.733705960980324,5.252010640838835,-2.2551682257156886,-2.438094970908999,0.1861525976763203,-7.207318531447852,-11.695348190987843,-6.878014289242542,-7.3162743212202574,-9.411049625673058,-2.192250648642826,0.5682769940400185,-6.781521397485575,-6.82101343328138,-0.5857100047710344,-0.5430897842402378,0.9532682339845293,5.011234926424216,-1.6480397222583556,-9.0363856028486,-1.3580950490157684,7.3928740485258375,6.753449799679611,8.961136782701418,13.448593187996057,14.035564949086336,25.82812494465395,53.372899237343645,79.02131936091655,104.13758976027603,138.67805654367243,166.94035944198862,179.03433614258074,187.6482118672096,189.82298460039598,175.63160850091944,159.011592623416,146.31022844930217,123.22678055325795,95.46200592643564,77.8504036532184,59.718862339309986,35.47736970542826,19.303958411749818,5.909447983488023,-17.240467082526877,-35.998630459748384,-43.61421585943741,-56.70726242523457,-74.35138205408968,-86.20299607978465,-102.79313742573301,-124.37650087758053,-131.61895491423078,-128.9644803227009,-132.51624057924087,-134.0379306125746,-130.18042841701384,-135.5334960303223,-144.21166986537057,-142.21508078189098,-140.95003564897877,-145.71955076269714,-141.17637534824524,-131.61207380923986,-131.14560664099434,-128.12913833972837,-115.36224826173927,-108.11230617838872,-104.50375060692912,-92.89193638776536,-86.571127865675,-92.41900663748476,-92.50639597772502,-85.80596569192917,-83.35665181774998,-74.59434435282432,-56.49302795541656,-48.633832703025206,-50.706349239819126,-48.88007591307616,-51.58114198521186,-60.751636391451434,-56.61886341646426,-41.18906111579692,-31.17621814999398,-20.355294250496797,-6.678375427844668,-6.34128695152449,-12.790696385954437,-8.010694958808644,-1.8452636775714417,-2.647419279183219,2.848038453435712,11.633103987672879,11.421881217919957,14.5185156739769,27.005979720857223,30.927250110835182,27.15317259293531,30.339652732538074,31.132387789380665,24.522399415043342,27.211761868080934,34.84800800235998,31.749880684262344,30.776625859640976,40.3916124685769,43.80181546175616,41.82897515258419,46.86965396072544,46.790362089547415,36.520263872949066,35.79438448093219,43.65328825140753,43.94733322017979,45.97819530300289,56.08095280684182,57.50475785465047,52.2110496007538,54.45966422838637,53.59862624873408,44.37083607444828,44.444035124184936,50.533119050700435,45.60930091635898,39.87655210998681,42.540967491591495,40.49379031240731,37.22292305446054,44.806454676255655,48.19862568060734,39.272015426912574,36.614788738340145,40.84962062633709,38.44398159061595,38.92069990726929,47.77565130646,48.95459668476603,44.92750553642223,49.60575704132852,51.44540365287344,42.897973162036294,40.293247736552914,42.85926674174233,37.31271719908968,34.339304078157,40.488782887286646,39.009325717155235,29.996594487672418,26.77105895858378,21.18867388686223,9.613773344616837,9.331185838961673,18.271359942191665,19.779987683643803,20.236997649466012,25.678466666900214,22.898962889998128,14.925316071606666,16.086465158234653,17.791222594594156,13.733783059967072,17.844493707218877,25.861989026700517,20.73079191486255,12.304429416698405,11.926070929819712,8.637067481614341,4.918602302874735,11.854270420415123,14.675051260258218,4.479176687465189,-0.1377535225701555,2.7069005209785275,-0.7861134062316864,-1.4500842441703532,6.679885241518772,6.603519062389376,-0.3320948128804586,1.5179927368443946,3.835694609426506,0.28611153377784415,5.788852213946232,16.230015517067365,14.015920702180908,8.623086618670895,10.39251986694433,6.484497223151566,-1.479009895144046,0.38827019458396794,2.209538954015729,-3.618547268676651,-3.01033639534037,0.700794042014125,-7.530241615402838,-15.68476358021145,-11.69361134329094,-8.487132577453563,-8.222071955648147,-1.9768223193491603,-1.1824854383535903,-11.154655426488779,-13.377365494550101,-7.805250801717749,-10.901564592283753,-15.156257904313588,-12.09672369924916,-14.866842882899345,-20.318715371240465,-13.513741553625334,-6.695288828900876,-10.450416435290181,-10.688846158600338,-9.226434324883394,-19.338636204917737,-27.07238880872458,-21.257018343958304,-18.409403762221896,-21.1938972022716,-17.769769986242416,-18.42412578075574,-28.805259645180904,-29.66024080145536,-21.185666485582534,-21.29696197802467,-22.992663493945585,-17.974838801332062,-19.86639618016392,-26.013173572247183,-21.098388626603146,-16.128688014358687,-21.138702019795787,-20.35726386858868,-12.93782930163622,-13.946572928218062,-14.864643192723724,-7.587721857835531,-7.930231799222058,-14.998758694504483,-12.303170831404348,-9.250384939650697,-16.02398115968275,-17.312649741314377,-12.178452196238304,-15.524985567784768,-18.704086379806373,-13.160187036500293,-14.024367625078245,-20.277278276014034,-15.831195760946915,-10.215221912317684,-13.863948034079987,-12.789787780903346,-6.784439468260699,-9.283066205843713,-10.735415808291258,-3.882505377246505,-5.213629394485969,-14.808409861723579,-16.285573629714612,-15.275149744057977,-18.662202116667476,-13.3118063510589,-3.0932838803412284,-6.941833141137952,-17.051329871496698,-20.035147468328,-25.151607687287637,-31.152875815415705,-25.331517902244713,-19.62049074372026,-24.285661659228886,-21.57192136544959,-8.025593391801047,-0.3608738551072425,4.8764697037857605,13.039595885718503,9.787326365348036,-1.4208124300836262,-1.8903220063038797,0.8733125043693343,-3.673891451378281,-2.689620393853357,2.765079898502102,-2.7797177207300154,-9.504645823216439,-6.495194027441236,-7.6604273445655044,-13.260684239560387,-9.526323742461127,-7.010367417243682,-15.063410554486056,-17.169762203906153,-11.443288135187537,-12.627392990215714,-13.221441879254494,-5.373181340947786,-3.993029245402733,-8.823364719780237,-3.9572197588805036,2.377880401137728,-0.5436304041794822,0.430916607625905,5.948048413652135,2.525326539531852,0.5191043498367636,9.167374079859835,11.20697711494892,3.6907362243771096,1.7481920152543875,-0.23889426988830453,-8.534547251038644,-7.742315119585115,0.7836523141139673,-0.6506915797528008,-4.150599799183747,1.2961169836315602,2.1688616409203934,-2.3615709214157463,1.9611004517778805,6.282776162871771,1.5242520705981326,2.429469528252384,9.008606809294427,6.371249338545525,4.43385442580941,14.250911475488353,20.69241948214458,19.52941789585043,22.23235633391814,20.26843167644282,7.16500871081686,1.3279315414092632,5.30552372007692,2.4074582230668584,-2.4856708516081274,-0.7300212602519793,-4.838272153930944,-13.95200624371055,-11.509248002292445,-5.054236794460916,-6.640207916043581,-3.9096534740713937,4.290892340782959,2.4419734175295096,-1.3392978217087608,5.213221680154262,9.224616985020912,8.56013993392381,16.39389261225393,21.92313581168015,13.249435153978004,6.96606543190415,8.856404277590846,5.8767478441864665,5.001832078111328,13.400919153262828,13.125210723519409,2.3099388797187195,0.03262512514011684,1.7477798012414678,-3.1792428050398587,-2.229347919210106,4.194339536838932,-1.1556628600189787,-9.044071545234056,-4.51978452070477,-0.9134828860434071,-3.3046682156878178,1.7347748139576802,7.054850006683246,3.0601091276599366,5.45695100927286,16.115130740343627,16.98318272810859,13.570457144570064,17.191516195636186,15.56066633821297,7.905439048297751,9.177075002350977,10.998595759551923,3.1677751265224865,0.7994195062277272,5.955595649395827,2.833452892975906,-1.6383711148674756,3.3425623329480683,4.268438193378822,-0.700753714560848,4.059937091226874,11.312582448307047,9.692702925717295,12.757402995014782,21.988713118991317,20.523000447103044,15.033882214472714,17.29551800323114,14.155947741832616,3.542179359523245,1.2895343937114236,1.2379117708297362,-6.591347571371543,-7.199625148166856,1.8263867065616282,1.975146958018681,-3.0492990861349827,-1.750863989883884,-5.106599574174004,-12.822488183028298,-7.866499465252698,1.3542947056991292,0.003193267086859297,0.3267408279233345,7.040939395676954,6.535495385868825,4.564330801741997,10.819633702582808,11.115495922984739,2.8381326373869005,3.1808467379368732,6.748160083430805,0.07990319862872353,-4.806478786694059,-2.191516538362693,-3.9672499924181195,-3.109305031319014,8.976908347988239,13.916766203336632,5.783910346601647,3.150953926643935,7.053104926479517,12.21115318258153,34.13745065131865,73.89375203021277,111.08086389508887,145.6516834171584,181.17698268545516,197.2371073357832,189.21192647691038,177.5342325911069,164.7003329932573,146.05487176205042,134.97700895774892,129.38260911974496,108.52655639516259,78.2906466457511,56.075642125654646,34.80460305235802,12.30380688099925,1.07812909580094,-8.962672119011808,-31.31140840372767,-50.30871111549174,-59.22192787932741,-73.19500050585138,-87.77510309145957,-92.71974443694701,-101.77601808173932,-117.48473645245184,-123.40515021367986,-126.28081119578493,-138.87954669514008,-146.6257507873372,-143.48596758076258,-144.9212221443761,-147.4690426824311,-141.75332302735998,-142.14678166394975,-151.24389502610484,-150.4950654043402,-144.04354399093322,-145.07138428833863,-141.72123538405378,-129.3794408440683,-122.6757433905619,-116.90632247246491,-102.32096645754928,-94.18214118615228,-97.09551996282204,-93.64145631338755,-86.20884372857701,-85.12769352877393,-78.24062628923936,-63.60158268362663,-58.56632618872999,-58.63051975927612,-51.05525741869373,-46.44297688847653,-46.834989947099125,-36.677743679956535,-23.102718707039145,-20.827133023823787,-18.058315893022854,-8.694210283776355,-5.948410677546948,-4.139623468762782,7.944895549183149,15.859089188760443,14.046858935235088,18.08269676791631,23.77349793417887,19.583132380765736,18.59664991475481,26.035422290921495,27.17798355547304,26.624336288786033,35.19511966091629,39.04938097623389,33.86886281399979,35.762737036043504,40.095965696288616,35.577419441087955,35.932761194201866,45.83076147870344,49.84420174705859,52.261228919966975,63.51733547783361,69.33614325444624,64.15978006926665,63.24006064229817,63.00290857286329,53.660649956501835,49.64476026156028,55.365395883965874,54.51662949390755,51.251004361104236,56.88332499666916,58.05407101340354,50.124270960672916,49.23122908395226,51.916912490838655,48.020354475032065,51.10551325545783,62.61919876452373,62.099126322289564,53.1117730154308,51.32345749327692,48.386075881046104,41.826531657461224,46.35563669633153,53.861962950603434,48.766347083588016,43.79531253297316,46.15216222543981,41.88377961468388,36.17674593953448,41.53748612430366,44.230187956379666,37.50807675543665,36.384557273867564,37.31988457408909,29.197718809548512,26.579150581556576,35.76638953259361,39.10924650332315,37.46066672343408,41.39489904495655,38.842566626532886,27.68928824744922,26.708469410410004,31.970449896850994,28.91021855432325,27.84207467527885,33.26778429362676,29.775829477982487,21.603649659969832,21.987439185158188,20.06110163087601,12.279541792710512,14.899929444537776,21.68855120149058,16.54129403457725,11.643264835937599,15.32748303978335,13.364091720316619,8.930232810177639,13.534762845117271,13.45329206143597,3.839168452376939,3.9779557648291766,10.819524357745602,7.692310908747912,4.7229932549146625,8.171062769476206,2.4186921451441434,-7.366467318827359,-5.294315918618023,-3.543400672150663,-10.154444746108757,-10.365650806188977,-8.626446538320458,-18.384152248326842,-24.484990976302814,-17.114609207929373,-12.028644899094166,-9.268662312879691,1.0608459144311766,6.126762651594354,0.8418865998743605,2.1352627520946266,6.519811703119507,-1.2355124008627953,-9.990425047402486,-9.941945421785448,-12.138395011103226,-13.223969302931168,-4.035448932358569,-0.8960283429893274,-12.072142350429438,-20.030229397304087,-22.771393949194774,-29.215451315540538,-28.18745914516399,-17.507128526681164,-16.136458240318373,-22.467119101305382,-22.61166630150513,-24.02192987559374,-28.418325322704693,-21.23319760839862,-10.719103017659803,-14.250397254429977,-20.916583032446116,-21.51539993860663,-26.815826688983307,-30.961048359032826,-22.497329354980273,-17.13844151533043,-22.996854140955023,-23.601014370459133,-20.428528824504102,-25.075651339071023,-24.800578271189945,-14.371843787243645,-11.884336105390474,-15.842827078289197,-13.194340698830377,-15.111162394349234,-25.789821898705327,-26.40107754913955,-18.93987873211401,-18.521445596538005,-15.810420985887554,-6.647716569210383,-8.113652045391579,-16.648814338746767,-17.271896395255283,-20.46573446286399,-31.826265195424874,-34.66509531643797,-30.75961355110985,-33.20939098605116,-31.83147707340777,-22.288726063076712,-20.99614598865616,-24.53151394138283,-18.933109921321446,-15.17303407427309,-19.148527168984632,-15.405166744409813,-7.733666826047246,-10.4407931699855,-12.032409740323505,-5.83523997835579,-7.151742006089202,-11.804451889879616,-6.466942605236536,-5.853445053615112,-18.07136916908774,-24.489538153811402,-23.62932900362586,-26.974908206485384,-24.501609944956122,-13.56360793586543,-13.348641381347804,-20.784103425288887,-17.60320759039302,-12.010267537817658,-12.986110660412905,-8.4491425797168,-2.581588836491971,-8.762596681274784,-12.348482318461327,-3.0259481915829083,2.1964438010698304,1.2499271256898181,5.012795120453189,2.9259233722574507,-8.935830431175798,-10.964033266078117,-3.161920673086223,-2.1694546586657717,-1.5785720661838254,4.4164254285501725,0.5405398913270782,-10.136074319473991,-10.501842213486647,-8.806901162432418,-13.166278458022209,-10.453362619264446,-4.063632068356369,-8.460073618425657,-12.029174772857768,-5.320242938667348,-3.131611317901767,-5.395536832298529,-0.10004514927510266,1.8269822091879755,-6.086355357206775,-7.271429641000889,-1.899600554580852,-2.949902750014568,-0.9326079069257764,9.758567401834824,12.103634511134661,5.854553214204685,