-16.604964588907773,-14.209649548321046,-16.79290704216327,-13.218090863766562,-12.45155868971724,-19.639181327864318,-21.330584290364186,-19.717541495593736,-24.314275291137218,-23.1537472815947,-13.285109540724111,-13.07816750935446,-21.66432370425446,-24.851172537403325,-27.89442681890766,-33.234937599662636,-27.56915769183381,-16.379938460875444,-15.0705216141315,-14.359337262393227,-7.851256305101173,-10.161495299625624,-18.585407565014435,-20.044951135256962,-24.736083134054283,-37.496647816384474,-42.68366240470627,-42.095470774535855,-45.87571339151198,-41.182203351345194,-25.04160892450593,-18.708452203373554,-22.21811491395978,-19.874912192258698,-17.679307084089796,-18.971934720409397,-11.064196988043399,-1.9384343598095881,-6.632319398281857,-11.274442525293251,-5.855891766306345,-5.45177669190503,-11.675213331766399,-13.610537792292128,-17.55022253458382,-25.503183650297174,-23.840902486338486,-16.432267066318186,-15.929740323025683,-13.154808744420897,-1.9174202611124223,5.171308401038893,7.412290435164486,12.205811042584628,10.302958406395073,-2.340792532236758,-11.570949967205149,-15.630545009070929,-21.3876176292449,-18.11015949863345,-2.4521860312025217,7.412528127588268,7.9694475215803005,7.538158292156691,-2.0653051135327853,-22.077604708017592,-34.47932479323285,-37.528092642953965,-41.29356606567347,-38.352309516130205,-26.728089854367845,-21.70118517517605,-21.13363481763712,-13.128454319009784,-7.369144278807524,-10.379038594381592,-9.748535233445246,-8.105130991849197,-16.805819032740718,-24.094587143704217,-21.688565289981167,-22.890138380987977,-26.572556285707314,-21.390438121944754,-18.087802791245206,-23.225842935188243,-22.852663828683546,-20.074468639122863,-26.953491353557062,-31.675355678523857,-27.616979014066274,-28.279050864202638,-31.12305386560513,-25.511326540777745,-21.81484107548323,-24.294030810300846,-19.382564730870165,-11.777449482632603,-14.180932261522644,-14.908548772397248,-6.795857606138922,-4.487313449675988,-6.951330159713675,-2.8963564268813093,-3.231720684228839,-14.051368095268463,-19.510252812183932,-17.38047439548694,-17.056796897001192,-11.903588912803944,-1.460689680033341,-3.3958166093655437,-15.094355232265524,-17.2220900323129,-12.759324641787451,-9.777426278574405,-2.669256179877295,0.9546218948094302,-8.623614518848798,-14.942748109344285,-7.983321124141183,-2.7641139901509613,-0.7065719801019535,8.313306178671313,13.38425757494916,8.618541304151265,8.799466981174056,9.321377803680301,-3.7949285957262884,-15.88988136471329,-15.250983867372664,-14.618790901635148,-12.754837079125648,0.32974200968803924,10.18895563016079,8.22519262772003,10.251825091695359,15.13230252891916,8.722459874098378,0.7128065922626425,1.0077753207391111,0.9812062074458855,4.957943242474023,20.764685570540735,29.53548681175198,19.51013390685038,6.604516703500201,-4.342805004785999,-16.61592713164059,-14.581165112731307,4.114506024117945,16.89783771094246,20.772136642859873,25.529814641660295,20.6375659013885,5.5817953038934975,2.295195341342123,10.393186921999364,14.171349251084909,18.82787047717382,26.745454464434456,24.6222891240062,17.680959311043754,20.59458036872118,25.07814150686451,24.222038323793512,29.22364118665063,36.93326949490263,35.41239556782311,32.53297021369963,32.18473913812296,24.396684593206032,17.85759576513262,24.28445589721793,29.302657404081167,26.15198542641574,26.96089548676266,25.691741670629128,12.80669904422275,3.301104999794717,3.518392139298962,1.4308069750048362,2.9842396246126426,15.830374490659043,19.695068090247204,6.4004348955308705,-3.4089754537364136,-5.1597119499488135,-5.814319555097835,2.854210105941477,15.649991588453936,13.161995205110873,2.814184486081053,1.777102300814927,2.5520240977880158,-0.8565962507118257,1.0935630571792923,3.1818002831432577,-3.561292832993158,-5.553825248907566,1.645075479493964,1.338196082301297,-4.8186778879661745,-5.351734123377019,-9.374543299072768,-17.413204641686434,-12.047845151895498,0.8863072074419467,3.6770096093962916,2.017116948691842,-0.14739376988495229,-11.590952578505693,-20.710194363017028,-13.193818893916102,-3.1647893658948525,0.08283378686722065,6.20672511826155,10.757529925602377,5.93227379871236,5.0604366212564225,13.450146634751844,17.731186231933826,18.476701852458195,22.620975401266335,20.568517695345232,12.418037493180847,14.878081987916277,22.484147245313395,18.697099511663417,12.377476160822537,9.943944708812795,1.4288321091173048,-3.6944958113409867,5.147419111838733,10.086261454172114,4.547486647516653,3.9445542944016627,4.462583229956267,-2.521120683944931,-2.3802351713232612,7.311854473992774,7.60485513267764,0.628295580465192,0.39218346678957494,-0.194790973703089,-2.626854226410635,7.771213245361121,22.698316251047174,25.276129901499665,23.537920854374445,20.88429287178605,7.163605755628268,-7.058976966383776,-5.354490376090679,2.805440603184058,6.777522158671995,11.956913487162755,12.61308061777585,0.38202512556645996,-8.847868883241928,-6.731727899067537,-8.09974672354775,-10.806023770014011,-4.66761011917522,-2.512823062300051,-8.855398750198642,-9.592245978672835,-7.941560785573927,-11.943870774880383,-11.506588641328747,-7.057844426992652,-12.581325945073308,-21.71020326764757,-22.12419521238338,-21.078681190771896,-18.74017520881038,-4.745392939688503,8.778813743437404,7.651724861525841,3.7219757423974773,2.912976215745147,-3.104117405020267,-5.334167420812096,4.339910627864243,8.147250330342338,0.394788434605597,-2.17953936857735,-2.9965540191297078,-12.889953201832416,-18.861227559694107,-17.663290290603573,-23.584322875685157,-26.94631242233125,-13.272924150495522,1.6190422143530903,6.412192772879085,9.329677934086098,4.3438313383897835,-15.14661362447924,-29.761162633472477,-29.892895254875384,-30.597169654036115,-31.67697393977554,-24.139530386766022,-18.859542033937085,-18.966962504346114,-11.178657578041921,-1.9268256280280036,-3.821831960566069,-4.2221176389793404,5.060334668635997,11.253922018922866,13.514369728136783,16.656119232665166,9.396638075076797,-3.554214868905817,-0.6058419519527765,7.629137969751045,-1.2392504348583069,-16.991372776662285,-25.290314938293537,-23.837808003168384,-2.4077168935295994,32.62065958360623,46.50090685693652,28.76386734538159,5.269677641677287,-9.022073719196513,-13.60614169246173,-3.2888710864739976,11.322657593786964,9.452362043486506,-1.3502932229055977,-3.3600737620083083,-1.553331069285576,0.8104163780748161,10.677758302508439,16.42115537089172,6.78357594342858,-2.331644980503894,-4.1395877156174725,-12.302504970565856,-20.37594025893879,-15.530036779573223,-9.960167727453964,-7.503836203210734,3.2040188307308335,10.744440230336705,3.4729120654917427,-1.6528991166842713,2.707619808864607,4.3882507467560625,5.855834939649428,10.560186376938855,6.062074772999189,-3.244319188966406,-0.3704476836041031,6.802360962806796,6.758839068187189,8.468786806614911,11.668082610787227,6.552710476311414,3.366397509720686,10.717342744329088,13.382951699805202,7.053306683919935,4.160078724589495,-1.981225251559409,-18.523575097326397,-26.56223186040293,-19.933592625529137,-16.704199704532947,-18.18201664346934,-16.144617998334613,-17.83624625845937,-19.943402109056166,-7.64888258648747,7.985773014763883,9.381200922167285,7.045589554316921,9.082145664537158,6.357952052784462,5.750755452658864,14.798323302222055,16.121303910287114,5.288136728987025,-2.337637114661831,-8.107390207283627,-14.047834015177276,-6.442452917083258,8.671958426987597,8.455200048571111,-2.603932608667971,-7.163849828621913,-8.05727942302623,-5.769643236512211,4.0522147149995735,3.2596029162141384,-18.225793551843022,-36.40379123941121-38.26512263803729,-34.93102109595097,-25.345609128999165,-8.458457193334297,-1.1496130863754068,-3.265634318930006,2.537225291176251,10.315127818183164,8.743523467452585,9.331677036212241,13.435795649502335,8.17295593445782,2.537249794782121,5.6175392112781,2.949863299231957,-5.080691948521922,-2.283666626758191,4.645752156702832,6.832092859314088,14.329923556433863,22.29034256553627,14.820213119229994,1.5941794800884175,-3.387338817478212,-7.524383123538211,-10.640469902445414,-2.393584189794443,6.090341929656196,3.4909597567690427,3.42872125256464,9.009524920126298,7.384621390974839,5.646600603757101,11.89623738710378,12.335762099953525,6.3723049016443705,8.645003033744375,11.945208203483642,6.442084068479226,5.006509681101518,9.10935799852134,5.96363121476736,5.116055455694394,15.652570785603553,21.03359237862488,17.526618393377092,18.58976554771506,19.204687711923885,13.539390420481425,14.191885670584869,19.194627083020393,13.158873284085855,5.236985068172029,9.270700135391834,13.312005912554568,11.961544553382094,14.672917795756458,12.735855561357535,0.47242460124795826,-4.455658502042601,-1.6965692687844698,-7.386732424256882,-13.563300156841393,-9.232954650962277,-5.270102555028485,-2.4443453099285684,8.120387097884434,12.89589218613905,2.050050075370681,-7.636136345554613,-11.949902611194528,-22.000067169387773,-27.33537622723331,-18.875417673737672,-12.93103171706286,-12.30651320824691,-3.6584711556316165,3.993628059478867,0.8688255648742078,0.9832367377474222,5.646181835762816,2.2023974833071644,-0.42076384793719224,4.809888723174497,1.0525172972217725,-11.777363453046616,-14.257862264444572,-9.062592801829815,-5.042710533007821,5.113292610484551,13.823437734192353,4.736080539063346,-8.672498937516986,-9.800731539429211,-9.501361077992586,-11.426027783222125,-5.325481422022732,-0.3839191851623993,-5.361469755976075,-6.299364918243727,-2.663768857841874,-9.19131191546199,-17.185177733616705,-14.509189983249206,-12.744675351320156,-13.236077758836768,-4.010252894488779,3.5003675608950022,-2.076576713889074,-5.671365098249856,-5.05606492816858,-12.524673906852643,-15.710317973911385,-5.6768636931669665,-1.1959734113609373,-3.634569428223971,1.5253044094248915,4.0851846151194176,-3.544524555563752,-4.445389295220302,1.1815545038437834,-1.9840331954180708,-3.3095915820953117,6.220753156795235,7.6854856399743925,-0.9780858030394946,-2.907896337831485,-4.350783680927572,-11.655963370229719,-8.689120268082757,1.2176563041827673,-2.1421372043334297,-9.845874880742073,-9.619344118282804,-13.176160117365127,-17.28190238075414,-9.92050594028555,-6.577855524606241,-15.613855654428567,-17.744791310244366,-10.792277038884762,-7.656671495995441,-0.10684010493375862,14.437348048307426,16.394477194083752,8.3912686587732,8.446333470052284,8.382421780745439,2.144097629225199,4.534304343028085,10.311574938571166,2.7262391441111378,-7.954446077131496,-10.328764087260105,-12.369189773359482,-9.899130413429075,7.455451740490364,24.921088407102133,28.72106140057305,29.43539932866838,29.74192963477557,23.0976362327516,23.110386471273614,38.74995096412569,54.3840757881379,67.75085125187549,93.01417440682545,125.64236201362428,157.78376225281744,194.0973481182229,220.56150668293486,217.07096798076458,197.09272571324024,179.8144382851439,161.64083015988894,142.76495229389084,127.8364505464768,104.31601921688177,68.52215953864967,39.36988060919001,18.100167206463738,-10.018710728663844,-37.47700628600969,-55.67148857338687,-75.71761159223173,-94.28216957245776,-99.82812226735118,-107.23320206996507,-127.25231521171676,-144.06348748787156,-155.47022925949477,-171.6342406929619,-179.9694064732849,-172.4494490740829,-165.85835798360085,-161.28028329797698,-147.4066196226089,-138.29801534499666,-144.710826502775,-150.08356181149168,-151.414334189084,-159.64364880201265,-163.58216529244277,-154.67064440164927,-147.47313629794502,-140.75340259015985,-121.54108134411007,-106.4464312889954,-110.52976593993259,-114.90015869568003,-111.10811564576787,-108.49933351446138,-97.7643835486218,-77.19991539384714,-67.78906291872126,-65.33840966447553,-50.39588860575962,-34.38355172415152,-29.893090205522476,-24.659612953662204,-18.047486615647323,-18.772220597393687,-14.095693883716576,2.021889402315379,12.200068979531755,17.17675700226333,30.718774809824936,40.934485606080564,38.48948086354552,38.060713893956304,38.93896103209703,30.063975926942703,24.13294831829424,28.880768456228694,29.941369170327096,29.404471702153252,38.876583976831846,45.29979693458288,40.540270028977645,40.333870662190364,45.082190982597,43.57246556703906,46.381028957516826,59.89540662492705,68.37246558429982,71.0611305700472,78.46399094210446,79.53047884808937,67.87543313990415,60.42158970883038,60.44095987324779,58.211612878559315,61.87388501074896,74.41821929263482,77.19368879901607,69.25064461684602,67.20248958796766,66.58131163419557,61.58378960855234,64.69466106692946,70.5737192738601,64.00075475688844,57.55471571651404,61.14666149795314,59.53691787054443,52.03721008117201,51.2007709064146,49.31476058783665,43.159234828559846,48.25707671124586,59.35715205681363,58.93914637990415,55.06359216092068,56.03624576569819,50.48854369233203,42.37121485942565,45.667923876295056,48.54233781671762,41.27184331994543,39.35143638795162,43.88765005564855,42.07455937663376,42.191777900456,48.01877414441534,41.19383649618698,24.70664249567298,19.851891161938394,21.323354645100736,17.766213881135908,17.25988325704172,16.333322549062345,5.317388346786913,-0.18542290689564012,10.101799733484011,18.75508277734403,21.04479176035796,29.135178454738657,36.38242524455714,36.29131214406523,40.81992896737796,44.09051104901526,30.55220377883829,14.131763678672215,7.717298331454736,0.3834134959553799,-2.6629419226041664,11.250038463313253,23.779789643749513,21.15658703705192,17.95608084325921,13.63362854004869,-0.764447327448118,-6.743308879260605,2.0436922248414886,1.4238485160320118,-9.51048252811729,-13.339652330609873,-16.790851218538606,-23.967574569163084,-18.980126807100746,-7.352408178843715,-8.432568657917175,-13.253930770630125,-11.697389205307505,-15.707671560547517,-21.031978669505037,-14.054120492512638,-7.64047031187042,-11.850296995939793,-13.819147386437889,-12.96872468412208,-18.17064729850455,-19.116862742038265,-11.854649814899577,-13.306243190520076,-21.643206924290418,-20.880046849438706,-18.89578364515592,-22.80339470064071,-20.009789739616146,-15.848160917288922,-24.285413656502858,-31.654662017057667,-28.53781796398037,-29.335295034620213,-31.317488134917213,-21.575791682473074,-13.507006249792465,-15.825470055050207,-14.006291278529748,-11.592624903007076,-21.06312516519314,-27.457780286990157,-21.75970745929905,-19.6731146875024,-20.558228719045847,-13.656462357115608,-10.988310958881161,-19.17300816360676,-22.516878859513945,-20.278366441425906,-23.326037145643195,-23.26228806405853,-15.779615876354526,-15.581510771872615,-22.326899917452245,-24.66348928660762,-29.39935806357726,-38.6078815980515,-38.13957483809794,-32.236829016167036,-34.26933999799969,-34.34784696857756,-24.741064602795284,-17.226317797652104,-10.726800706859423,1.7904785484693644,5.3965409941362505,-5.741471886558928,-13.1667289253152,-15.004254474150937,-23.225504303387808,-28.96186631098618,-24.160342428884643,-21.36981711886168,-21.63496202830151,-16.933566741550848,-18.42034489733194,-29.028516037784552,-30.611693971237294,-24.780501903592118,-25.57496310644843,-24.981639354956947,-18.59809752577626,-19.77830572772924,-24.834387155753987,-22.39575131263184,-22.331633565875055,-27.26474897118716,-21.02483945936325-8.88415086922494,-9.072437171271499,-13.249678792432773,-12.098525593734164,-16.425529513530496,-21.80151784604127,-15.445337345250511,-9.458146518047151,-12.212668124507655,-10.844711222219761,-7.943630916880087,-14.598680106415905,-18.77359590320978,-13.48906685791765,-12.81420660632652,-15.917907345326904,-12.277725840969959,-10.56043144658494,-14.568364385173854,-12.325437017047545,-9.403884011756137,-16.741928311219915,-20.74083887312357,-14.947716270019637,-14.147741891719141,-14.748675655916285,-4.105951399739197,6.146591787964187,8.976358195281104,15.114306454621605,18.025177119948168,8.881531061052618,5.23768933435168,13.948168783538936,16.752092508997546,12.671183586221014,13.527468330332939,13.20368478377966,10.259429275655043,16.149557486268677,22.138691803273495,14.799599075206682,6.774030940412296,5.711972451627704,-0.5184915557760474,-8.4707338982875,-6.484227907672933,-3.008745684219541,-2.109909669661629,6.036479100462355,12.21394635592469,3.328080513056223,-4.594199627799654,0.6754628909949818,6.6330868656068676,10.8457983490403,17.482281908447895,14.748632110868247,4.7537930245921975,7.574191714052356,17.446428580682017,17.235831969207904,15.006976542146791,15.890076325702001,9.937461492575295,4.257976291476863,7.7215575462555375,6.476125409241149,-1.5616566386170292,0.8496354741546466,9.003563601194895,7.9731133653292785,5.490226326537983,6.1380393618343545,0.08887829049680684,-4.888425783004781,2.8761124246381335,9.580017035311894,7.249111218207676,8.81695592228263,12.345701319158179,8.701290829271192,7.997522769595261,12.252592057466556,8.17907123501295,2.8626656063242764,9.555925287701113,17.258693471914697,20.36521945306115,28.863885922140373,33.389517492998905,22.565066159330954,12.114740433265554,9.269786583034907,2.0972353633301166,-2.63747942456317,4.673608263289324,7.52428295912956,-0.4381998640077267,-2.403718986846388,1.1013217763711078,-0.5645831203363751,1.0780910620182982,6.58795309278862,0.27028460158584267,-10.32486603634632,-6.506355008356865,3.1656147525492697,7.081796458091401,12.216221939506571,14.601017564736729,5.677396580375827,0.8698255347078854,7.490756334019014,9.064447711332301,7.181735922525588,13.974249848896283,17.68242743382784,11.616615758045848,10.182108268028534,10.940328330523599,2.946540077853901,-1.8891514816828323,1.0759650470930446,-2.1865544793689144,-5.229835797403888,4.443134069931062,12.04838362488999,8.298539729364162,6.266630015954483,6.11049565085797,0.8387052208933432,0.9827411804511483,6.971061862954151,3.183215569357084,-3.5507932382518606,1.0278053216533696,6.2648291863574554,5.41998017331472,8.30403586290082,11.016118565091226,7.544085456447276,10.69841934055719,20.51823362178937,18.811579935000566,8.66192411519227,4.051533469438022,-0.7839129925329567,-7.703236412472069,-6.0387142713744755,-5.367385140079131,-18.595295675543348,-28.945115723653842,-24.277155288948652,-16.043002602139847,-4.2807109322912655,12.240479791777485,12.74400368220531,-4.812256609362926,-14.314101019433279,-10.75075169319802,-5.107753900968893,5.2711486334882665,14.972607778060667,9.806891659419703,1.2994380686902678,7.0159702858588515,15.67043893262863,15.851719279653286,15.959405372009162,15.599595050253317,10.392014212047208,11.532336157854063,18.469103774467502,14.890656236788335,5.28113330865309,3.1230183047681574,2.2389976655607233,-0.3096207414047001,4.085745119273522,8.318550567298365,3.49000411404379,0.9319599098131901,2.517248837134828,-4.883667111077014,-12.971271101547098,-7.54066397888589,0.2725714161384949,3.0577908318671536,8.408864531922644,8.496056715915985,-3.1464555739287197,-7.931953900884958,0.15793940319019928,3.381925306895252,0.5868439823474096,0.413999226726782,-5.60951048345801,-16.65464655716471,-15.721385900516047,-9.08469524066937,-12.393699474954897,-13.703572248719063,-5.571232191987952,-2.422066893017179,-1.414524997994888,6.313492136270674,5.663917766174674,-6.334302325352049,-9.807498022706799,-6.943292916326352,-11.809809392575627,-16.85618956437885,-18.66022330843766,-26.790472845502293,-31.47283535589728,-20.243210055233455,-8.05955931111864,-5.0493421779113765,0.2961102695551059,5.955438264592713,2.5299965987026107,0.9204988630772378,4.918881052362098,2.4644580645184915,2.5521135181007035,16.897566829098725,26.35276566184587,18.084734432417726,5.32495076737298,-6.837915254533188,-17.829208765397123,-14.477514995232212,-1.0003321171775887,-0.3687906312914089,-10.607392403629639,-15.676380298965604,-19.506019909054686,-22.021058329407495,-11.182822223948747,2.696699387647168,3.180681810679297,-0.6064271401795163,-2.3863865079936373,-9.818639286202309,-11.864091722849237,2.500909991611495,13.868218066428662,12.086778844547254,11.593764652430462,10.827944491171719,2.1102456746523823,-1.7615857491959774,1.9173680029100282,-1.0957134268069124,-4.722998024068528,2.1059152477127885,5.64866194074477,0.7628223743089686,1.9808011171397037,5.423419250824187,1.1467444890083194,0.7157388190666509,5.482011754234368,-0.16877082434732538,-8.263506215546077,-2.5573259899628296,7.003776029738256,13.05089044838993,22.191950063617202,22.741115240722607,5.259395568273659,-8.293305311803817,-6.244882289856374,-3.5995556248005958,-1.3788093164093889,5.239176687582333,2.6523357150860805,-8.098701817762608,-8.001573106340388,-1.555414586738617,-0.8202014684347847,3.7550911546630275,11.723763844782052,5.6713886660138595,-7.561407777990854,-9.14034380033776,-4.299313120693763,2.1866551976815916,16.69628448994591,24.124218043565747,9.273043248049376,-9.585483321020234,-18.16789784237605,-23.42798259651592,-19.998216428705707,-3.976383326226216,4.148637158289822,-2.3570023571082706,-6.6787515709842875,-8.572136555723162,-14.235067457204359,-11.39458489882339,-0.7805567342413386,-0.10002154836247978,-3.6360308427404417,0.8452361773630797,0.932546839822485,-7.338322279220313,-7.83567407986945,-2.2617886747589795,-1.0114887395949528,3.937074043537099,10.965739354332083,3.8233014254177657,-8.83724902206654,-9.774566319045038,-7.625277294946569,-7.757301240894122,0.02952136012395057,7.129553879061361,0.9648283650571399,-5.495365918973453,-5.9315477861649555,-10.219134630480223,-10.252497299071361,2.1334641759422723,9.707858458883772,5.10738142629865,1.5827845451655111,-0.3667098444468805,-4.65449192861862,-1.304604371412501,6.495383739596466,1.7022870424868572,-9.285549741141981,-10.50119374468198,-8.036751942420638,-6.045592706419767,2.302499573798296,5.911145416745677,-3.9804362921611816,-7.5724507733031245,2.6955481445254086,8.883439560316294,9.517620918587838,11.120948412548426,4.996512199663278,-1.7945420606112261,8.423240304457506,20.832604165898807,14.895397771883221,0.8329238075550336,-11.783730522488833,-24.616724587135458,-25.619584388091116,-10.951063799214202,-1.7478229700830348,-2.0982175873915625,4.361418173508678,11.73358509395746,7.937505315819879,3.9321857693652156,4.201879104213084,-0.23095256177710333,-1.5864510231045894,6.5399693685432085,7.971204261406492,0.8345702190458395,2.193526189292323,6.376460839897907,1.170840367503526,-1.65983935150148,1.4607913653522797,-1.2046492517325433,-2.845780269344295,2.4718968704798154,-0.032510154389847834,-7.090312551995802,0.8587086116129847,15.433029015789232,18.92843481265693,16.262076246122433,7.965115419516329,-14.222460099262648,-33.928335105790794,-32.648637881038084,-22.352444359809944,-11.650947120046062,4.817856888085559,14.193930696738892,7.4056634045205385,2.6486464924335333,5.768999428527542,3.70744148584084,0.7099613886356215,3.9884417459570995,3.2702560293193628,0.4222292898903828,7.4977729660303213.127864143726898,6.767503280253523,3.1046909173828134,5.765701093799891,2.2154756676559715,-2.195095604569251,-0.3159522948223099,-4.336589711319582,-13.365142151902237,-10.649696386561748,-1.942245444720045,0.10262385897955162,4.124367125107633,9.898429941316273,2.4769495473882808,-10.069516920457984,-11.284548901393567,-8.051706004067983,-4.176577322920143,9.372778991450351,21.196113330907416,16.676919415463075,9.282776951098686,5.791301997632228,-4.531581881177164,-11.436135929037606,-2.7159253792334166,6.883410471042072,11.726142540971962,19.808038282463873,19.737840271708617,6.288500926627031,-1.0932138488797452,0.8917252378206244,-1.3771710911646124,-2.7382607105075674,3.895454472293089,6.6550309565403545,5.103086654753218,10.145955544167363,10.619169775677783,-0.8417620076828269,-5.700112191988074,-2.1602775791433135,-5.528576590947123,-9.553721860125648,-6.506067246697333,-6.206025119059112,-5.627964505700906,5.323213023783816,11.575171193310407,1.5581196619219129,-6.364226650963595,-4.477736541158642,-3.9403051125846433,0.3305655691110676,11.146358020870164,12.278774989165434,6.211254210366437,8.592884796383933,10.466534780372317,2.684046332476978,-2.0872802653809353,-2.918424407819532,-10.801324228084024,-16.64373488183276,-11.689509733151567,-9.252044770867071,-10.818516405553687,-3.350933655734124,3.6636107486006773,-2.0035566254326036,-7.251844848734794,-8.344283134931388,-16.55020621745428,-21.291738787250043,-11.67605903495761,-3.71643258103873,-2.550314359123733,4.957067447201423,13.183564319454998,13.846913062081343,17.41600931739745,20.02326452963142,6.802108244154114,-9.597734874444198,-13.049813325746022,-13.301830399676735,-13.328254680494446,-4.027935024990196,2.852091686349617,-3.2183053159045714,-6.332392832505253,-2.531025971237364,-5.786431669681766,-8.579132756104071,-1.3212516190316919,0.4719956994182174,-5.114993354859672,-1.1445242161564857,6.843740124897304,9.675558778791494,18.645548845587996,31.431125661697372,36.60572993872717,47.79801983964819,75.45285452186182,104.51189545591215,129.73155346625884,157.8779397883772,177.75262784795214,180.09529982039365,176.6090888775442,167.54036212109472,142.7857474613371,115.19159296398666,95.99333459752901,71.48929745458852,41.421735163306515,20.851627744745045,1.4284187431559991,-26.957583426175322,-51.22091698524089,-70.67875223507022,-96.63223567133923,-116.63292476200448,-121.79095138795974,-130.2615755974859,-144.0644548579712,-146.24803135680463,-143.60292940570497,-147.7718853772817,-147.69260257946763,-142.75497122112597,-146.03455022442984,-148.34634006654815,-139.21266850449206,-133.60631236144746,-134.34631560567763,-125.87244364519208,-115.40292205014171,-113.89046470702772,-107.96801328533437,-96.38413270873627,-92.84596494222767,-88.09685879660512,-73.75643561234588,-66.27863758176352,-65.907115369154,-56.78213666718803,-47.22442665612687,-45.23615491518353,-36.63209227933404,-24.105537070778823,-24.226277104588444,-28.57144602263742,-25.80493999206108,-25.226975066556204,-25.142507524065614,-13.949295506012241,-2.6868115217401343,-1.6817353430403454,2.5727474350175905,11.56979672940586,11.4790965169319,10.14847702975018,17.160407509132824,19.708517428540706,18.733201456996444,27.367767351953386,33.23833883297965,26.98447968019947,27.022296527334124,36.498084164686965,39.98814706558345,42.98886175741069,51.60526802864026,50.997915891188036,43.62547954604446,46.950949721439116,51.94885005626108,46.47026332529975,43.352407692261,45.5063951437813,41.84885484920184,41.703066479925916,52.786586511504304,57.324939701968006,51.25206717227705,49.86430391313905,49.28054116540876,43.94854698599587,47.781355444378626,56.99790509977797,52.9084113877646,44.056968947464746,43.87128887873656,43.56276958303765,44.904447669134356,58.38186927857583,69.39279973837186,66.94484980079295,66.20791910705935,67.92401942379114,59.61168789535877,52.30929732769292,54.559605656928426,51.54260556980332,44.777251620962794,49.238188170615516,53.835190653212365,46.42557560224715,39.96117867598079,36.137446911972965,24.033629676923795,16.216384409244085,22.764531361840742,25.86028780500443,22.3599636206335,28.369969374882842,37.4990031997317,38.94230108342394,41.5888369859798,42.037126789435256,28.236639367844937,15.577165371494424,19.45506667449008,26.243826184904044,29.87011391551207,37.3346176713407,36.362898620830066,20.57349970970088,10.09974119371828,9.560325141716033,6.476064598522389,7.971181679373331,17.221748473081117,16.68538740018564,8.688231993236972,8.515009089444844,7.258458281319699,-2.366720639672455,-6.351672918329397,-3.5890723210145254,-4.350635128107135,-0.31084185187538393,13.271501519154475,21.435567283590796,22.53169135208248,25.172292901244646,19.698201096080158,0.8268520939683075,-14.151101913903437,-17.767249460918617,-17.936076222312092,-11.709799582908403,-0.6229455342108103,-2.071565597391312,-12.755051201293504,-13.397196458795397,-9.5447784242333,-11.025204415509624,-8.484931709449988,-5.411182464943181,-14.139747355648307,-22.388289215311325,-18.961941595093236,-15.63625333513977,-12.88882557640396,-1.7350009139372293,3.9856480142574915,-5.457985773866321,-14.235260553946963,-19.525326696170016,-31.65926999345225,-40.78624668728877,-40.00655627399297,-41.899328056114825,-44.07868257602564,-35.00860776066141,-26.461746473670424,-28.101410309622207,-26.51773730204583,-21.39661945896679,-27.115441168649113,-36.04507671310147,-36.30146680403315,-35.34350778409783,-31.660101048818703,-17.934217917855438,-9.863101203172842,-16.99158723459223,-22.749983509383167,-22.68552668088338,-26.377497412463285,-27.45383981655586,-22.85794093440915,-25.34445221792849,-31.743966817441244,-30.437361280831293,-30.52912112279829,-36.70279417142524,-32.56028017759659,-19.032565580887578,-14.657339137061319,-15.426427574119355,-12.700613640003471,-14.913197101904712,-16.268463330668908,-5.195539900605008,2.8122095254989863,-4.266155363760196,-12.529687426959523,-17.95705181482634,-28.320643313257357,-34.21140285611433,-30.649326338527764,-31.627624209638682,-33.97319377612501,-23.52267202798125,-12.691293035728103,-14.672709920198107,-18.18332840844317,-22.520272912814114,-35.87495779905883,-41.915656776323054,-31.125131162805893,-24.052228632263596,-26.197953144507736,-23.80942278499844,-21.555410096826655,-22.94586025689712,-13.562277309942196,1.2467477866178411,1.9522836419246383,-4.1172453563966345,-3.404419251704165,-3.2265379335838675,-3.4546838567845746,4.603140635483138,8.5876465333761,0.658868839294839,-1.3710230713108578,4.207018615099477,0.14491072938262484,-8.013605871558443,-10.004962674525935,-15.107939005023193,-18.845029148506995,-7.67662282162795,2.4240133760869114,-3.6275870919537847,-9.245312194719865,-7.559937753278391,-8.91440715815799,-4.356732942215949,10.495699998382781,15.014185429755146,7.376885921495997,3.431514929296249,-2.5922122474527507,-15.071943017721582,-18.03435240564835,-12.393543788453325,-11.932628335124647,-7.6893222183140635,5.365193752200465,8.97243260472312,3.620530257623707,5.645588201614097,8.020794809271527,5.148866140823931,12.209623979127025,24.18187431206944,23.179584986310257,21.428686793134858,29.71752632429317,30.461131049083306,22.20408728738164,20.103467798629303,16.94265154191747,8.455037598405674,11.289107132061824,20.672779477832524,17.051361339721055,9.33430177802546,9.457491239196065,6.80188719085557,3.1043905472534177,9.461306888016779,13.553610728170662,7.9798805285340695,7.753255896535729,11.155718795201947,5.3924851366903965,0.14199906778915117,2.6520675213463765,1.1588191527020533,-1.4687838451911532,6.61062108033319113.841691652558204,11.927497163547866,15.006315185160378,20.671646862255304,14.274514114578388,5.861655530696557,4.360359198267816,-1.6384927705708727,-7.676797887850786,-0.4340060249516333,7.88291449498391,7.5990494825868025,11.079017678326146,17.21409839480719,15.261136299914352,13.807110343550292,16.104248032597294,9.109524520836663,0.3566347677047923,6.453782301363168,17.20674938945664,23.225824105204072,31.601491522674788,33.04332886410379,17.40692225545361,2.8303011337572093,-2.009679634550003,-11.282049733059152,-17.99281209623125,-6.5875626119883615,7.965928699890105,12.710632134625955,17.029474786098454,15.721410574862535,0.009287689878703098,-10.95285020297833,-6.663908683114474,-4.937630587646043,-8.671878988367252,-5.797035193683881,-3.942413984270418,-8.720999489762663,-7.506534757775626,-4.259447672079494,-12.134446408873572,-19.386213192100808,-15.83304442476874,-13.180098066267101,-10.880231925182063,0.12401303519656803,5.846904574663043,-1.5094549261815984,-3.9223787416817,0.5368237255128034,-0.31107378444079536,2.2693811922155587,12.151238673197833,13.943564947261168,11.425136207217353,17.780078350354806,21.103014845380393,12.975099901426507,8.17808553582991,9.088529843686137,5.783965024150792,4.797058655952504,7.827478923402759,0.5203812110435662,-11.283183446789952,-10.451865588270394,-4.959523339522704,-2.857541115005994,6.6368066518984605,18.21775226517831,17.054501249491267,11.257226837986904,6.802590362282627,-4.803109287970058,-12.793665473944799,-1.9798168505056326,12.096347656440553,14.248312946461905,12.786361848287372,6.6526594664002,-9.540341791422312,-17.35614534398841,-8.46467801460045,-2.2322374402875083,-1.4232820296128705,4.60240451972341,4.66624685198039,-6.474377927475569,-10.14983327035198,-5.2689159617159,-5.8992915709543485,-4.026316673953373,5.876823183496421,6.829151601936817,-0.4651993129816825,0.5107717387772317,3.7744215359881146,3.541018869173917,13.06186309351136,27.939530226982722,30.25430610744295,25.051410888018022,20.75476424267519,10.585989734618725,1.8258253080459799,7.165152441333916,11.752951926272345,3.4271230168842592,-3.196655194227061,-3.953678774493043,-7.233232488832899,-4.960130489652235,3.5443751545459388,0.2198817946949183,-11.193568116410791,-12.274235313430326,-9.044276465771985,-10.197802269820258,-6.505589766255608,-2.8626880638064427,-12.157500746138103,-21.595290649888632,-19.50975502043577,-15.946755222369298,-10.625639450228359,2.8810226648943535,10.149374152212546,2.271366510451691,-6.486086304858006,-12.030098445355076,-19.864689593219335,-18.475347221433356,-3.7701338332292473,6.552090378064656,8.541519921323902,10.656623175605043,6.924752989589727,-3.1574279871278597,-4.536704367239199,-0.30696618376576157,-5.032645722231697,-10.679915417649372,-8.710487766978837,-9.41513817758115,-10.700883336739096,-3.5987848326095317,-1.7950087705307727,-11.393970644174171,-13.735970826513373,-7.373641471653072,-5.558094684559091,-2.992611263442572,1.3340814865133337,-5.742981437338134,-15.476220962589482,-11.10987912079323,-3.802038667906287,-4.224002281011856,-3.9008261755785067,-6.107706721833171,-15.858763723711293,-16.624756892338098,-4.860203071536373,-0.16641154554644577,-2.532607866537455,1.4427858036814447,4.117806102472096,0.659107753499381,3.8968163811597387,8.951305869581532,2.3205477659593576,-3.3408785069138225,2.3788451774961947,5.420208094357832,4.182787753500002,9.971564713657383,13.187766147171766,6.056809307088105,3.4589281977176456,7.467085270517792,6.452241280039948,6.536650686482357,10.821249108978149,5.186681301163306,-5.98315198808635,-6.256633273445722,-2.522275109631077,-2.0860652987826755,4.098430893954824,8.964083565033132,0.2068444871541848,-8.1503556442154,-6.269364877910062,-5.653992466491438,-4.7121757840131036,4.612106346258223,9.147675462637304,3.8923789936308975,5.252248351816782,9.882963751751234,3.097779859791205,-3.5410610023143465,-0.42439004312802675,0.7253920556385024,2.1313139129548633,11.359927347205774,12.59973689163852,1.4133169134603296,-1.742429462238106,3.418531299479363,3.229843772201186,4.821880646662236,10.686941991224199,5.962967744632776,-5.331346562547464,-8.675429706466202,-10.038813987867,-11.59022438344519,-0.7955620180497638,13.81415425588681,13.366269961176766,5.630464398342941,2.0433214422331414,-2.540990345022313,-2.1469249116792235,11.633582250595628,21.360059810354215,16.32363829812833,11.442172240405473,7.072024402357696,-6.461275252640153,-15.855541406762299,-13.872607981550873,-14.293984165305393,-14.035285005428166,-3.002595298746742,5.094585800798778,2.526793505103678,2.262899100608588,2.553752304564465,-5.767710036132716,-9.585916989562623,-1.2693084235492593,4.796513483926855,7.380935751912648,14.139257105879011,14.723358027012189,6.5440813329001095,4.438695489564514,5.112591474339884,-2.581580450086752,-7.738783520334643,-4.29118357623194,-3.579366918971245,-1.6101332616049415,9.198112888866612,13.235220126136598,4.631303050008404,0.08877863709257822,-0.21710356110873963,-4.535254662447433,-0.8642370358886984,10.984778016841055,9.547301716049933,-2.110001392187446,-6.201966762924225,-9.415218770448362,-15.492376621604684,-10.741371751845445,-2.306952407919977,-4.6258709097765465,-4.978726657897496,2.5674276666714184,1.7033143016157295,-4.231868419175765,-1.9244885432486791,-2.0823520581156463,-8.878504137425526,-8.2955516404034,-6.3462630320098325,-12.985946850030473,-12.243326352563528,1.2146501363212474,9.913865116071074,13.10754574630894,18.134447441566735,14.303541510968778,2.1314302605729365,0.12122943092672611,3.518375560696935,-3.4118286259662085,-11.08265390477397,-12.377813096088154,-18.18688946585909,-22.244223130918364,-12.251381227462616,-2.1036379941754966,-0.7126609671122439,4.530896488312002,9.252889112298194,0.959388351402406,-6.908685522741381,-4.68345723335406,-4.612136728593659,-5.172391367453784,2.3798304628785436,5.4772559620225305,-1.1764987941657128,-3.1096585855598775,-2.890022110373719,-11.142285207258846,-16.03419732590795,-11.201101448594578,-9.87687416407869,-9.893371511365794,-1.7527515532933546,3.0992772967727324,0.9862997538419171,6.8623987965055555,14.922746476303528,10.152505589692554,3.133978504548932,0.986111163583693,-6.748261066840121,-12.708937610862405,-4.646476523433931,4.282898942040848,5.939243600495523,10.294651519270168,11.513075549528638,0.33855152585282333,-7.458827871128728,-4.145350995582818,-4.400763906887388,-6.896582659277434,-1.9420423438506147,-0.2050125834534751,-3.633967741553395,2.93350680739471,11.630513954303575,6.647753249105197,-0.21766200013721226,-0.48823749082724444,-4.4216240996066265,-6.331207386325458,2.6957590963796765,5.9929471680771025,-2.950380861606393,-6.1933482266613975,-3.8805324367383776,-6.450407175036585,-3.5244276671561057,6.376171718950642,6.775307566239784,3.1993082107509627,9.07037200283835,11.907452953510347,5.236411118518912,4.057909152339337,6.408109524809396,1.253384614185176,-0.9721071454934442,3.728384307719108,1.0269615329855526,-5.0745577081526845,-2.0177718431329588,0.5357669301466029,-2.1095613947696887,2.361809298953079,7.384890929672146,-0.13660211677684586,-7.320303951963361,-5.89696929015067,-6.679749249503373,-5.144871220527682,4.983761143760293,6.877333755873174,-1.1599806674750588,1.1852238704012754,9.800160841869454,9.38127060485855,7.31273197612481,5.720336169314526,-6.179942551518318,-17.891841243530088,-14.75665225284753,-8.495882114688447,-6.469779945284588,1.8133759661383442,9.202075769387276,1.639737837684848,-9.787667925007645,-15.513416375509141,-22.060613129129088,-21.802372215277146,-5.7322413494382328.846923978544993,10.945148461062065,12.01789724098761,10.355880042531663,-0.5781143609353254,-5.514393673447459,-0.07297103689956508,-0.06929731773943582,-0.9269490628864656,8.092251319664134,12.987730177977014,8.786789933347455,9.976581171526142,11.558181206191602,3.891184660809879,1.6688595374256987,7.920869774221232,5.156089874944751,-1.2218214649105954,3.0260279513948696,6.792350420690482,4.512646962370337,8.271652536901543,11.4914774232491,3.48447133591902,-0.049567305412933194,8.079708229540422,11.352865728441357,10.063968155811917,14.153230904623321,12.78806550746189,3.52845244098362,2.773882284913441,6.509412776420318,2.112744587587386,-0.2218962075654235,2.998963460314708,-1.2755274960344183,-5.804499904129875,2.121356766696262,8.775528584839712,5.213146872682482,2.911375090664273,0.5616501487631396,-6.651594025505974,-5.233233358817953,3.840469032093838,0.9042391839067347,-10.516451118006433,-14.031905152686836,-12.860686378019407,-10.166086801612094,0.30469310244684555,7.297362561899658,-0.1312498100902415,-5.740120533498343,-2.9127915972189724,-5.6894025082880315,-8.759061872224573,-1.4269923600410057,3.992970839037591,3.214001232842689,6.0895719729551026,3.743211629791146,-10.630501158433958,-16.947334570140885,-8.870957777180793,-5.679743980027969,-9.180703766483697,-10.132620640485005,-16.54552768467198,-25.537480373996047,-18.924863216370603,-5.928737235722981,-5.07135548722743,-5.617484681009255,0.6889292802807816,2.498540473091219,3.5128509295644794,12.93302172336609,16.382433957420098,7.093428520034017,2.2501119033093566,2.1414670310063806,-5.237084198643592,-9.504785625579062,-5.197956242686757,-7.032247984666878,-11.624292711187616,-7.295231500380017,-6.404958320408371,-14.267797569272155,-15.491419235823496,-12.947013043861897,-16.030365686816914,-11.975935854110176,0.7528381798422643,6.5132776949292,12.235793518651317,31.157290309652097,53.944649925567646,78.45470324929222,116.9704812798258,160.27601654469052,190.9195900268053,213.2624630195342,225.97111290031918,214.90863588163467,192.03966126084586,178.19988668533705,166.20193203449293,150.11108455491117,137.69946725259013,118.04975442889851,80.41391057995625,42.420724264212744,13.228897659538683,-18.387901435401062,-45.96265586671366,-59.49017553519542,-75.13645435066562,-100.3907076274661,-120.30759975567923,-135.59117226476073,-153.7210333288275,-162.6172616700107,-161.31912300967764,-168.5715795741888,-181.72849095038282,-186.11899002460376,-188.26085238865605,-190.9794371955481,-183.06039577198365,-172.29869730340857,-170.25376931010703,-165.9382872129577,-157.17251606565293,-155.97818834908534,-154.89505408295952,-143.30788459297145,-131.91457886600253,-123.91502572897073,-108.78235352374247,-94.53723069579432,-91.99528447357304,-89.97968247516982,-86.77580622331133,-93.68177237591217,-98.02478639876595,-84.18848513943449,-66.134017912279,-53.15314839755787,-37.02495976492737,-26.147849156012732,-27.7198553542159,-23.629898668509966,-10.951738926611268,-6.386891196764755,-2.0700111878775944,13.952198603569464,25.12940246355334,24.71577220309497,26.1117579459045,24.373107691599945,13.713521829073947,11.820295833389741,21.391019325054206,25.558419624299184,30.74782280001969,48.53366866868781,62.34798051269201,63.320832117130834,63.46617683561996,58.7583321690702,44.41593564062628,40.0598148191156,50.93773343015991,57.823523458631215,59.1733045604396,62.676741562075684,59.07293901765611,51.9399592548278,60.355459117574256,75.40130792160903,77.61976057474287,74.89803473539355,73.49663113408613,65.7374474252607,61.4958310623348,69.10773637646601,71.54551944870335,65.62449822302463,67.68399678528033,72.49052228119643,68.58964055344035,65.0912837062383,63.127386071904986,53.29869346912061,46.813004095035986,54.09608626763087,59.72716117908595,57.070304473216815,57.269981546290595,55.57312969595522,45.875635645604774,43.14061787297936,48.69896740601307,45.95578601453852,41.57850598644404,48.85780540080314,56.44526712771436,59.1338195290001,65.82579473059768,66.35640489185988,52.17153041028456,41.36698095097173,39.199241917757654,32.209218359985286,26.54718157904656,30.24479870551378,29.503679960544176,22.143741304034343,22.675672260359608,25.706788269635474,20.784424506001354,19.36892162334898,22.683811997721378,15.690999919953525,7.33580951562883,12.128685047312414,16.81026720819118,15.162060943147054,19.227100935258985,22.348545784832954,14.78964501897941,10.130209658179261,11.833145157861427,7.067498855430655,3.0604162831043205,9.836182119416573,15.070766718313559,15.760963967303233,22.0128267572535,25.174927894232987,16.633416710612764,9.974286886534152,8.558218834969626,1.361062766273756,-4.416168089903252,-1.9301599628445103,-5.140651749956539,-14.040809467766541,-13.831997843367674,-10.923421349049299,-14.073453447809715,-12.243585231687465,-7.9781353137510465,-17.394977916815055,-30.761750179835232,-31.89179625072709,-29.010765258559005,-25.002210096582793,-11.918105856877723,-3.4506009774265167,-10.530627610906798,-14.178477231111883,-6.80646313401693,-2.7757945308170346,0.3655043217316081,7.936737851954414,4.7564225410545165,-10.078384136377391,-18.02902298051746,-19.91071239471919,-22.23444822094094,-15.130464127193484,-5.60292990147777,-14.674330314286802,-32.4956110425191,-38.40193593788756,-36.82328808356788,-30.06138127628501,-13.584157399566529,-4.8409971682367345,-14.469774272051447,-22.73732267537869,-22.89193376227042,-27.957101550054897,-29.474187599306354,-17.07875855726207,-8.07216365120481,-7.258564899948252,-1.9384329596333199,-1.8341353268836789,-13.66905593433501,-19.34512721882902,-18.944629840215114,-28.627359006834205,-38.92270229480922,-36.74467641809616,-33.44619787889479,-32.74479153516117,-25.728152085401945,-24.292336598459634,-37.60933477416709,-44.81282113162428,-37.941263387068815,-32.51251285530093,-27.25483313484584,-18.75033024994717,-22.42880927419342,-34.60948132774579,-32.29858385263336,-20.257497544535813,-15.411607943544407,-12.397337224465184,-10.453912330924542,-18.45170646621377,-23.31443426090981,-14.27806176809765,-8.764682904973618,-13.871201972968741,-15.519933557633498,-13.884930588275985,-14.757787091175164,-9.995475277452748,-5.1031551133643,-15.85159812519492,-29.732646928275564,-29.206541830696644,-23.93765065690723,-19.33173696265518,-9.693309882177266,-7.465578252959902,-18.39082681297013,-21.617727647716052,-13.843880360807756,-12.62669825336238,-14.55188047175129,-12.738823779000786,-19.185580111207805,-29.531249170286685,-24.806290034547693,-13.666002465282133,-11.59778796992428,-8.555124133486052,-2.27801270131084,-4.582894156186797,-4.03741367991377,9.240206895175477,14.962769492488347,7.4499866376117225,4.437977979501201,3.239461295275873,-3.613997082341335,-3.9588755624681427,-1.518584069786005,-11.465183970895513,-18.750601177170182,-9.677983961514071,-4.30338277398712,-10.826715299958957,-14.351511808279044,-17.41547738006584,-23.181829212988813,-17.084085260858075,-6.713394719194415,-11.992694508803698,-19.707237640976253,-12.42123178185726,-1.1142290447847165,7.910671701299087,20.405543972496467,25.686585999369633,16.471957636137887,8.661030464785924,6.041870453837213,-2.0015201276583916,-4.569686911182533,8.468083340413912,18.44213005252946,14.394571864086913,6.039359858771035,-6.141493552992874,-20.035269263903185,-18.17141219682965,-2.1259291623220307,6.571659334889713,7.86493223993563,12.669095412208474,14.683322038620659,12.920769817552687,15.87136591858636,15.113892630872888,6.736337603172544,7.89679933086191,17.239943585993753,16.47491884500083,11.332576411121838,11.9635331971835559.152827880590642,5.993188986062771,14.204570443060325,21.06818002969297,18.430627303011768,21.98538246870198,27.878419162839194,16.827722933421043,-1.4885224703060675,-9.468048896022145,-11.70099425085096,-8.305300149621013,7.06071046488942,18.32500633930093,13.2747022526561,7.96678912120676,7.281598006758028,0.3986452524008013,-3.259099962786062,5.392497320997088,13.800893200309524,20.577490036600224,34.40882885751901,42.81331498381091,35.147181213681186,24.400846879868485,14.039507698271109,-2.583004363827418,-9.68500604242317,2.299010871315593,10.614460209060738,5.772080665463616,0.7159043072747071,-7.685077510971738,-20.19428389239506,-18.275600551302915,-6.375139053219927,-7.209340885089173,-14.830741083884313,-14.610365090432989,-11.701390630703353,-3.248750962244292,16.891443560309146,28.743164302574108,18.806347432006277,4.761357084749477,-2.9727704645768402,-9.328173626339398,-5.5993999385206354,12.483442161383934,26.802001405326475,32.12930648892985,37.326156503669324,31.191858864686523,8.144056635295712,-6.82237857322428,-3.8585047191806017,1.972169050731583,11.473295617735323,24.25814418409947,22.700562372538652,13.70842823505706,17.874661111322833,24.844478278213767,22.354920496982853,21.4206607546545,19.375021291168824,4.350076646735699,-7.720276340146563,-3.284633019370995,1.3511594244650513,0.345444870701876,3.12594580290534,-0.774973576899302,-17.936520052966753,-27.82946170757451,-24.708056580510714,-23.38836829415306,-18.904397418960993,-5.305792817725118,-0.5217374250204045,-7.704284049237046,-9.91045563219484,-8.479641929587372,-7.95019894286219,2.3829849499781237,13.557306778866224,4.320851171666352,-13.734902104891946,-20.877523757834823,-21.43865243293971,-13.153510652469535,10.18829687195549,26.905751100171713,21.817856814160617,11.651298604636889,1.9448688582218936,-15.281391113383687,-25.36546608942649,-17.958287925600054,-9.196223644967533,-1.9137559945801321,11.590851553588688,15.55960399633008,2.1184098241798965,-6.070521288456678,0.32562035332356176,9.049125026437133,19.05138863498817,27.264407987535552,17.536901245976757,-2.8426524632148267,-8.638989109447882,-2.9047172848018756,-0.6861488834456324,3.5479439021749553,8.368460002339676,0.9796711264170472,-7.923954250727677,-5.314655165362585,-2.455669623138034,0.5780205359123276,16.329514009365372,31.826812677304368,31.99295697363754,26.13356427565425,15.898726927817336,-4.248848021131967,-16.320907414780105,-6.693100422309084,9.166175762576463,23.3327395588498,37.310802164638595,33.796551440096536,9.6477195864666,-8.630299770834572,-14.80508473031028,-20.59572054238001,-17.151001280921477,-2.4026308798987324,2.1700933238436626,-3.8915931839543356,-3.3963181526782993,-2.8515067403316205,-9.20174570736254,-6.4381168295530635,4.298676134018256,3.340675422264064,-3.531868856698427,-4.69894467995899,-11.09602051591231,-19.375492872279036,-11.730344077904064,1.4530236470351512,4.515186776838943,4.352540327974441,-0.6140830849177618,-17.66893190027272,-29.588694219971188,-24.341824997127137,-18.255009837002177,-16.018071425635274,-6.200149503330123,2.7637023132245284,2.0704840203853356,3.6857970294124245,5.697486613237875,-4.322722290860382,-13.590716794412442,-11.31443233926958,-11.55632481301993,-15.373646034421022,-11.523139518384212,-9.791499318185931,-16.36462839961103,-15.725568300769922,-8.245536299584403,-7.768979316601812,-7.3895224754889295,-2.3492277521732854,-6.785746277812924,-15.705104155411757,-9.741758471534459,3.523928713794976,10.717237976985908,18.841938851433,22.137326218236563,6.885884432677026,-8.12864314502873,-4.444058688109357,2.974582792831826,5.907189060697519,8.939058204048282,0.8721417451014761,-16.174481286113917,-16.073368815657055,-0.5713055124378439,6.041489269290375,4.788613112581974,4.250204948161139,0.025604905582139237,0.40854409648374995,15.04290285539854,26.051056078109863,19.633861537122634,11.062449872952671,6.719782996033306,-2.2091200730107645,-5.457449102814461,3.3650006129143755,6.538839197191082,3.521296757080205,7.730366876612684,9.512353331418131,0.954747002013876,-5.837443832458751,-11.272499195304196,-21.813499382444135,-22.805564892718994,-9.312029668999008,-1.4117776336184533,-2.5386287905702427,-1.2659668368299135,-3.3173162301805568,-9.394603090189491,-4.51058376939645,5.9853343571111,6.817975669931112,5.246600535859457,4.4533045094460455,-8.745314624128815,-24.545275895720774,-19.934638773593697,-3.109579367550627,7.4442059227147155,13.034805087718766,10.527371231040444,-4.70695205826542,-11.666672919502286,0.2931258516751649,6.526918279102979,-1.640055605874331,-7.341576142710663,-10.2825695790201,-12.288035044546257,-3.561456550223946,4.562444842920761,-3.2758112816582283,-11.306865112134565,-7.420099862853465,-4.602355642085314,-3.9708816307912658,2.2817823141323594,2.6459059419367437,-5.585671585982816,-5.544308541221522,-1.478028694094701,-6.227590507991968,-5.924596419556341,7.239901385281961,16.474049377650406,19.64286818786757,25.746977772198225,23.36921919866075,7.805990795417873,-0.07464510015198111,3.3650476384874555,1.679711261505173,-0.2897973499074663,4.423240287513417,1.6598114229840308,-5.485635561156869,0.3828621723379313,8.427730984005649,4.7902913030506715,1.995896655666987,3.5944358552776645,-0.9919521784769887,-2.6241467742066096,6.44865832390339,9.648654901360011,5.663303670364405,9.957190525845805,12.784414820470635,4.7091040689527,3.4384791209881596,11.96944092784388,16.878586635056035,23.163321395549712,29.637912073415116,17.907791107624313,-3.1626450390303606,-9.479207202383453,-7.477003128137169,-8.026778657813006,-3.3031040433008485,-0.13929615446079313,-9.84900581821832,-15.80953508243547,-9.640216977304924,-9.6842030611701,-15.396951423661028,-11.65852646879128,-7.082065380531821,-9.01878132652513,-4.892298414129365,0.387193651561222,-7.530202347791297,-13.990486247659238,-6.73541828002659,-0.6192037003171769,2.563888191641498,12.168255955621754,15.932731839691117,9.828209801333632,11.058790151724818,14.254060952620463,3.717095984099114,-7.642096191654059,-9.043760716751722,-10.825998553593807,-8.440577947362012,6.531462390879455,14.543167322518908,5.30913071837758,-3.0600387359880625,-7.772856942132222,-16.774761380304646,-16.676076208947244,-3.642239566919296,1.6417600152134026,-3.485074360692201,-5.884473695714334,-9.515879451764373,-14.867261536753338,-7.492526185921333,6.07580975985747,6.996747664453487,1.5665178706673228,-0.9957867700916198,-9.418471763423783,-18.85404214732375,-15.865644038373485,-12.215872480101206,-16.890101618028904,-15.009396644835164,-7.644585642247847,-8.388711411237527,-7.0931139671293995,2.722468670956833,4.53120534312943,-0.28762381546425475,3.7817816019393447,7.438890297242736,1.8262990491242581,0.9592813411324007,5.376979188574195,4.986416989680386,9.71982631870011,22.21226517369209,24.26815808568504,15.809170870646845,10.834413616822737,6.286176264814955,0.9328400172578069,5.773810206117216,13.884678037394565,10.993708737008435,6.104466174486314,7.003961602745291,5.165451858982504,5.835012614520897,17.57034968961162,23.208582909466156,12.557446645466797,2.3565820057656937,-3.072571769638189,-10.050207359032521,-6.9212537111674255,5.665034537421449,4.615845831789644,-7.767446348611937,-12.005651825507655,-13.245781574262976,-15.599436440567503,-6.393241414474483,5.505718443424485,3.5216335494730444,-0.20066851098836347,1.4438548663182456,-6.408187711744679,-18.51483070623404,-16.913690280603024,-7.779774546337562,0.9794792760533664,15.217918093460696,23.835178228116366,12.390362425028487,-0.4070357678948846,1.9634042071782895.737099778278628,7.2213435598861775,12.906057977883918,12.084269396558236,6.058457401279413,10.874045625875944,16.472187146504602,7.322161837975279,-3.5557732916989124,-6.2118882286135,-8.323258571105761,-5.931492214087109,4.140885005849544,4.837915303921017,-6.924141124270372,-14.029645332601566,-16.190425818578618,-19.1590487074808,-11.410940571094798,5.843899832414178,11.221435600038639,3.7884900873503082,-1.232913871714832,-4.155717306027543,-5.045955959875649,4.437811890517129,13.016935080783796,4.268532587025959,-8.93902541190241,-12.52227462581508,-16.32330324389315,-19.365864669574016,-9.340909031442388,4.069482577592591,11.236622774937358,18.53062883397485,17.186168863325506,-3.1693715526132777,-21.719826287276476,-21.649891338405304,-16.741594224946706,-13.119299749959808,-4.684303039722818,-2.558369837939214,-9.555277933082182,-6.462092794274902,2.5815891568774574,-1.0386813018840102,-6.157761546874299,-2.4877409586152446,-4.114604586060681,-9.250779445185685,-5.298358294185652,-2.8233002807382137,-7.773598966951492,-5.231627792167188,2.296478276467136,0.4753685606473885,-1.1894438704446848,5.503885823055764,6.613702907391918,2.194965544981759,4.056386028460686,4.052512100701949,-0.12617592625532748,6.504009832575744,17.21819896721297,16.316856513824046,11.914863964958018,7.922927550123494,-5.29570266192456,-18.18506352183842,-17.781067017332127,-15.163538578709437,-15.990868903325188,-9.825948345531266,-3.398657102841429,-9.086836749037356,-14.60724594799859,-11.605827051165742,-11.839207189281383,-12.904504446677137,-5.9103179982462075,-3.4147246428693183,-9.429678848808162,-6.493227314889642,3.266307738685413,4.1927339687436,3.494613718962013,8.288177711536202,9.124976483741925,11.244913785612274,23.443642161281836,30.60970875758268,28.687195176294164,37.55970349249221,56.59060037918546,70.76881462830498,85.03995400363347,102.47879386430557,115.77337300451445,136.78996870744163,174.60635762317276,206.71713226416978,219.1953125015624,222.53274788007442,215.23858169301832,194.2138690183392,175.353907530538,161.69743116441072,142.5380232617992,127.04292179628682,122.76981251873895,111.35092494350013,84.52644013125153,56.14761599820641,28.040233816158278,-2.3408213989053124,-20.626886781578417,-26.823650116798923,-40.67721592976497,-59.385172516958924,-71.2009638358471,-88.57437679105831,-115.2875448591943,-133.13804684520483,-142.56438176047982,-155.41708483218932,-165.12100816676036,-173.33283068674297,-196.10985611242472,-222.48274831202232,-231.93186911985586,-233.21307053080852,-233.81532027243318,-226.3594361768266,-220.8346780565115,-226.58607503775391,-227.45246955925643,-218.5413257433673,-213.69190419624624,-206.70443183905758,-186.97698634553706,-169.52780814797038,-162.53146847741846,-154.03390440173277,-148.1569378667779,-152.95702582789437,-151.08063615711353,-137.8211026893989,-134.60993157276397,-137.52393177254154,-125.36846500462136,-105.97944941416293,-90.65634810315295,-72.03971495168922,-58.5827174448944,-62.031011447031496,-61.55713051866387,-43.70793928976348,-28.36841429619188,-21.488384178320594,-11.750223325400448,-4.895573658303784,-1.8973883806908425,10.292946237133096,23.330630470234947,23.455488244386565,22.353942558668628,28.02799432180383,34.02506850992214,46.170664861291556,65.96057169345383,73.3591551034942,64.56652998938435,58.26572375107643,56.70580849624986,56.17179450669868,66.40938150880032,78.43563867872456,70.57312441046419,54.43528289108104,52.151624321181465,57.27482669137676,64.49232273587056,82.77308177949683,101.93019593383084,106.32548243238088,105.34857327739898,104.43754830548937,93.1169192106664,83.25985122301822,93.07099038339312,105.71053206412748,103.93732217163581,96.30408587254821,84.83222568426518,72.23346595970266,78.00865254182868,97.58868073965462,101.96362509069758,92.62733368321773,89.76169440606226,89.94779212881213,90.46013507589998,99.88425387650167,105.84069418581961,97.98567290033368,94.35074153662056,98.46435109580862,91.90837819714824,79.89113280376796,77.88052936909534,78.64100428862893,79.39795652762047,86.84739061044826,85.73653878324826,65.8461435279631,48.37872408669662,43.64342066932752,41.51679117852809,47.28683545236122,63.09227027947371,68.37574449486803,60.770614269577564,57.33353213391432,55.30837298012077,49.88550252384451,52.106789992205854,56.47835979818137,46.842359000614735,33.45390110053317,31.311087685803045,30.598784132878183,26.40465520043054,28.622888955542003,29.354376715987758,19.045478325708412,13.079810496098915,15.114460441587358,9.7922437927044,4.4762032092713255,12.346315601505664,20.508413340017892,21.378838171163,25.732357926475533,28.74156625792979,20.7649973730206,15.545219920014603,17.290827573902064,10.014424645768965,0.9774001684399756,4.812285386849089,7.09668228486041,0.08679536461744775,-2.3593522165404037,-1.5101803745293583,-2.6648594017102125,4.975395242740148,15.47268526722017,8.589743491911815,-7.043438200242719,-12.851690480012683,-15.340110663685687,-19.49621338103085,-17.48839030038266,-16.18169068712679,-23.206854238528514,-26.45330434393768,-24.996579596742155,-32.31021005969149,-37.71116289953945,-26.25619205973723,-14.401434402121097,-14.729329151196172,-17.099036558896994,-22.34550537994433,-31.963360145854665,-29.28298491704524,-18.07210364439903,-22.065932304387076,-35.471090010363135,-38.9810977096179,-37.118435507862195,-33.90769875346134,-23.799622281884922,-19.895068879698332,-32.558383916775966,-41.83522733458785,-37.58298378192164,-35.35708778580362,-35.88392586630455,-32.26736672413288,-35.00455371165434,-41.44801545610204,-34.00352817183901,-22.178377327726693,-23.492909926321282,-28.171808083990967,-30.297824195502436,-38.745066099841395,-44.19291978985503,-37.90029089049505,-35.894733091961996,-40.92237929412997,-36.09742355360631,-26.425485115180415,-25.37163059220653,-24.779959393409417,-23.899407392322964,-36.33668282275659,-51.40572013890335,-51.872902999907154,-49.08971744209249,-48.046727797058004,-34.936075253964425,-19.867274766660067,-19.187546461542404,-19.38528594401606,-15.956713259566989,-25.540337831311607,-39.64866685436944,-40.435416209212036,-37.62258419473979,-35.45532630606579,-22.466058278180213,-10.885464643156627,-16.994670184201397,-26.169942079092905,-28.336705285589392,-34.36123255350863,-40.3643524316572,-36.89502957772905,-34.36936544514349,-33.83636477616501,-23.506595893698574,-16.352560525499683,-25.938111067307744,-35.40901777757698,-36.34979198717902,-37.67196109433063,-32.30346092977409,-16.913430932579555,-10.093848076008028,-13.180349372022295,-9.924129856740944,-7.514537233799723,-16.58189309216331,-21.870078228393524,-17.558230883902176,-17.477042648088965,-18.153217420883088,-12.008758097084787,-13.35933960102087,-24.47171642002084,-27.543502141345897,-24.644943644035617,-25.336961014262954,-20.39894991518814,-11.91302019581785,-15.931274035753331,-22.778226666632364,-14.653502657481997,0.0011039275028670303,14.124413516420566,30.234087567179575,32.22662831712841,13.164821263348227,-1.4648938623045438,-1.3343934060806144,-1.2426239108985837,0.2690058335424205,6.282279034894679,-0.8242980733887615,-19.10427163822374,-24.635257553040276,-20.960547944106967,-22.32861446229563,-18.824896346513064,-10.561002127459524,-13.5560962947223,-16.687171253200376,-4.440578018017346,7.024480051766974,8.844205153084157,13.572511234044763,17.289555672879192,11.581804506234427,8.752690180617265,12.279570315239392,10.225129781991058,8.542805318894796,15.516238613783983,16.70492416714828,8.487400740194719,6.775616984415807,8.878318224355985,4.460495141729324,2.427482426134075,3.674705327556434-2.9747712487162628,-7.269692265682293,0.8322932650277681,4.006049323665396,-3.3993578026426747,-4.974766840322346,-2.1946441458669823,-3.152146517031095,2.1474952847125834,11.926740165914303,11.467712532161563,9.84050057986711,18.713473256291238,23.858786457610414,19.295857728452216,16.958911874131744,14.071853751349419,6.77170979869196,9.71800848237803,22.459593097356457,26.489402038676563,24.378358656734772,25.450563696109523,20.85053838845624,13.960287126461875,19.348237901006648,25.73902575256256,20.51789236578578,16.67041860358625,16.739644605619475,9.337567654135423,3.737191923367385,8.15275339028029,7.719843590778035,1.8739924278790532,5.698849565941167,11.54054102754036,8.354218321028027,7.469350461817391,11.383842921318887,8.59822093620648,6.3584903852179195,14.521053324860096,20.434017794515984,20.19174934480425,25.458460191502596,29.000967702382454,21.532968727466418,17.057669507477613,20.460219709587296,20.499227088091878,22.98004407125939,33.534464668757025,35.636172965759336,27.222927738421816,24.041405589224677,22.218701060935604,15.75164904350693,17.35635036420702,24.978414985699693,23.389865863243536,20.554038045087054,24.22953243679303,20.176491427011356,11.091714720768243,13.080044178933042,16.16453478412747,10.481097068155062,9.07945209143137,9.928497404722044,-1.2740800767523357,-12.436629924852618,-10.331540202971347,-8.055065632723528,-7.826648557072351,3.576456785871804,15.021680457205631,10.463917719424112,2.6923659881973165,0.6650444658686345,-4.5906235476045385,-4.91479337870986,10.823641218866307,26.749237878851062,32.39280917954777,36.08217250372847,32.66274734413416,18.098761216018325,11.34615085104095,16.486175616117393,16.340416142308236,11.814999085958101,8.241655882541263,-3.892285264057532,-16.208898899755148,-10.974821407053149,-2.466635282030633,-7.643290042634236,-14.86291760450401,-20.37057740281147,-31.97904329653565,-35.39677434500484,-20.992292890958076,-9.138305774161985,-7.628299010226835,-2.6768698674425755,1.6190353469944707,-1.6712988768168568,2.402007462534857,14.746958562363108,17.48395160404575,13.874630185668277,12.098631691254546,1.3263861770294194,-15.882250980843665,-22.80017720502993,-24.139592389369888,-28.441534483439582,-25.835434690430603,-18.12082158674637,-19.10365405866399,-21.16897588924733,-14.026523548823882,-8.26352622669566,-5.639074795412499,3.8457701125764783,10.297967588287836,4.7404196986992035,2.86500622883693,8.96838001259304,9.539697836550838,9.07096560936322,14.6716246060499,13.302861169301831,5.034335727471404,5.72797651963747,8.062752981991695,0.5111199020655723,-4.3048098047696355,-4.9541643595458,-14.50976681469701,-20.25636645636766,-9.238386352893968,0.6138934187125602,0.8224356682097792,-0.016209769833235632,-9.744738417971048,-34.45003212834775,-60.245628889773016,-75.61484299628327,-79.72926378311628,-74.50354356506966,-60.309543036935764,-43.62578051727727,-41.19694524488291,-52.71325264125682,-55.90662540107435,-48.59617636331174,-46.18592037786892,-43.051839696935815,-32.35405371899135,-26.95924137463324,-25.18797488318873,-15.058691642389201,-9.015125363591832,-15.797518280744072,-17.829168115640556,-11.82629852964836,-12.437995464885676,-14.496407186722049,-9.587104545860587,-8.284827278749168,-9.263531375615218,-0.477333647979981,6.877000024085789,2.342161838257828,0.3076594216181693,3.620121424534883,0.2932385742314778,-1.4409244752636574,5.994975115645675,7.78874784526686,3.5179558752890516,8.121104570631475,15.15671382675679,15.88920282204069,21.582612185455364,31.97368733214992,34.27087231379844,35.93038946385467,44.16703698170893,43.74698043813483,33.13240503163241,28.338390797233593,26.105073178538035,20.845497468975154,24.21327067511389,30.77908525602085,23.34274810044863,12.595539830241746,13.586997822440429,18.70537002230672,26.384920108429085,40.705952255509274,45.18915836618881,31.2814590428954,19.829410338883818,20.571566504640646,22.68305869661689,27.778290778521292,37.018720819899585,35.7900557631942,28.41279671858841,32.789276300383925,38.61753447541832,33.07906524567116,30.64981759712943,37.52042009940243,48.47853320564003,72.19410436937576,102.60683655144427,112.1906075253,98.42988406906998,80.40765908585485,62.38483444554535,46.619748755050864,44.38792228121453,48.03172315588192,42.233906341720754,38.960955371373686,48.8893023514654,55.86510581919097,54.66153435725526,55.38434557359118,51.03170982607221,38.48373048591597,35.172339698413325,38.65428231084222,30.007425786505266,18.29457641308742,16.639369429140345,12.063579788891843,2.9932575676607853,2.7413271863163944,2.7538030075667437,-4.492426485565877,-4.852435688169565,-2.2391238721760396,-15.047514121325946,-31.94643909704549,-36.27042333478523,-37.504332403310485,-36.70111277556411,-25.131962781809374,-17.51888866537616,-23.131114893545096,-24.739407492235724,-20.227403894872694,-23.577728356350864,-27.810353708695672,-24.705207337725568,-25.935477527207027,-29.08245169004251,-19.760958867118255,-8.36583858221401,-7.499572664269216,-7.7440431677910855,-10.527651264376733,-27.101571456501706,-42.871918872927445,-42.29652952417427,-37.0594961872675,-32.45172487401378,-23.392580327245245,-24.996204384649715,-45.44772374793765,-62.05696762038097,-65.49566041554732,-68.46579451549303,-66.37295032960485,-55.62320390884897,-53.84794166894106,-58.00689388832436,-49.39146283704604,-38.63636585578262,-38.21914613092745,-35.29550192458018,-28.930600533556586,-30.329863287704626,-27.72055019966414,-11.722549690936509,-1.6431744315207535,-3.7483883965332847,-3.411447773525614,-6.920605652142122,-21.62764465993563,-28.965904759058645,-25.661990240056678,-27.999915295707808,-30.28229976514374,-24.467395302233555,-25.33120526465629,-34.54667279306513,-36.56412992870376,-35.24881289102355,-37.36578489516227,-32.2286875191762,-24.6573764523662,-30.70870055723174,-39.99357515970516,-38.435031154809195,-33.651243461598355,-26.180180084984208,-11.825840483167967,-7.858605802869452,-19.926936563591237,-25.580754725220576,-21.902823167985204,-23.021359775347122,-21.759047810053396,-14.489837369685823,-15.997965785401174,-19.61808494503364,-7.830512118592193,5.2934763719186755,3.748392807397345,-0.4565693199596491,-4.6764349589198915,-19.2643281659723,-31.839946529612657,-29.736303034657652,-26.147178058092194,-25.01506922756007,-15.485030362949836,-7.697481376417018,-13.255717802656532,-17.3138418815229,-12.614801124615653,-9.279349122942387,-2.943961645918272,9.483497309911087,12.271865706423256,7.42954245076934,11.893093644517629,17.006923772664155,11.436040690697723,7.609334652331987,7.003613920696384,-0.8259497969198812,-4.133662663259201,5.12950387789686,10.103983002735983,9.59223257308126,15.355666064914548,16.045142249046187,5.867834019290258,5.016358048688605,16.47489540649934,22.977270898376883,25.706995768040343,28.004270608662864,18.424437027076216,5.6881693437740175,9.713903654288808,20.145668694448872,21.810798782259177,23.44586811987974,25.843193223837964,18.25015685437075,9.477112806862616,8.762129628946628,6.313673235507366,4.222284512622002,13.740784736163675,22.519407174430548,17.854389715514692,11.25783528734183,7.3943940221289814,0.8487065034531782,2.7681428870008222,17.22032319441479,24.917057159158617,20.876516598306473,17.586172406878358,13.995581439356409,8.057799733758834,10.976804711325276,19.134100776970563,15.500790987965875,5.478324801537143,1.9295384641029147,-2.2525860898320422,-7.460117695008822,-2.2528706695830847,6.082563263201329,8.330821749630783,13.499373602501654,19.174198141952726,12.156507040573398,1.1471971733341224-3.228788755651311,-9.448372372170647,-13.690191661182102,-3.3572733192124042,10.065473009773127,14.282753152671182,16.527184615163037,14.394685022961754,0.10666652630740447,-9.159044181090652,-0.7566727726462283,7.273806545403656,9.206354280926458,15.91198390581614,15.26005920263874,0.37023104367789106,-7.764235141963584,-6.601374164066357,-10.161297844474436,-8.87946771168566,3.410095180251374,7.693599422029858,2.399097762519769,4.661501640583871,8.885495565710995,6.633030695662827,10.068428071840183,15.708972666380813,7.823071787003976,-3.0813137039867615,-5.312091995582952,-8.733703074627256,-10.847837244099743,-0.9822339834365708,7.494628298403552,5.340185308011446,7.286252663570041,13.371516061128467,11.700254958911597,12.114226648537528,19.534630368513763,17.092982713329523,7.54382813841051,8.474087150628012,12.164060379267468,10.667595799151341,17.446316997237243,27.17477394990239,20.716735326142455,8.820368492911888,5.7118566136123015,1.257142827392015,-2.256643497046112,7.3828953284952235,15.545852093658628,10.1162067061119,6.277941365455633,6.722388160411014,0.7569071119490545,-1.4444789606195498,7.093083131458075,9.934630628243696,4.539115369054138,4.411732664868157,4.562253591004352,-0.3449833982803292,2.462486782201437,10.681343540814796,10.392325612300562,9.935836810053958,16.708764018064976,16.4274908380526,7.509261694787593,2.9926264594182332,0.07954213164717416,-2.661609860757256,5.951424900386279,16.85949985061413,12.10547510590808,1.4985666715954216,-2.1307844833167984,-5.845761827278356,-7.7325352568791095,0.5124162543846342,5.182664681597346,-2.7106758155867627,-7.134534055282739,-6.666173740265304,-14.555722046254239,-19.99440490472003,-13.098312459637611,-10.040238134409499,-13.185326088517742,-8.50798160408869,-3.536628620001703,-6.632516206196589,-4.420098535458217,2.5507319750948603,-0.24739211182694154,-3.738554989633018,3.557321006910895,9.143806320161449,11.423647725709897,25.5333346570012,45.09303163411935,58.19355353120018,73.70777598282618,90.89975410263341,100.48794073644459,117.30225237898128,148.66153373233237,169.32436018675477,166.92837774417882,151.7267577565482,124.19178327329254,89.07037191667104,64.31980238756165,46.40720415608854,19.215982337446004,-8.449267606490361,-27.141908101590275,-50.05538972869728,-76.95833166511632,-92.68700025552977,-102.27938574582362,-112.33319925493404,-113.54239637212383,-113.4096217631944,-126.60338995286449,-138.08945428547923,-134.13466302722318,-128.76552836772714,-126.5317294175917,-118.79759444616178,-113.96519264428433,-115.86515573934336,-108.8112755769251,-95.53111254188647,-92.43186112536605,-92.07290685591218,-86.23714390537782,-86.23315267202437,-88.99806649724474,-81.2765047364279,-71.99245119712786,-67.988125126888,-57.19516791902551,-43.63150687743852,-40.98230561086975,-39.515354661294054,-32.44762828328848,-32.01868165164691,-33.23738592787101,-22.77510591706827,-12.639908732088095,-10.818005078787914,-4.499528555659735,1.5053351182046237,-5.6838969329715985,-12.645028818319597,-9.78140016379734,-8.622886355425743,-6.133237082369616,7.2937539115520185,16.9669726911493,14.200992367251825,15.176759475053997,20.443891695863332,15.813328519900377,10.084429294113352,13.901296402090178,17.773134445101746,24.377695220012587,42.25236174971823,53.12346392312351,45.66476875487562,37.43948585046062,32.71913146814251,23.338156832511146,20.53401858739009,29.367698064112595,34.47690724923037,36.58218687905969,44.71052529341647,45.17260397841067,32.9066559814099,28.321173178793792,33.6026011175023,34.64523754393458,37.52164592567621,45.22545821367072,41.32521183121257,29.07056703077516,26.50865054243186,28.057062008448746,27.16978079743376,35.47473717320226,46.65448980934175,43.4044198884365,36.31518849515937,38.353457844766766,40.14002720648241,40.83063855801437,46.17502335846493,43.46051012983139,29.327036380975873,23.549807895948433,29.341056899874513,32.75792270853828,35.881918831200935,41.011151947399384,36.068245031348674,26.020237343818394,26.02588263650458,27.189555454423385,21.690815570156218,21.906242246965398,24.81643838100198,17.64879097833742,11.58845142233313,14.727561254715502,14.754417105624121,14.850619367799087,24.321678717535825,28.002049000413706,19.803564394769133,17.1235517880879,18.215663733336022,10.736957007319036,6.283232524424548,11.015413371974743,10.516261222416496,7.8378905780138055,14.727763410509292,18.354635451956657,12.08003280265163,12.903225852948374,17.923340085347803,10.162406590418925,-0.686473255847889,-4.008989984748369,-8.36048742311197,-7.422318356411132,7.7583185608450185,16.688520042681333,8.35740753465916,1.4198398550692684,-0.7729203804115043,-8.345607374044642,-12.492415936973233,-11.008787178325434,-18.11203064615806,-24.16713628311027,-11.944869433016468,2.8662087161092202,5.2895713169908625,4.822536205417498,0.3051659123272996,-14.61128196371097,-23.37431532804682,-17.393196958395027,-12.220342817280747,-9.136763155949062,0.9349891836244382,5.923056086006927,-0.786723379564406,-2.4976492337291907,0.9828584694648879,-4.2878307940764,-10.143475860336434,-10.214147135622518,-16.161829995350637,-21.712517239122676,-14.139189606693401,-9.33286308397852,-18.111469351229093,-23.656422593004887,-22.601816589239895,-25.419058454506235,-24.815019777601186,-19.410451207301982,-23.949407967215237,-30.889589712268684,-22.968683516787724,-11.640590921688087,-9.71855891018342,-7.8672829488652,-6.274871522922387,-11.98371937076548,-12.505628802708346,-4.285910083668363,-4.505501985280428,-10.59257021226539,-8.095724352348782,-4.780164557438919,-6.642885672434454,-3.4378375568575237,-0.09391508847579044,-7.200964527470833,-12.358781161924322,-9.176635621241843,-11.633231681719126,-17.27145830572533,-13.947691204939474,-11.677279579542336,-16.941489639924434,-16.43911847276763,-13.03277317563408,-18.006184925909626,-18.331938234632453,-7.579619916328965,-3.320767776264952,-7.046664709757965,-7.350601476845152,-11.379313566068475,-20.906540997912696,-19.76004843236282,-12.000560168938147,-14.442723120159846,-18.723175319696345,-15.782059679406558,-16.73240894094541,-18.029539471124817,-8.680726192544652,-3.352785221984016,-10.118893329800999,-12.526989814470857,-10.683237371910149,-16.211964709050864,-19.67388873450258,-16.63168987624074,-19.953978470712006,-23.089771597069394,-12.454353675273953,-2.4672830383288353,-5.42372478551025,-9.504413036970494,-12.333613758914382,-17.836483197821146,-11.295969557260712,6.49193982251568,8.78643457945235,-3.89943191868441,-10.46775630594942,-15.45450639039839,-22.867892717651035,-18.380209612998442,-10.007040493292003,-12.772462478473063,-11.707853603755591,-1.961996526074869,-4.6031927761177585,-16.275358983188333,-16.683293072081156,-10.711960357543948,-5.6209287320980845,5.310887708183413,11.909618119460207,1.453478678324208,-9.841824978451912,-8.957229296478534,-6.338415730836822,-3.3969351256341778,5.740608247571204,8.94517362182433,1.4029714549750794,0.41649395346021634,6.390827910754203,6.551600004930524,9.544027921755644,19.103678099888594,19.123754090395547,11.261140399847939,7.136656355065385,-1.461913574289572,-15.771702792835613,-17.57120740854969,-8.12250676466671,-4.385547071799321,-2.615588298059553,2.527746889528479,0.300916358817771,-4.752546973249809,-0.280579003154652,2.9694797454769457,-0.2940570631352548,4.783407100203572,14.827726373904614,15.445569808743072,14.21857376589935,16.284533377811435,10.177791598998091,1.4683266284443226,3.2917098957240993,5.762429340660171,3.9460441808831646,10.933748748530636,20.52169861836583,17.408499719528304,11.79809798177716811.923157069085335,7.1501004610528565,2.346689671107721,9.175075311569756,15.188432219906227,12.862899000118315,15.705457996200911,20.93463733521908,16.46374017772233,14.22014443824595,22.00418993556269,24.451016917461995,20.826361298476755,23.121465676021266,23.121798320674074,15.594539571683196,13.817152501589186,13.792559417716458,2.3665859413637342,-8.766127408149346,-10.44667276941786,-15.007078336503278,-21.106572413250447,-17.24726165272366,-12.009232924577567,-9.502501985578327,2.7750345663254476,16.916037232443134,16.42555454252942,11.589306987950199,10.85440281820896,4.584715631998315,-0.5634060927374551,7.0503941706975395,13.923976518067121,12.487171626103997,15.423374500562417,19.546127331507154,15.004746047181936,12.493895872394067,13.902507502151693,5.106944042425619,-5.49942582548032,-1.942261571679892,4.498412912082883,4.165147400462343,5.960663957796253,5.78437958845893,-3.253097856601768,-5.709293480874388,3.531009660709559,7.699075620020917,7.3864785754821956,13.281970962963905,15.44754304963838,8.721803249806618,6.916384891006632,9.69462217187349,8.06075364557535,10.16461689372625,16.965286354929237,13.20242470648039,2.8247645216891955,0.14620601997439708,-1.801748578231967,-7.339740858125582,-4.275746261356919,2.87127033447375,-0.08876150519999504,-5.9200943478749055,-7.899871494748123,-14.564231254993121,-18.86118030343767,-7.800386766808449,4.380147720284551,5.250199594880689,5.1541916154157,2.5725474906343813,-9.591976651783927,-15.566321844844477,-7.723243416869211,-0.4562114615112156,6.3653888774791945,17.659118003155367,17.502290235044995,4.529109063170636,1.661802504143817,8.930861179545321,9.884275662078988,8.200323678671433,5.866375712806807,-6.374025833271784,-16.65103546606487,-11.213821530301873,-6.902378329386339,-14.033358623431425,-16.072791216809563,-10.10470571515285,-6.1834081805216385,1.5600764098087812,11.390525706907743,8.194610637876046,1.1957204967009996,7.148047402073207,15.617194009199043,17.677839828175784,21.2220494899604,19.58631502550607,3.5359970541130963,-9.768130472283204,-9.29788390904475,-6.802256399221703,-1.0719378127686316,12.833166739454617,17.264445383398705,7.033390362877903,0.9975618722607527,-1.323101986236891,-10.876452556394236,-16.159837723410718,-13.37765428770705,-17.2599286194539,-21.652474615047378,-14.604053190509713,-9.808676343676227,-12.91456794832588,-8.71242960309613,0.34715224659818444,2.1023085111291504,5.257001455964151,12.275418604228266,6.793498820362364,-5.250633281072073,-4.839731986590893,0.8685180463784148,5.020538427919003,16.149747541271154,22.91260879717983,11.054920356604601,-3.0278045665345923,-7.679343420761336,-13.35132685174791,-16.135236447956636,-7.534975929001893,-2.6095446427578484,-7.626484929715085,-8.054587206380834,-6.849482524505787,-13.357984388098734,-14.310330988397334,-5.428658250590557,-2.6717822021102995,-4.279131749019814,-0.35296526267921524,-0.92104908469226,-8.692735613668694,-9.051808110308922,-5.520484491709723,-10.109765222849616,-12.114230019534435,-5.616661601268312,-4.574038388153116,-6.589048131672861,-0.6932196625673335,2.2333979373373336,-2.3644101099026917,0.0821995051415585,5.67355166015372,1.5436139382786143,-1.4548946994841014,3.0128448853793577,1.2609937086941503,-4.279384310311471,-2.642871338992031,-3.6512156450749416,-10.315393537626855,-9.01189506397609,-6.3135673388936375,-15.844411211471186,-25.53753359212674,-25.711547635385884,-25.59242958031855,-23.410513080470896,-14.308374213660654,-12.282753720715395,-19.578034150461946,-17.795488857816565,-7.5512936976169875,-1.8153624576732663,3.171660997419189,6.018906759186784,-4.400869704145258,-16.11452630178688,-12.445884231326769,-4.8093888276104915,-3.4981896653284608,-1.9608355443459655,-5.306844553981787,-18.16025515315992,-22.762398709339195,-12.172386009836554,-1.9745100280951906,6.350593432275647,19.747903547943256,25.2681370817919,15.900011914449788,6.297808724478076,-0.8626535267734374,-10.794814957775824,-10.878237704805128,0.6791825455280316,4.2101276954692075,1.1258447190107779,6.123948660714537,11.057074764997616,10.238500744619998,14.281644868169804,16.634931585603713,7.712283367957301,3.189756058378862,8.488828252181046,6.893019177503171,0.2730159118732747,0.06993009026208696,-2.2061578989389297,-9.188637319878767,-8.119929263661797,-3.1950542772619954,-4.510537856815764,-1.6137439922488903,8.26789483305947,9.078164484261533,3.478253612437668,5.273545660661949,7.528889341077665,5.9444329353942065,9.700616999009242,11.069525879496735,0.6009338738749319,-5.4181091140432205,1.2845124229179303,5.313053082304254,5.4302084138334745,9.615502998627,7.748733155624992,-0.6581276408665735,0.5586845382103589,4.905850754780171,-0.5685292103175188,-2.64998988357306,4.942058517531715,8.784051585428653,11.19461370744682,18.33257329867191,16.057611378040036,3.6295641462583053,0.7281439433298909,5.8290655048762,6.939842949985532,11.340927568486386,18.548223974679615,13.974732459375637,6.041432564002519,10.189838690893652,15.142030942224968,13.249595641093231,15.734227270917016,18.61169809657617,12.821242299719783,10.889661034273011,15.659787299121115,10.705468555538662,1.5535857366624606,3.8556316681487033,7.259897355044048,4.215188736439324,6.106843189318791,8.307814916001027,1.1061164219787667,-1.7513494901612492,3.561057837006566,-0.6115955853137458,-9.905298760830647,-8.068537506854973,-4.748342975334048,-7.198053086381181,-3.968815624726777,-1.2076068725408078,-10.231227814133222,-15.760617728204446,-10.14879808956394,-8.407360986179173,-8.054574018000572,1.2503125391277856,6.772533372313972,3.790839396625162,7.749793661663219,15.31180742209848,13.772719019347779,11.681527471196114,12.56888898979589,4.809096206044822,-4.238245544652646,-0.7051519326473965,4.166168018244552,1.987627275963669,3.6790409330823794,5.1657357328325535,-4.936736077506408,-14.586650013603137,-15.998188915077538,-19.025979953993126,-16.291234662794924,2.0686395324988816,16.704647409955662,15.358344060977387,11.434273762995335,5.701317810608951,-6.985085005810806,-11.031485832733148,-3.15409472677346,-1.5004684811507287,-2.6641471993493098,5.222606768048884,7.963416158903771,-1.058019877821343,-4.264575340192454,-1.114622323650453,-2.454269595756875,-0.23022414753962184,4.895296617981351,-2.770436818632128,-13.550301769122898,-9.12297679004454,-0.3258880662426442,0.7166815196514474,0.7570755572264256,-2.9630047843188163,-15.435598085736277,-19.914934493860052,-11.003172874848921,-7.929066756188243,-11.15899970774449,-8.344206512385226,-7.172049818569635,-9.295778645344429,-1.5888556678095016,7.73485752815755,4.283131587151954,-1.2765463145466884,-2.6587392527404337,-9.833920746677293,-15.128975941366843,-6.896415739161295,0.5388396540452582,-1.3708597798355515,0.6184964802520077,5.232567716137004,3.257172502803251,5.790851553816969,13.525781252221796,7.190310609423561,-7.7325938099123235,-12.494451577955015,-12.546775381693335,-12.64832123198915,-5.040768578521828,1.6595117365201462,-2.4293673763694996,-4.795018669729265,-1.3855626923695539,-6.067786709531044,-15.459273799589253,-16.346317248927797,-14.676986208004617,-14.115002198412807,-5.515453566593202,2.4610849519171487,-2.391102642973169,-6.008288920420881,-0.16073446738535768,2.622909207223575,4.5694407632626834,13.15822215812635,14.883050203186896,6.525084266069809,4.379089448546583,6.267137170787191,2.046595768312741,0.3710041833355491,2.047172006970904,-5.11694545509735,-12.917979072253877,-9.318588665233186,-5.653712699295864,-6.50835098008612,-1.3711821571676606,2.340462619600227,-5.423173587855826,-10.213481528442053-6.008186126869686,-6.7237342988192585,-8.263204445125686,-1.4738287081772676,-0.6605190004005286,-8.538204948118478,-7.337618586898559,-0.13790487283324593,1.2849201272346233,6.136069386210617,16.0216578659334,15.383496875628307,7.634463998355177,5.879577781591932,2.9862912344819965,-4.108903831055888,-2.7708888372991862,1.722355989696773,-3.8189157004856433,-8.440921366163426,-3.8279039616098234,-1.6601213791454108,0.0298564380879971,9.249606088885926,10.449923392857748,-2.7989394763894833,-11.16802195460029,-11.582210581222899,-12.94942291033076,-5.963553313470657,8.4615613149713,10.310582524894489,3.0346544777986653,3.355594012030051,4.56296556840067,1.9673069726486618,7.6716189585120445,15.302308908522674,11.000324211571522,6.1468871514490555,7.882723117899254,3.686599640185662,-2.7870875809592057,-0.36462910597471376,0.29747451571284733,-4.702027508481329,-1.5760025396085002,3.3888456827713247,-3.9332817677252163,-12.602782627745311,-15.189367227477245,-20.96794120800318,-22.910699936525983,-12.079016361451178,-4.916526204971464,-8.392118445415942,-7.882836702744903,-6.017880714917403,-12.72172536932652,-15.638552875550161,-8.515498040659473,-3.3866729510629847,2.411394171012997,15.225126893567065,19.6611320143483,10.412163909546468,4.580003569720907,3.6263038792456177,-0.8085781882878056,0.27692467280563604,6.8574981138881155,2.9833032214875095,-4.961952466495395,-2.0818535385154266,2.1685514841951186,2.1063335569681487,7.674208963055106,11.099481915866585,1.6453317899000055,-5.046772349984449,-0.9396074103440915,-0.12576225630399973,-0.6126391208462705,6.875507168973003,11.04023118969714,10.792550127176153,23.190031535942268,43.11998447656136,58.00170746753865,80.33233002469765,115.2129576631425,147.64744785925777,179.40652464979019,215.3898464332563,234.819008552215,228.3011356379726,212.6962065557968,191.19882982692516,162.30544681929985,144.2879350289167,138.68723045328483,122.84322364290259,95.72022114752292,69.38391827972725,38.34652712569815,5.210182013495741,-14.770397159238188,-30.39499838787716,-55.147209863627964,-74.8557067145824,-83.78541028419414,-97.58467504101121,-113.14764121828964,-120.61568219485602,-131.86392591210335,-149.19738824997972,-157.43199396070344,-161.16654227525896,-171.21247191659154,-175.53941391027377,-171.33201722995835,-176.25713226944637,-187.35138355304912,-189.98791263460876,-190.89893608379572,-192.36517211579908,-182.56461558426736,-171.2186874782922,-172.37863942198106,-171.19637754800175,-159.84472315744463,-152.95458962796027,-147.00497959640666,-131.6235058308699,-120.6252927291666,-118.35468798082081,-108.60022783528629,-95.16615939786121,-89.17398477918563,-78.89412037421323,-62.22741620206433,-55.76127097968014,-54.20917732941152,-43.29720261063303,-32.150098482288634,-24.92092088160794,-10.986403678514543,-0.7784154399179766,-8.199422144289393,-17.35959830641078,-18.07019692487139,-20.455095408483576,-17.31988535523164,0.3085190324403033,14.620803306672256,18.506398942354817,25.927714967524018,32.430278655030094,30.25695481741153,34.601533305463214,46.640365688325886,48.04752904019935,44.31714780990078,49.03280327333576,53.65723423807876,57.81826171544716,72.44350441292868,85.10372834976417,83.43722578825358,82.85858731946175,89.86506324833732,92.03910897191633,93.23643717652982,100.48872247221775,100.21582176589548,90.42976758211972,86.92006462927071,84.60677437918255,72.47957600958838,63.63145535931699,63.42772407025631,59.86019587308746,58.75775213312072,67.40464645368013,69.80030432921158,63.470603198106076,65.357508645203,70.2751077934575,66.19542586358193,64.06001567301703,66.9069188991701,63.003028249897525,60.56391927553359,69.01874898185446,73.415684993964,70.45625939103793,74.99564921551723,80.86423794968732,75.48163220474687,69.46250844507847,67.38938536176454,58.241089581940585,49.53822990256028,51.952668127098555,51.37707584426483,43.12071626554289,41.656120191846725,41.519160117198886,31.913955188465838,26.84602420328179,31.67923407219543,32.09192734300169,31.68511037835792,38.74870642250844,39.05108426097243,29.599885477721287,27.510630139848534,29.52303035259712,23.864143275909885,21.310802979931506,25.431758891051217,21.99982777220327,16.722619772625137,22.430599329820563,27.863067997039543,28.03067334288675,35.05447815422333,40.89398180522158,31.910355580893437,20.505767905963495,13.779264885313047,1.2229550750298133,-9.885034181731253,-7.852658905746482,-5.50105678461451,-7.993050478194907,-2.590898160861421,3.255775797432379,-3.181884843929522,-9.190933884294369,-9.306748535725301,-16.71042655647376,-25.141135614020953,-21.390163708242362,-16.52252857580267,-15.229722681511081,-6.170386618837882,0.39111654659587525,-9.149065407180402,-20.38701962573353,-25.27657629317405,-32.39154693169921,-32.78357649362934,-17.614210798852824,-3.9745229758056864,-0.3354767097897314,2.7953325450803836,-1.0855798984127427,-18.62500038571418,-32.01022867519545,-33.9288409212524,-36.97284055304902,-37.34306791090506,-27.592236749439003,-22.734041092954634,-28.18995990644631,-28.72734423078684,-26.562389389374776,-32.07364011085942,-34.31649610598189,-30.501122430859944,-35.19462329085297,-42.12787983710635,-38.589587544376805,-35.95660297007027,-38.820117034589494,-34.14450807120349,-27.656282734170496,-31.176317350577023,-32.70822624037321,-27.758970799694502,-29.691034490888587,-31.988856715360996,-23.59543703627369,-18.875179347782,-24.669236796722092,-27.738572511283397,-28.903396341790895,-33.414982666657224,-28.399576563120515,-14.728578593832584,-13.442609276609039,-23.528523243611055,-31.496080542365014,-40.88943738303387,-47.3868855263838,-37.6858548618667,-24.89892582106139,-24.92625704236084,-25.73079114787903,-22.186022303105958,-25.117822638333845,-26.83723666125099,-18.384814386944836,-13.612696813013658,-14.117643391212795,-5.326135477315134,4.023446207902212,0.2752613781277531,-4.467153585300112,-4.679231154940743,-10.97463255981982,-15.135116665047377,-7.548395968953217,-3.941533919354999,-8.671277702941945,-6.926227761667652,-5.084368644362302,-14.657723260725625,-22.14202884246346,-22.49196696992844,-27.750972101773506,-30.557857081371083,-22.12859632072113,-17.99270235826832,-21.89249512167649,-19.252914633944716,-14.418678494554994,-16.315708016230676,-14.274873636901912,-7.389692871623671,-8.599558366704018,-11.44611548824665,-5.942693611678096,-3.319926846665975,-6.143158247128105,-2.0349890888234055,1.8578405060799748,-4.97390904973415,-8.596254432191913,-4.115308115048449,-5.984549286197828,-10.337287611050181,-8.218572335819731,-12.244252229727811,-22.15574158468557,-18.793307123055527,-7.388639097828501,-3.212555309570433,0.658452848593547,4.371626495234514,-4.760728573705896,-15.816008604027834,-12.847887301104148,-5.535578062734517,1.4166521831806524,15.888697047142433,25.23677157415131,16.756480222883567,5.973850649631185,1.358022669872719,-5.426406962870204,-6.416716355771023,3.9847379118009574,7.926753268806047,2.8188369034001544,4.392191470682237,6.529600421036362,-1.0011911832667795,-5.419215061820628,-4.286148181707757,-10.795308700099094,-15.948009770266566,-7.749261765907321,-1.0077952062903,-1.0582112523896459,5.805623678114928,12.001828310654108,5.017339219779885,-0.9209016879287102,1.023870769249187,-0.4891216027652323,0.36193247045821114,10.685502300143385,15.186693620154253,10.599168670966643,12.031694246981099,15.935214163239763,12.197398164832368,10.104778476932266,11.090336090696605,3.724496488267724,-2.258254343879324,4.5703330156050175,8.434089716883307,2.8462445700905086,2.1617348795881153,2.2894867347324914,-5.553913247959992,-6.55008030735421.3144690217947201,-0.08183791369777849,-4.862164513749246,0.48681929508181554,4.590677677404992,4.1135320131254645,11.290134697727826,17.311208862265822,10.877413842768284,6.503834651424405,10.76835313666284,12.58206020960245,16.485329161611826,27.238859991186878,29.020310629438093,20.7175074354209,17.79752648307979,14.744091121497622,4.497874236610597,0.8681001625427236,3.9354665954707393,0.09645996503751197,-3.015868628742525,2.678767067289707,3.8049843917984285,-0.029269317221427116,5.279996027961438,11.295006082421931,7.55631263573473,7.7304493910958,13.171853673881145,8.891456506195361,2.872164536394996,7.276212258367671,12.07322097318471,16.13162469893776,29.05670177472947,38.52282486750592,32.09991539475348,23.446407293305334,18.738768737644108,8.821026645678668,2.758088029171705,9.77408154562019,14.339652632859101,11.25763256050929,11.717844693297144,8.584830159933741,-4.23785455410348,-9.789962805035625,-6.125588761241358,-9.26600240426326,-13.040267927290794,-6.886335820059264,-2.6563342923980886,-2.7092360894510845,4.012582068949881,8.343128809477761,1.6907040906529969,-0.06847783997712109,6.1891293728796555,5.648698504984781,4.207219341144393,11.582432186155858,15.656696530970747,14.501865750304983,19.492478134693524,21.647743235593666,12.989798675469583,10.008676903113564,15.555844838810138,13.531981368784844,8.995476195390964,11.906363615261427,10.760499599078182,5.538011093846158,9.316535187193326,11.451278378600374,1.758121848005762,-3.5122830295080565,-0.8662789426417341,-4.2212360551129855,-7.710401455362444,-4.619610958556537,-8.480264535444816,-17.522297940515735,-15.567200219609724,-9.999094338707069,-11.256467701477817,-8.525563339501781,-1.8043315607430062,-2.638125921418708,-1.7791771195468764,8.419102671478747,12.71575387330618,9.01575427715901,10.794491759638575,12.360368416925361,7.217680548782592,8.353713758195642,14.471018432382444,10.18117481774689,2.46512869267191,0.6746104141605223,-6.622317419453776,-17.11358046094882,-14.04018356013059,-5.026157937680785,-3.091800648824519,0.40639907516578666,4.516840767304257,-3.5307857501115736,-12.704897572860858,-9.843168334976962,-7.1623547638748795,-7.161443943835097,2.536742894276647,11.570148399953641,8.169361416654324,6.876020958761679,11.090993493817534,8.16072168908597,6.266919867164511,12.73740722338509,11.483691661325619,2.7372226422325032,4.714875264068862,11.108455041642873,8.806986324115757,6.082512218456734,3.313412574439494,-8.511188370385863,-16.115881152332328,-8.221316783419136,-1.3552921143210612,-2.6388185473044534,-0.18741855904923987,0.8140886458480262,-7.099357557538751,-9.709867966392153,-6.169624344841709,-11.281197350816916,-15.552691880657397,-7.328815570902586,-0.9680004258291279,0.29467243784711383,8.98180995806096,15.59858811347923,9.59573779387391,5.9927922812862295,8.434198569624042,2.954963387341287,-3.158430831640495,1.1268124577099927,2.7391481337949766,-1.2314603952424181,1.4964809486058426,1.1153497166922204,-11.581718099561677,-18.724039845792056,-15.364482194448176,-14.757844788075454,-11.504079306586124,-1.3867271416788336,-0.36051713980558686,-7.166555278419721,-5.7657294498474325,-2.9451189573954553,-6.325098113907344,-2.455873191585381,7.0938897906964495,6.020014736632833,1.4858584877889756,3.8615950971634776,1.9689049378848649,-3.7720832242505953,0.15100598064897275,4.517954914848877,-1.8011186927734184,-6.479141073761978,-7.822983590605313,-17.602615232015147,-25.244626190193415,-19.43330043826399,-14.391597041272142,-15.271355429266952,-11.661323195432324,-9.692918556185866,-14.445888095834462,-11.684848895767736,-3.664220469122327,-7.8787586683409385,-16.906221487780655,-17.001575368361138,-15.46621006333896,-12.700789068000525,-0.3820895675503193,7.949250543767066,0.6023834478139811,-6.384914692580921,-6.600174817456655,-11.550631832638874,-14.100306628402906,-6.102818174259367,-2.73886019358131,-6.676781984944885,-4.5623353175493015,-4.256608560173188,-13.811841237398903,-16.37432710675469,-9.430719458971847,-9.957862839076792,-13.96242171747784,-13.011193362396376,-16.75096049122712,-20.274333574718064,-8.456465356741104,5.4746065279782785,4.901120275271824,0.7498989994432286,-1.6235507552166055,-10.883549733217402,-17.169845351070848,-10.983439291390813,-6.491502456046813,-5.7961162078358885,3.8365950420405577,12.805522008341983,9.986321837325022,8.351434380776027,10.484581275531635,4.654959867749286,-1.0551585578446954,1.2243152513482103,-1.3764656287390793,-6.350119903858783,0.7715911393115276,8.237904922423294,5.139533199367359,5.183907131421215,7.946722302381051,0.5438760569507268,-6.340670521872043,-3.333006042380721,-3.4516353444088073,-5.512950577212542,3.267218257451368,11.03900149999054,7.037905651529192,6.134973581791476,10.630348204378981,7.332524556945237,4.0360582454806035,8.539690836257,7.945635187243163,5.089066285727778,14.480059062630652,24.64118035601463,22.932860901014678,19.703221936105948,15.231016743563764,1.0087161868385994,-8.024544183090994,-1.3935999460397515,3.542578602927478,2.552452186372226,7.140612620030185,9.120379407654701,3.5142071034625046,5.010266875355774,9.383640633005855,1.835533197769231,-4.279615063984938,2.941239494831826,8.853482097968277,10.495227050596146,16.82852209482395,17.056100456567826,7.50032430910309,6.950569286140166,14.455201291328143,13.15744388755982,9.732407533493141,12.659703568060527,10.37052570609261,5.379126906852848,11.027049262877492,15.91100057503043,9.296140121250138,4.114955125053045,1.1955877085615505,-10.033870976332043,-17.78686638725177,-12.167040373982783,-6.484969412154212,-2.2888757866929144,9.853353164478952,17.700791537376944,11.177456021678662,5.274628722950215,4.039702248126182,-2.970387370524887,-6.191422448848408,1.4123897368015026,3.5427005311431987,0.1948157706337288,6.580714300338216,14.93386252027482,15.991134903331194,20.56277459761419,25.188474692574175,14.508269562520066,1.155296539109591,2.731235570504018,8.40054226614846,11.8103862794648,19.653140722031186,17.77353580524343,-3.362101995461879,-20.068664338731754,-21.38991284160487,-21.356552597148543,-17.85052726970227,-7.313956744964806,-6.630083844777017,-16.640983417770485,-19.908849817064006,-19.080863763195286,-20.86460812122363,-13.736098537780997,-0.29025128016958224,1.898220492981249,-1.967979548188257,-0.34488160725549855,-0.16698177037452805,1.583895128909615,16.936162528588156,32.0508017083055,31.60829340135038,26.94351614981126,20.7546002587975,4.515734963987626,-6.570758974918316,-1.871182541558798,0.0928645856104397,-5.606357421540554,-7.486292637028319,-12.633775748906471,-23.742735601862428,-23.640286080005062,-14.79023638755885,-15.137809100956563,-19.010821367159547,-16.36037019301865,-16.102963566018172,-16.8894665876431,-7.269350034471336,1.7772014649310066,-1.0352496458206106,-2.8213780829473647,-1.574810833469007,-9.20805599494601,-14.885581982849182,-7.161638972058142,0.7046416923443439,6.8189232295208315,19.658839845970366,23.582363302277468,9.143567894563592,-4.056110929883369,-9.383317932923156,-15.815381487100522,-14.548707802385188,-2.6019422984409193,0.8800637241987055,-3.4934730113166435,0.6385998477908146,3.7969029250021453,-4.669593473405131,-9.70825016636965,-7.325833132104011,-8.882896091102007,-6.719113026230217,3.4270449085608337,1.6561176766236887,-12.418764162929845,-17.035642875204193,-13.5425651125931,-10.55949805001935,-0.09275795358232486,10.364828139117531,3.408907323624105,-9.307655716747949,-12.489394237779798,-14.33422868861694,-14.097090812397052,-2.68044993605444,5.83649735566352,0.9810953584493745,-2.836206160624154-3.529531458249316,-11.890492475507065,-18.5212606308526,-14.844344065997772,-12.999381173399179,-12.54535285412229,-2.037661908627302,6.3148991536952614,0.8950172710128035,-4.627017526494952,-6.152113529950551,-11.933280423868563,-11.198370650411238,1.6207013288194858,7.319034925409922,4.308585225960366,9.235303677177948,15.382480176947846,13.696775680313971,15.502369701950455,17.52213363684129,7.284127018470512,-0.8872571382371568,4.371181793630486,7.888761181900781,7.263216753948763,12.51333506623933,12.523927017492571,0.5786069421173687,-6.979998191299765,-8.304756535995155,-13.390238444189485,-11.813266586267899,1.0212272128207394,6.55934194975013,2.787830007162137,3.1766554175990613,2.268697500458386,-3.7578904160326525,-1.206734804813272,6.149435308786316,2.6174274928774848,-2.521714321877521,1.7793388833402295,3.8153791780296897,1.941354474422986,7.065578169728955,11.385601030134255,9.142725813768838,14.144650639164663,22.6439189683419,17.12677997666363,6.559386563794109,4.252002941353521,1.5646072618457905,-1.3970736123498453,3.90795862145431,5.431295107333789,-2.074702132893548,-0.17975344831670204,9.559093950913532,8.057970348583321,0.7829459221756387,-2.8265627937185718,-11.046178304154498,-17.444353724560006,-8.573684538760567,0.5479179323741232,-2.524146681766268,-2.56547322994499,2.879701961735414,1.238801625754765,0.639109281405627,7.886322759512815,9.133828799346164,6.079398826572323,12.28910018707337,17.001123034432958,10.041140429951568,4.525136500304604,1.9136060096573226,-6.611913813752307,-9.44004969640757,-0.7666775308870442,2.332857791924074,-1.3296777159342117,0.5285210338552275,-0.4167292115788043,-8.573924033531254,-7.7930641643474345,-0.5607272745947727,-2.2675923656158092,-4.153099417775186,1.2256989421836,0.3681644771808974,-4.321603355747289,1.4870982884471653,7.956881419719539,5.900890415076116,8.005685227274068,12.23394940033273,5.843518821679149,0.97233813510757,7.033392475737214,9.319934198792632,6.63514128444673,9.36237800711033,7.545886037314905,-3.3964201741580733,-6.809633987532624,-3.5229148384540485,-6.381292524059261,-5.491977672270206,5.036147228299953,8.896270885723927,5.7155732405969815,8.226804049883572,9.602098354540418,7.553617695678666,19.822211384980235,45.786184726733374,70.81560784917139,101.75751170295996,142.16210289109443,172.234233213213,187.7091620769687,201.24298411496858,206.58292972840061,198.7130929551105,191.64826272970515,181.76768176569223,153.91156236543677,119.68892786441651,92.12759709987701,62.541021853756924,34.32919111696412,19.441646435243545,5.367170312058844,-19.244141151100806,-43.76520661460087,-68.77640778096614,-102.96131814568132,-131.92183237472506,-144.86605758808807,-156.01282813863264,-167.51113490647344,-168.91290799783317,-170.6808222608591,-180.0320969800876,-181.380184141296,-175.47492438444695,-177.17032698910123,-178.88202607433612,-174.87772929839804,-178.26727352030647,-183.04634556147653,-172.00064260699838,-154.9562165144734,-144.32918111985128,-133.62273008841527,-128.2513296920788,-138.47232731429935,-147.82768079049174,-142.47644222806588,-133.50274946102365,-122.4414101001775,-102.88280783894243,-89.05037592695717,-87.79056341403405,-81.79497067840128,-69.67417020707359,-64.45566374246431,-59.89664002571506,-51.6154295902328,-49.758341981333984,-45.38678062128372,-25.179710677908208,-6.207312997076944,-2.437435112111216,-1.8794394892470316,-1.2922006559366386,-4.830103714712214,0.7477612977185015,17.75226616165561,25.98952894287182,25.832563078200693,32.328333338898965,36.51025817572978,31.635135787664467,33.22224392271829,40.20467631235453,39.490527620583784,41.19257440939586,51.49978108660356,55.28402162807767,55.04265428912147,63.160474851564864,67.09332942719155,60.37145007632901,59.38587555731593,62.39177735215142,58.255657020569146,59.763121432426914,71.83754086887767,77.5201669478213,78.13487661971233,83.6555167547307,82.21564986387381,71.02836184829593,67.74001975426404,70.0432653413976,64.3877988154037,60.50657325338582,65.94949876888667,67.43309604996037,65.77819142936069,73.0541279024046,78.27564804075969,71.94994651568153,67.46444771112253,64.66824954948632,53.10121222104353,46.404583174011286,53.697381183668,57.6761441793141,54.697114081888415,56.54047596269051,56.449374977897385,50.56238983364335,53.84299925261118,62.18649991661133,59.2500279862351,54.37296339760027,56.323724554262846,53.87386957937085,51.296724679939814,59.228665144298354,62.49926786827814,53.14577354448474,47.9570786991915,48.05137481339551,43.538341755486755,42.869448424902856,45.080203657070115,32.67473772471925,15.115103347751011,14.565827675623986,22.902118461588323,28.17519139492143,35.72179456840664,36.67652063173379,20.34953321878286,6.466680672691197,8.511747334568513,11.88473420017318,15.327143861155609,27.450737501338907,33.77111872729199,26.58531438037281,22.42287578659231,21.764450269337143,13.910455937989699,9.824762744899406,14.862321908955888,13.517138872087184,7.849104340749241,11.211095807186576,13.401082034506153,6.06448631494378,1.6457105935811214,-1.4716615852239467,-13.55611160029344,-21.48239495535892,-16.98820506880987,-14.03737183916596,-11.354423057263922,0.18412946529064378,5.942974225308853,-1.7465358669101865,-7.387932110246875,-10.309368505139705,-18.48101885025106,-19.5029023140657,-9.40774492319683,-5.29555936177466,-6.268287564010449,-1.2010488611582422,-1.6739551158333759,-13.375136670325027,-19.5863700142525,-20.608408306470828,-28.732504628175658,-33.92044226965237,-30.4275824175513,-33.12456313756159,-37.65493294554765,-28.75703767850551,-18.480183759507568,-17.006386189688552,-13.088328958098852,-11.988498392029374,-25.7787909527646,-38.56170015877932,-39.15033264961231,-40.38625543848874,-40.712394753657165,-30.604522762505635,-23.148482395365164,-24.783570835093116,-20.901958085229722,-14.507691377611811,-19.646883467054796,-26.903053867798064,-27.5811583235501,-31.06982932080666,-32.89276202196984,-23.08774624069263,-16.559592577099973,-23.520916296412793,-30.21950395331488,-34.62697412191765,-43.85387184437152,-45.94562971798469,-37.071748984184005,-34.45888463521954,-36.96898037392896,-31.950366878165603,-28.10228558343372,-30.342345481472893,-26.465045834844002,-21.64801747635676,-27.848382308952218,-31.991580539891874,-26.09514152853283,-23.05875141177567,-20.213680081512276,-9.1936006641728,-5.015764517616882,-13.831007294499457,-19.089251764337487,-20.29176519821791,-25.663347184247755,-23.283030718520582,-11.444796531880886,-10.290193485649041,-18.84744994758985,-21.163561730953997,-22.106924604379163,-24.67955159043063,-17.98318635334809,-11.241190677772096,-19.102237136352247,-28.225717164946786,-28.242841381042943,-30.036135086730745,-31.385537441164004,-23.058603566326934,-17.064788485734553,-18.67166905654924,-14.45478549124299,-10.008303866105138,-17.69125420357892,-23.383700802983448,-18.992641616379515,-18.28514089684741,-17.95126170479937,-7.394592352439611,-0.2451990671779205,-2.850462830701877,-0.4296225660776247,3.5903404821947116,-3.3299291362017125,-9.604624900754457,-8.180692140506157,-11.865172405189046,-15.825991421667283,-7.479979197450571,-0.12521707331354714,-3.3740577252210064,-5.599078906969503,-8.402607967138092,-19.58006471580803,-24.646903107576463,-16.374383346603423,-11.017193939720192,-10.143117125989422,-3.7973890925161657,-1.464672411608873,-6.849203159419559,-3.646724506419799,6.265831252746584,9.005556904332874,12.387466285789024,20.70888192942113,19.959835176142118,13.288197008843117,13.55754132971551,12.541186181515679,5.8909686932285545,5.8481038665959297.061020337226891,-2.1279972400675375,-8.155458852217215,-3.0265446506349774,-0.1768314668042456,1.4344263953701148,9.165096664860641,10.710453519037095,3.8882949005086314,5.55808899479277,12.619432386892255,10.99326522825201,9.070365897052273,13.27628799495208,12.707850391543891,12.19066127435754,22.22326729851322,28.0952540233012,22.228675542839028,21.065649668714535,25.009654552651277,23.7939946346979,25.0309301955444,27.479318632546985,16.40318991025233,1.7508030116076663,1.4684477132972604,6.398347182447195,7.5392441982045515,12.648444266084368,15.227861415113816,5.708022843272557,-0.35255869569819165,3.5974578255541756,2.4826927487218526,0.12404876866787318,7.803205758798411,13.471711518643117,11.214646736317519,13.203448217051715,16.22020536260797,11.993591999312118,12.939483826604766,22.42069610225533,23.308500505834132,15.897659131754075,11.93836452191657,5.121823770724356,-4.118844737907125,0.15379916754216927,10.743418475370763,10.479001883250618,7.765797243707097,7.861385609699706,-0.528864524935583,-9.727250594580376,-6.388948413254018,-2.137828925090435,-3.138904648921745,2.951543826620229,10.228948475473045,4.953842213759619,-0.7872678150855446,2.5665243359614696,4.056577668059655,6.436497097973014,18.441182164473204,25.456424218539293,20.194598238283348,18.438055203045693,20.159671652119634,14.94522451299399,13.037845275897698,17.879810067253057,13.34535150340649,2.7709076993806168,0.13574871435270097,-2.619064217511388,-8.393507154993864,-3.729901398978253,3.3615598158814635,-2.5493424298585388,-9.67966904317302,-10.701899349578403,-16.506828647811993,-19.095435245099846,-6.757881537878365,4.5305659044298725,5.328856833075466,7.106231801365,6.149662256315441,-4.2389535278843695,-6.0199941840469835,7.0055297636203875,14.53384536981575,14.317158416349951,17.071440642133034,13.675539761090011,3.767912559206736,5.507413495854027,12.866521910805075,9.337016968764917,5.644698583941157,8.527834058327805,4.234902982214556,-2.616009786148809,0.8767058235927889,3.0778289365949822,-0.9327276225079273,4.249293095582379,13.282964882476127,10.397571927443249,5.335824893211148,4.918191231676964,-2.0786814902592656,-8.53317053742747,-1.1296689270737565,6.92697718602973,7.693511690001323,13.580514743073781,18.77693958287702,9.879347891679107,0.032084086980246784,-0.5462117568257505,-1.5911954116129086,1.0660431364924159,14.61962324091177,20.793732879219682,11.56446285592596,5.013620052803321,1.8360239756401302,-7.884996917370268,-10.696345938599052,-2.01401784841491,-0.23295471400919932,-2.7145719491274134,3.1810016611289322,5.731476603532061,2.133239743045482,7.8401178072635656,13.698509384096148,3.5708465375123133,-8.578815274461922,-11.300091528187071,-12.987953595006655,-8.94801892728964,7.1710082839515525,17.145909728556816,12.984558667370935,10.151852655266378,7.252693953724105,-4.507618877591753,-11.017251846006843,-7.193580262585229,-9.099100357845389,-13.902596770968689,-9.076943860719616,-4.308355203358113,-4.907384838977159,0.73838635264516,6.337340086771655,-1.1113037699096524,-8.986867015616594,-7.962260145688937,-9.23183291200506,-9.550270878593563,1.5420299655534384,10.626153911305428,8.454852316086999,6.426262954803252,2.3215119647816342,-10.858045749111838,-16.99205035570729,-9.133460827360574,-4.181645452215269,-3.8353537002128055,0.47637458310224545,-1.3405525609594109,-11.141128821635162,-11.269399390830511,-4.421049972698356,-5.761590248008676,-7.420263367309445,-3.8565267514182984,-6.869460313568801,-10.57931610651589,-4.396873730586482,-3.4738462599647995,-13.117286830247318,-15.447423733080736,-11.252483382954576,-12.311643282859409,-11.224591728802444,-6.954275462242152,-12.415136877890845,-17.84596398800205,-8.096614935125642,1.1279638526705222,-2.0364885828199655,-5.793158825669324,-10.97528042741576,-22.192779825852618,-22.548775927903378,-8.622062594565863,-0.6645213531149359,0.6405342971145666,6.153581262625657,7.179606742933826,2.6060319682671294,6.1243987921352225,9.848055023863404,2.463655793374647,-1.324993968400871,4.045198956291092,4.097661844852707,1.3674368799541696,4.119576358874049,1.7940757261236546,-5.210421125023589,-2.1250316877375512,2.374031039775059,-4.864314881062932,-9.298726096905298,-3.0041295166133013,0.3972615493139333,1.9972971288998207,8.946380863675442,9.479681778042696,2.8464955956241074,4.930590170726561,9.359047581068701,2.787012891141387,-3.3687979737434857,-2.4764134939954876,-4.885838296523039,-6.239347988925785,0.3132869183657494,1.2039054498436663,-5.799084677873408,-4.711892888891699,0.9318514030619409,0.5734625527320398,3.900833508139498,10.388190632684385,3.5826574194734744,-8.142584410482005,-7.51233895015854,-3.377632674221635,-0.7033196087510973,10.317474584185964,18.300662438163858,9.680304455190674,1.1593703709359395,2.232511347151236,-1.0875859169045936,-6.557348888297931,-3.656411562440678,-2.5232293389006104,-5.5425876956950795,0.4583527090887958,6.9478278920870595,-0.3363056868705021,-9.000012955206447,-10.509214931908645,-13.581528336115168,-12.489515007735966,-0.034675095753283536,8.925946623307645,8.758099489319866,10.76179298223181,10.034875602926899,-0.2704577165265256,-4.940020694313856,1.1312040654672608,3.4009563432928593,3.2669774824455073,8.39980558520548,7.093051797417907,-2.2459681647209795,-2.7014581169396212,1.7110397020930443,-0.7279378137712251,1.4697270073326851,8.882724633943281,4.408201864084138,-2.7853320746649617,3.116306431401365,8.750789919566573,6.9296110706446505,9.357102000444748,9.90664116302446,-0.08736619507990984,-5.184560012477434,-1.3689483507112883,-5.066026168629508,-12.165867051131404,-8.318516043019386,-2.5939848483118917,-2.2980390012980023,2.606265195557393,6.748321836206669,-0.956731718626961,-7.369209598180804,-5.294099264079794,-6.491121805774198,-5.785989079181249,5.616064341673098,12.456387864543,8.77055573045927,8.364879476539079,9.111720923403034,3.983110795873366,4.202741527073291,9.858815059711407,5.682891686336435,-2.5037643950045183,-2.390207944732721,-4.533837394980677,-12.538893833117566,-12.102806794817576,-8.146375165014582,-11.862735549681156,-10.356535525851035,-0.5214905118946249,0.2269173136799083,-4.379107091821105,-1.6804137842026563,-1.9670845926678455,-7.740927965366441,-3.5482688763730015,4.581901446976551,2.420008607570155,0.3294648447652462,3.6798760914406845,0.7092468737505655,-3.5101974425773252,0.5115067934672255,0.24608029057602254,-8.072391847914297,-9.6797019162316,-7.671015158569553,-11.549731624845494,-10.635980924034687,-4.58613029150898,-9.208314471216053,-16.99161212353288,-13.641512062604255,-9.933921913373148,-9.829480394252824,-2.1331031210988574,3.596550418342666,-2.918982528084659,-5.205785256971824,1.1479490263048762,0.3419340461652536,-2.8009172263185405,2.3013402801361202,3.7472748180991386,-1.4043127112049971,-0.3980043368344064,0.16024950187783177,-8.084239131349115,-8.887761622139397,1.831769464839197,4.705786370617249,-0.22216726192435088,-0.13675662136067257,-1.7875648564376547,-5.289149606260757,4.038069900188304,15.299316382474297,9.889996702906469,0.23960410321633407,-3.0876022573785633,-8.563323541250497,-9.051716834156872,3.353094047237346,10.327694583431711,5.191763517334006,3.714913686568683,3.5233188802649007,-4.003016651892617,-6.248938018646552,-1.2404078252656305,-4.2966503188333425,-8.360686798833017,-0.5428577531968548,5.3333495815994585,3.418740364593753,8.010383538043994,12.824035687206436,5.747897379920908,1.1203255278332933,4.462108364590317,1.4261979676515264,-2.3143371800944568,4.091249756841028,7.473366900896645,4.0329621575257,7.1722576055218319.625000483419289,0.9199571477666262,-4.012202564408663,-0.09255971194989998,-0.40928075129845354,0.29812636931768577,8.77153362621833,9.86659968056952,2.181261186630251,2.3132865949191688,5.7342699836412905,2.1626157730453213,2.620530620971666,8.028612993601955,4.053822096873814,-1.8994126148560397,1.7798149333657456,3.372930777130523,-0.31054819879869733,2.4835348950039213,4.867117818756404,-1.5609231610723673,-3.2892206577806196,1.2394327023972704,-2.9585281159773595,-9.51222404009001,-6.778151434391459,-5.452540367952115,-7.8460115313386165,-1.323525610289626,5.888920477344786,1.7294138744310095,-0.38572093790017276,4.540156553132736,3.2046744942691605,2.221367800238699,11.716121572701274,16.533263228108936,12.15532392909103,13.47391048622778,15.9373614934139,10.086629701031438,8.260327318827398,12.449215833202485,8.648557529679689,4.322235026223151,10.107560958143443,10.961027977357638,2.1719877953436217,-1.2170729449180686,-3.483061174914957,-13.540214044231327,-17.81420714445119,-13.67521398379175,-14.995736992660355,-14.428689978715191,-2.567239978609884,3.9623996721005694,-0.4501147393081748,-0.3236786633135065,1.8940225986549541,-1.8752574936413646,0.6661617162769122,9.973621028680263,9.399616822949065,4.76402865686741,7.911317897630957,6.896691154318775,-1.049015572305732,-0.19104262788412707,5.733076001569969,5.887633386116829,9.66404166007164,16.616674878226945,11.382914922429986,2.5460246877309425,4.8580852719843675,6.70837574474543,2.8020791201235378,4.859144891638542,5.762121344779946,-4.190278993259458,-10.729090323062907,-9.174640215575163,-11.366724249539585,-9.916023336914556,5.755706727459478,22.536647763833294,36.23654061824943,61.656143048547094,95.39269440231739,125.5876850610938,157.3560416323355,184.77107320224184,189.1374984284383,179.00206996936572,172.17276689986014,162.04994064752302,145.67334295622626,131.6606039120766,109.0516832694937,68.78676157048986,30.645377956180265,4.963364950934643,-19.461237059390008,-39.2484894899621,-50.366296250654266,-70.02452606255979,-98.88030937657345,-117.01001747762535,-127.27255708073193,-140.30537781946217,-145.68445734111924,-144.3446146936572,-152.59580277098775,-161.42706707622372,-156.46781588287752,-150.75387305281,-150.0421183688595,-143.250791524034,-139.20224550973558,-147.50315704189947,-149.94538428044476,-139.45919488721708,-131.94020877958854,-125.85947363768726,-114.18657942609138,-109.58182423519185,-110.99690153902189,-101.40804358001016,-88.692210144769,-86.27646382864629,-82.84525157999019,-75.13776063803036,-74.80311321305355,-73.92335283148167,-63.245860257317176,-55.629026177716504,-51.16951521928289,-35.158938334804915,-17.88670128162494,-14.803503368268036,-15.468993400671145,-14.718953653495973,-19.921677935054742,-19.654795808774775,-4.9708873181904885,7.251659385711833,12.001285119865571,21.81184693643899,29.812479403657644,26.503757213781057,23.98936783201527,25.574819432132518,22.511260202683175,24.280684834872773,38.45060137947527,48.940916219217776,50.56863153152395,54.376225179007236,53.098162124666224,39.6408542677842,31.955015227375124,36.780289701238786,41.13303246380724,47.89528335067587,60.29039520728436,60.576115080613235,49.16630174014557,47.21293536971602,50.87324239892475,48.79412601801416,51.98045077310024,59.93745949519621,57.467138770797305,52.92635420254242,57.949045847014965,60.254926660749234,57.26599785312986,60.95322918561492,62.77838523820759,54.14305982947506,52.13458195776701,61.01143334542251,64.15399693637596,63.19244889879158,63.98800252766605,54.737194028875294,39.09254912090789,36.19412004974132,41.088256287419085,42.195096652871925,48.7761880312177,58.510563612951195,54.48931467238286,45.11869150798443,44.34539399314495,41.52077772012416,35.15161025865841,39.27927106837805,45.24092753443398,40.38465655812009,37.773046740603846,41.25955832197474,38.062258599607716,35.41259060319633,40.713704799534725,37.24760855853331,24.25966118826913,21.67651339188397,26.9583721660166,28.7599134173601,32.28512861851458,32.694504324225996,18.689834823034108,5.146215485738604,6.364126447207471,9.039983724405571,8.120571576103934,13.672405536412393,16.964077292408387,9.215539999864355,4.9925479997432625,7.003690786551396,2.399419139743711,-1.5882004712737987,2.732744973530682,1.1814739907793315,-6.083568245734489,-3.0289790735484683,2.799701694266324,-0.6150661551050773,-1.7106581459040464,2.1618811479482805,-0.9079050668239259,-3.0002770431604766,4.611439495092971,7.595969675656024,3.7903369461721996,6.57268593187638,8.161849667661203,-1.0491055649598713,-7.577192860795698,-8.577472215577416,-16.003113182212324,-21.721113566189697,-16.974954500419425,-15.92093688370639,-19.94747781546149,-15.936331010873353,-13.746071029694049,-23.66907943737874,-30.670466251900578,-30.765547601316243,-34.764669262747034,-33.395527540281094,-19.696615912417933,-12.088206993951982,-14.197021952189074,-10.438148522978423,-6.684619172174792,-11.97715718589084,-12.69827759260548,-8.461229814140664,-13.826923260709234,-18.624154470449557,-11.694175782536323,-9.271372571122166,-15.86150730290308,-18.13118170765078,-22.58473658789766,-35.835757683599034,-40.53701404504031,-33.52385990465821,-30.74970495936577,-28.638086747975898,-21.685204427803825,-23.929576044668085,-32.060932668555786,-27.42261534372836,-17.33186550572688,-14.030182349827497,-8.10140578196816,-1.59171127113261,-8.785389426800135,-18.54392222765725,-17.54189651334032,-18.19438125622278,-20.45293155638345,-10.012127719359361,-0.5484052519140561,-7.677980336767018,-16.278692739807827,-19.503795947686676,-27.268169473773785,-29.842684267086867,-19.35788206312906,-14.687524918106346,-20.2743223777629,-19.775303917784896,-17.656417950642485,-22.78387150068049,-21.901195831415862,-13.72280155843697,-13.313093441814068,-14.85836548385797,-9.777959667856932,-11.506578439357684,-20.821184239829662,-21.55310211162857,-18.21012524616276,-19.336304153781946,-13.444749703748464,-2.206140078064743,-1.9480037954373648,-5.990614309875107,-4.401151474969994,-8.175653081215305,-15.101023676823694,-9.745524202499631,-0.8852493442202283,-0.6367713947152795,0.8955230239570128,2.906470580099198,-7.283481278529262,-18.366743904318703,-17.62694474713885,-18.045744824347786,-22.48129710855726,-17.69283159498587,-11.23652453618256,-13.60523995450315,-12.557620331335343,-7.26397839921348,-12.26990772624908,-18.88226338892715,