16.181123620708526,13.572564746226794,10.4645223894502,3.9032379462664197,-7.532798562150614,-4.076215977721635,12.50394125722908,18.117456821083657,14.30815869621105,12.022349414349454,4.236711826478727,-3.797374625070565,-0.03982410456854213,0.037017005595727126,-11.98480995532946,-13.309177039420298,0.09898205008462124,7.730643870559262,7.865158266859464,2.9046943913360614,-18.543596207732396,-46.662720993432124,-56.06606620266742,-49.42727344594989,-39.11229046163781,-21.70922322594633,-10.73619439905287,-26.432990622381954,-49.407969011555764,-54.01254832353412,-45.95837286543061,-31.655042441471565,-16.465530539855514,-21.592623163050803,-44.4254339268278,-51.97607594725557,-40.6269344066682,-33.66260975509819,-31.644192047582997,-28.05191614379862,-31.27235106500671,-34.33126163347173,-23.67958707694352,-17.652437130865387,-29.93918767066744,-36.638447391108855,-29.575053157249357,-26.85877291289427,-23.398010591612966,-13.462546998239834,-17.885896895678755,-34.12581408503079,-36.25975363101516,-29.636894365633722,-28.06080907262127,-21.03852175857112,-13.672018054159143,-24.57819523638546,-38.70999147084459,-36.580809225596305,-29.80835574409326,-21.63085068112692,-1.0043134283343438,17.60400652318023,17.060259616704023,9.256215055825429,-0.9355793168165307,-21.69424458333688,-35.18015109231466,-23.829241530481255,-6.165434514217233,3.3662196624132106,10.29893214729995,5.578427965515925,-14.541345357841145,-25.34830508235099,-21.882182972378928,-25.52302314573338,-33.26444458488628,-33.56987522910755,-35.965240562536664,-37.05219121055798,-22.97502665764706,-9.463375185352774,-12.334032545890548,-15.5771123489176,-13.871170622519717,-21.57097894974156,-29.00429537346869,-21.763470369507353,-13.208725089476086,-7.794910563858204,2.7617270065427335,1.5696384445847915,-20.741948484151912,-36.13940514124688,-30.941409763173,-21.386670938963107,-12.158340335934636,-4.1402054378680075,-9.539741059007948,-18.270609513477144,-8.393763259043908,7.496186868274492,9.598116872618432,6.580738200190246,1.6859741473127374,-12.5264950348332,-21.161277361893095,-14.234259098649984,-10.031817773936599,-9.704622639691785,2.5005140985132437,13.626580307751276,10.565247793075656,8.286805519023023,6.841755940881178,-6.440475526184884,-16.990257011558974,-11.763766326036421,-5.6599238751605405,-4.028107719670355,0.7300426577053725,-1.8702521010748754,-15.071282651229437,-17.094954362477264,-5.022062660539137,4.013499007812395,11.670480381966195,19.286419993936033,11.9759464222942,-3.2718894270374994,-6.145888336618936,-4.856357246281778,-8.437848837513926,-3.1453457973234107,5.831167067351585,0.34372457013120306,-7.297027689162594,-4.747402418373166,-4.546389302737512,-2.971238206982977,12.274800975091624,23.237265641566022,17.863606729463882,14.108671918181571,13.864845771013245,5.84973654458131,2.55866250717458,7.8792171385905245,2.202145189709976,-7.837907996380817,-2.0286612428016744,6.394287707093355,5.270356126210354,7.643455240293286,9.426418913054317,-0.12393168131740495,-2.3328446009466455,9.909960104192391,12.351439790337057,3.482842262000773,2.8978827146493638,5.475512379096768,4.400825982992448,11.264448926849546,17.115421159175618,4.17245588008897,-10.106659118764826,-6.854558446915309,1.036480525214274,7.493822565085159,17.730466205445822,16.425111543479414,-1.2491883528396706,-10.15338725058092,-5.53568995334004,-2.7568356464362296,3.8066920736506757,15.235745398770185,13.538851145818825,4.65900375943383,6.911832420195394,10.967248803837226,10.087253857479077,17.37111554817016,24.96105216746485,16.86147411014386,7.66658709111557,8.56611846289738,7.949969658755641,9.941700603783339,22.558582306366485,25.962684267481958,12.110499375307391,3.531567169310924,4.16937255650482,1.8392904490811408,5.8384995130712705,17.2375357167016,14.535241351155438,2.883775219844932,2.6760019666830686,3.465350403037305,-1.3126235851631174,6.142778885521778,18.587188515487927,13.727950891195588,1.3906599151537566,-4.7130020073618315,-10.053536231252338,-6.043227987488124,15.256056513463797,27.892636531638384,15.618229181157089,-0.6271687024715655,-9.479216560066968,-16.479525658902592,-12.661334904341569,3.1604725629358885,11.588637813825025,13.598263562295003,21.750816663336735,21.23930770616061,3.972871799925749,-7.460919959760979,-7.493137818646787,-8.311947497473568,-2.070452939651534,11.20231263638492,10.73755012857416,1.8630089254144773,1.8327514053466527,-2.525723984902185,-17.02774441530191,-20.699436657862453,-15.355986472837937,-16.329150851994857,-13.22695135037014,-5.235706977147634,-12.2264458142161,-24.359729423022923,-19.59022538967355,-9.380218089632343,-3.608086650547426,8.231210720304313,14.669316345449772,-0.28892278194587195,-17.443119030873458,-22.18213999161346,-25.050952190565354,-21.215172116257165,-3.261929016313294,6.788060588974505,-2.333539921946519,-10.975487124276889,-13.768997649935017,-18.668912243414763,-15.312752367582995,-3.509842119909878,-3.651346544750557,-11.07655042107278,-8.577679455931781,-6.692902643619922,-12.334603116433104,-11.057618533431034,-6.0789249610633975,-9.859993498269594,-12.304032455338238,-9.111610628562982,-12.815869488140155,-15.066383154319658,-3.2463627474848464,4.063593456230438,-3.3946815545891367,-6.890476558287516,-5.26455645436765,-8.897989276057418,-6.172729205635644,0.8947805173565091,-9.207913986630235,-24.016491730076307,-19.847533650837967,-10.302171239208771,-6.606203843367178,2.711177364961479,8.683767454954701,-1.6944866686009217,-10.326063139863274,-9.76100053480619,-16.670942399366904,-22.726500556557696,-10.571595140070231,4.873142801993055,12.963438357082238,24.216470187440144,29.17828049490661,16.263176056559487,6.094216973127304,9.107042714599316,9.7237751792714,11.518062806069672,22.82829297999561,24.214748047622685,9.974916416120074,0.9368688021364014,-3.331974797607152,-12.38843524069204,-11.167202805070572,4.145119227152625,13.7929959743485,18.556518995410965,27.54420394109213,25.259244589355227,9.420240347981455,4.009959302918993,8.915694826355676,9.072157657741167,13.786698615259768,24.56795328057563,22.933463615922264,16.378602368788812,20.887433521353277,21.297252032787732,11.443173842176513,9.853628003718296,11.501617224566129,2.83505974043529,0.5550743450163161,10.773114492199303,12.258527345614002,6.348061559520484,6.4855967667541305,1.3468944929384983,-7.639498764279844,3.8507639179905153,27.614561868660655,37.00684890369,36.47652978227599,32.36952040121438,15.924442059066005,3.3104878212383686,14.091223603982575,27.721690852311813,27.1986675259374,26.501487786284535,24.154456415891985,9.548000662143073,-0.0918932372666661,3.23238844919519,1.1174100019472375,-3.3935632571424996,2.258455774488578,1.96933360441547,-8.960129636942582,-7.741560370701974,4.841494023624895,12.35293985768905,18.60045071330132,20.41217751438419,4.61015975966388,-11.543092689907915,-6.987887028634644,2.6305790073393105,4.077987487952377,6.249226623205643,3.6297846151723157,-9.860113357257662,-15.065706630683426,-8.662895311134548,-10.905706282591364,-16.19972865998386,-9.415297119840753,-4.264051400228167,-6.595171029193964,-1.7007487712675196,1.8169411937656803,-9.670162228478786,-18.665516334266343,-15.897309534315486,-14.5396309512297,-8.23490640747381,10.638474582708643,18.479443502242162,6.270114621072759,-3.0697099838435915,-4.1501977358997255,-3.4932508025806466,7.973665359010896,20.56488953272992,9.126101501264174,-12.526427082022117,-17.43359690171457,-14.514204570790563,-12.423476160725869,-2.699146111001463,2.7221711391281467,-6.077444097551572,-8.483630341183453,-1.1052340433958938-4.654664785636623,-10.763194052534223,-2.3749585038197765,4.74848893861414,1.4829606446397738,1.5788823642095973,1.2672535269869565,-4.248082523908408,3.688517083773595,21.293902291721963,19.586160887636353,1.5148553107104377,-11.703739443970608,-20.108646109566223,-20.402956119682433,-4.032910924586691,8.940273497449246,0.7356903720312875,-10.161542960176657,-11.568081199317565,-12.22960301550497,-6.847596042730915,5.7895054385082485,4.840491667857049,-8.337305126141025,-10.746923901183722,-5.530888100956478,-3.9419529482437397,3.1744398963997567,11.140380541628952,3.188896720302823,-5.715703133269514,2.0149287843029327,9.8371355542384,10.022510363496032,13.846211741776436,10.432360870157833,-8.47152588625549,-18.561406406563133,-12.387066884138441,-10.75759935470537,-10.776189890068089,-1.7942835911104957,-0.5843846993593333,-9.519015928375927,-8.444707796795726,-3.8467445581785347,-8.127157263938532,-5.815656786612668,3.285641612683123,-2.4419488269973075,-14.840506795055699,-14.042075221477468,-7.919674538446412,-0.20473572759283565,15.989416078493623,21.69216616774439,2.709283768233832,-16.517711340481455,-20.35703301828182,-18.92685247591923,-8.293257772597732,13.542871257291448,22.618696950543388,13.548946266511681,6.266025952780204,-0.9431936751562862,-13.539971014657894,-13.204738224876241,-0.830173575525297,0.4785497079314722,-3.5426621239049947,1.8526183117732828,3.877080847220191,0.1943667739851791,6.283690846544573,11.980693724460233,5.54848079857831,4.136719342082294,8.93222194877771,1.463436284220923,-8.38329992642019,-6.330255267770443,-7.232016940128528,-14.021864062700256,-11.596811708537818,-8.887935065178581,-15.219510572561521,-13.224768924107925,-3.763962988442901,-8.399074189496188,-17.720543947353647,-13.172395727915847,-6.213773615617892,-0.493160126508308,14.524425632650823,20.695628941174448,2.479101366038898,-16.87812595076607,-24.13104480157466,-29.02407747064916,-22.888041432615086,-1.7980070967344641,8.519955425057136,2.338086230959379,-1.1707028057957656,-6.4814485547488445,-18.989076806941224,-18.92238656402287,-8.254360752937163,-8.792307079101265,-12.156375714210998,-5.11605794975355,-0.7170027955882493,0.854263853776328,12.596652450062038,18.842680876556106,5.904674194160688,-5.216610607866407,-5.981181656674437,-9.094717006056229,-6.596601708682796,6.203674803278975,8.628083652244769,0.6214511340022493,0.13484590338915203,-1.3627082211705996,-12.270729671087738,-15.762912538580451,-11.428551030723483,-13.615948212641637,-11.81111747716281,0.5431599727975991,3.900822608002354,-0.42846928979327137,6.6390831206362435,14.444145445079998,9.080223513084514,3.279498892458613,-1.8022575579123685,-15.516400431740339,-19.78935016620226,-1.9721855622099431,15.14440415576779,20.628920362669973,25.20499876228355,21.325755902450148,4.9138092945243415,-2.794357960019603,-0.8060443493589504,-7.769506358638033,-14.629589137818773,-9.072050068638067,-6.282191325899785,-8.504111981976356,-1.382913831069088,4.158217066309456,-0.7346955117020504,5.2937371746142965,22.424245108562108,25.68970244633484,19.319659204070927,16.15100189659924,6.913323318681625,-0.6109920484263611,12.76227351131175,31.270407688348577,38.44459129199707,51.393357432707134,74.85057950196008,95.90303257547338,124.69246802905761,166.4098624478292,196.58471259630545,209.284259562606,218.70108150544257,214.2352044450507,188.55172286956775,161.7973906882977,133.92506529781318,92.53813764771178,57.35424379153257,40.94389167090184,21.790890947530386,-6.838778918653887,-34.491349492096674,-67.55946388217848,-101.0929694867437,-110.01883031733011,-105.2824705274028,-120.17145968426954,-148.56479263535647,-172.98182961819572,-198.1881815148542,-212.5577080599153,-198.23683959585384,-175.35100070069385,-163.74522638892643,-153.825335633686,-151.3953239376549,-169.00424439825377,-180.92651727818355,-165.34203881011118,-142.7826410365402,-127.61982804064996,-116.17781979459022,-119.82301501026642,-135.67184964515036,-133.21873235094716,-111.66499957310086,-95.53932720341453,-81.57302715777523,-62.123577906261616,-50.97700667185849,-45.18274168611652,-32.37776501374788,-29.21855496699886,-43.94391088390523,-50.51011385247985,-40.068757493799964,-25.08669611925523,-1.5997423446957253,23.482694381515508,23.114596683688315,4.3601306777549205,-4.195420994045919,-5.699511606417914,-7.239904321798813,4.964830712053781,24.20528490272977,31.195067879400447,35.07666994457843,42.03164298178828,36.63748686017061,27.298416888887445,34.6007043805125,45.49673415912271,46.518079368067916,50.130937808650685,52.11104961132649,38.90570219313976,29.085012445497057,37.073175089108744,47.160066306351176,58.29330307973562,77.4020790799102,81.36061185404317,59.74219887907397,42.63041134258529,42.7590971805928,46.45325768691047,57.71754157693809,74.86663634155089,74.40059948085653,61.241548919946815,58.81128738861992,59.58206600011802,55.38216648852665,61.799959414837744,72.7064166454079,66.48352982536078,54.26790592948008,51.29394021407167,48.83940202615101,51.794514978604944,67.99022503271516,73.85816321158629,59.16911805444279,49.781798501854446,53.64854291493475,56.7776889505443,61.11895342940109,65.27973885667421,54.18623264689312,37.79646437788073,37.198672151117314,42.52965317503559,42.477527504822774,47.3984471268224,51.73998601066539,42.08378946698177,32.651449656804516,32.51121492374015,26.599907946833913,18.251764425707364,22.270542319674078,27.790303575230578,28.401842305923843,38.104030352078325,46.76581139861129,33.40468530665496,13.505323126257938,6.219603182061979,4.587783513817989,11.913367201237845,33.298909116218134,43.126321901776365,29.733146999171787,17.98931734004626,14.8697562238154,8.543999336602186,6.4081413814733565,9.120096309266087,0.5124773808812879,-8.698790837061646,1.2173111556561036,14.642036721674437,17.165260048941384,20.386174642457622,20.140759050977817,5.940270613742262,-3.813538411489088,-0.9904876407727383,-4.650480136385793,-12.049540385405932,-8.703526238741187,-7.73579043566607,-15.661744852172994,-15.13476291249724,-10.430770827916835,-17.839771977731154,-24.045360464131946,-18.13864271421431,-16.288543872744206,-19.766865122034808,-15.300887056986483,-11.999557483127548,-15.210066019054034,-8.083217736780032,3.2281691009503906,-3.528285823798005,-17.786782130853407,-23.191492383559332,-28.114463359688976,-29.52641169746401,-16.810178094050315,-7.18367712920643,-11.316891777547402,-12.19214215063928,-11.668072908092945,-24.30780394931254,-37.315381733433824,-41.100849500690835,-47.332794191094564,-49.207078543682535,-34.351178803080316,-19.658085115375687,-15.187492700302784,-8.593001741488273,-5.51393195617471,-15.014822171655528,-19.494911536739604,-13.22874458175598,-12.528549977206678,-12.1200949577325,-2.7907611091495,-4.3128324499331,-22.223536058341576,-33.684334504108364,-36.88917398511063,-40.86709556737543,-33.64930052935152,-18.773792754344264,-21.04065485579695,-33.43486605300854,-32.623635349569966,-27.193102407708466,-26.394797268135342,-19.062145140817144,-13.719588298652809,-23.0393909057893,-27.562624575612006,-17.19582322935675,-9.78747303575629,-6.419916091602376,0.7985472118623673,-0.9881220821895282,-12.544827516958028,-15.073875100137098,-14.471873489815064,-25.32332846559724,-34.307103295349705,-34.538222966529574,-38.158878280491045,-36.30782615984301,-19.09707399606363,-8.139143995158115,-11.720159250841148,-11.562233754083971,-11.03383283706334,-19.93341352437731,-22.18454702400692,-15.890138648425618,-19.354258907803075,-22.79843833505554,-10.092469655929582,1.886170575607529,2.767112257660938,4.794121806439807,1.4992922505972237-14.38332883993593,-19.373669728859788,-6.348479777342486,0.6932315355523277,-0.2959760661047066,1.5339113354349558,-5.360543719067364,-19.848612249931538,-19.924786587318987,-12.057963018897963,-15.009207503918331,-18.46583567038885,-16.000606214158047,-19.55718916604387,-20.254769399806616,-6.721246061892894,1.393350761027776,-4.381866772521841,-5.858319283574366,-4.780374419876355,-9.289548062203892,-2.919292921664077,12.778272211231403,13.44700442768358,5.492213329154486,4.60976942996801,-2.119393143329676,-14.389777556717078,-12.669903384396527,-7.55009177264332,-14.735272031888565,-17.527137092862542,-11.421401980294394,-13.869917172342973,-15.585909155849496,-2.786546152639449,5.927053867265148,4.307852020579023,9.648647108019885,14.162070641459128,6.759130687969003,7.942101645214233,21.8796585360302,25.858301922528597,23.50129238605661,26.8283628395998,20.17834659588465,1.9176647418290118,-7.062753503143129,-10.048261444302591,-15.635622858276918,-8.074331439565956,11.080283810358868,17.297302865969456,13.41645655425743,15.20635680542317,14.26885258582713,8.462088743059292,10.806919468633206,12.083528692341385,2.8790341968927304,3.2420362935402816,16.035071147036334,17.630066625427435,12.069093398614811,15.737377702949843,19.209404730555807,20.624214766403746,31.47248833378645,36.03016375945031,18.721515496060217,1.209441402583169,-4.217553160149093,-11.895489239124375,-16.004405564132412,-5.5663883440118465,2.363374217409807,0.8786616739286124,3.968520919550903,6.371081596709388,0.38735651555451067,2.616444264666579,14.378290087497579,15.748113531770446,11.043083620671151,12.63837100936141,10.168054851189112,4.0050971378080495,8.950915427455955,14.326728707147122,7.464070807533465,4.346674654675907,8.03206248576021,2.5675032424047997,-1.9814099006395232,6.230316308247723,8.02165894550702,-1.3650139926504004,-3.050214362226476,-1.8849687297609008,-8.249500455795971,-7.081647690566749,2.6373191656416037,3.5865578575814445,4.875539964107359,17.108352550994894,19.805625768315466,7.735014505801594,0.7651667475264242,-2.4914568728299504,-8.004062578653535,-2.7418685346138054,6.3236050744592625,-0.07649055437797658,-7.624981915363103,-0.7753299816649237,4.5189194225653795,3.3293264895112094,7.751101018298671,8.779085986431275,-0.20143686503939806,-0.6611650722941957,5.962420942321293,-0.9210892217342495,-10.481700719323044,-5.528871099827938,0.7002872027105158,3.6043446032503432,13.735925207385277,16.192313267612864,-0.6362439868261358,-13.169339656256318,-12.171188840666609,-12.443596692714443,-7.190826403853884,8.79726851439078,12.775254330377575,2.3221397645967694,-1.6908510937862242,-3.7021106473982255,-10.605485548710117,-4.785564767229833,10.643302842055702,12.26848857442723,6.170963359997369,5.355213903880892,-0.6669900635445245,-6.746514417329676,6.342860925193635,24.262122511813356,27.338105421666178,27.61461893404092,27.85599945031396,16.03297447014171,6.396860744802419,10.140865681159838,6.625213472935981,-7.626761316193495,-13.755688118662775,-17.638560030065815,-26.51710763666496,-21.940231042935196,-6.205504826144577,-1.9704903328121794,-1.650227355121887,6.513374386293034,7.249515440110736,2.1708185889016334,8.462101621278148,12.679326022123345,2.8188146235795823,-1.4937641201313931,2.9195690162582326,0.9202152797320342,1.4036659230695396,9.577606673360297,6.574838875710063,-4.104486074036831,-2.0477818012671056,2.784079833613062,-2.7714010793949218,-5.300904254681701,-5.84612612311626,-18.741890177908385,-27.83061353322451,-18.43440072961634,-9.314743387430505,-5.756257710013842,4.5010387606059545,8.070111222304806,-4.494622488106396,-10.421997708505161,-2.949853810834478,3.027561708927879,12.873958018411942,29.32211761671445,30.924598554095084,17.250673178174324,9.426907026164313,5.180439114117255,-0.6854633341971383,5.8482189662202,18.149110077293244,15.796028149046501,9.40565047927653,11.407362128634267,7.501327274199345,-2.276838799022892,-3.736228740502541,-7.719879428682289,-21.602116367031442,-26.05906804528337,-19.983973691605204,-19.164478794038185,-13.94965692517647,3.1460449461223856,12.46114133072063,12.165920162337905,17.954278960162256,20.42650640558924,12.468841535247382,10.587878764795319,11.560017779847923,1.3326353656768948,-4.645353555021563,2.5041468080700966,2.6155986652496077,-4.595657479168522,-3.5297984703167846,-5.308600223888675,-16.669207944593683,-18.908630388389827,-14.722118183195015,-20.578220950238066,-22.885285148219037,-11.372820331412655,-4.454264067095664,-3.643065967134731,5.578615388242078,12.490577515970147,7.388864800911445,6.447427828750756,10.850289311809766,6.737134194923228,4.367236068845296,11.537432169493737,10.599369560377543,1.2238123207079914,-1.1491737837954759,-5.736836652653045,-19.481645275238538,-24.438211032719135,-20.883964350459838,-23.875988836604378,-22.293163931492955,-9.444699858149804,-5.0506411241958595,-8.538174221101286,-3.1342977357388326,2.1963510012170664,0.7138720468125126,7.1761788858799544,15.918365491948139,11.009392307085768,6.056615014760652,11.182574813413163,11.743172367194216,9.386643602387059,16.16559990483782,18.51590095353721,7.7700651339792515,0.0448877559926798,-6.564166418397563,-23.299410637342522,-30.552473828607365,-16.904448947686856,-5.078759704681242,-1.514861051359426,4.375771888936116,1.9394994652910749,-10.502536749147959,-9.559513784190596,2.3831192165117137,4.876805376769864,8.057747632504663,20.696710104307392,23.309923469746828,15.588662939305365,13.816976218830046,8.885802364600105,-3.1858415775056024,-2.991902273043781,4.154568250723529,-1.7147486712599447,-8.992121474712494,-7.315292266176136,-12.534368907944478,-22.687917942291914,-22.08002314337408,-19.57884622731527,-19.867990338219876,-7.173246918088735,10.364569219898685,10.610419078174889,3.103145476024771,0.8421354316688285,-5.515568670255751,-9.935171399105474,0.7429333042027109,9.288532391219913,4.708188038865444,3.197992846620075,2.5035752208128934,-8.738018702709214,-14.540346666297411,-7.38808476447775,-4.364151604663449,-3.802189399792118,4.545911151465907,6.3162446378333765,-3.4172822644652263,-6.578735564229273,-5.873378724865683,-13.263617949553069,-14.155404898856236,-2.5788550895243367,2.960605989028679,3.883055808084058,11.556008300309188,12.972997192755543,4.098196752895444,2.1475344354344763,2.0834617568454,-9.014230204474,-13.86946230868937,-2.4795698289487205,6.726454000149449,11.689233889991165,20.82813267198306,18.792817621356477,2.6180461541193445,-3.538203596273881,0.27464034349618194,-0.8711806103265176,3.8373849989975346,16.218999488187713,14.94824418604174,4.667487506581728,3.602694627113678,1.818535964425245,-6.441732001811839,-6.160983560757144,-3.447206227230378,-11.094578145579426,-12.210342025778214,0.1088132064615479,5.771458367470898,6.032167826986514,14.049945391242787,16.52653104753862,6.961263726178654,2.712846273208742,1.883153736996923,-6.38316726560862,-6.84718067409843,3.8711250123606336,2.637933448504066,-7.393227913988742,-6.645273356981498,-3.4855270436714587,-4.091919120657688,2.262160622929277,3.305976005988163,-14.19515066961047,-27.331141239740976,-22.04982201206708,-13.13202099434454,-0.9493588936180779,17.106486163825107,19.290849128840225,2.391284276885167,-7.947773341698059,-8.774833942958164,-10.106355993417122,-1.7402427466086863,12.317741142983833,8.509819923077089,-6.02645373545431,-10.975996599742224,-14.858190742055895,-20.81245566761882,-13.164596465868216,-0.6660400749257502,0.6126658665697415,3.0215824152913027,8.856919233240891,-0.5295407344656304,-16.241503814239255,-17.63635914706171,-12.520485776704309-5.549832097675283,12.851171531417375,27.76122818052585,21.341979919155484,10.355495636395498,6.815466530660968,-1.6777536926367316,-9.63279312145065,-4.9467409880871696,-2.8079511805229043,-8.438469987196733,-4.945826472943631,0.27499502317479196,-7.9670578489703585,-14.951355661454276,-13.538725372368852,-17.862354917609995,-20.107375515945144,-7.74451109322696,1.7960969703072802,0.8684090486328095,4.91718384503183,8.618499737687314,2.0010921599357436,2.1931691278342633,12.321013206235294,11.255781565338724,3.0573677147526275,3.0227478045370564,1.1841139341117686,-4.165258169139655,0.9505866182299472,4.314351691639411,-8.237702208294362,-16.509462073021915,-9.80038765676827,-3.687587593208688,2.8748225278398944,14.037688164611094,12.362698893623595,0.7379048915183404,3.421604903222907,13.932426416948626,14.48893558675894,14.459386768996659,16.83075929204618,9.438329777066679,3.0867036811552633,8.639459079904563,7.080549003534868,-5.487886431619295,-7.856453636801284,-3.8331371823585925,-6.654806558781099,-3.6048225169531105,5.940355612734079,3.220667509872828,-3.3077889720481215,0.9278637738692517,1.8819108683752956,-3.238738887645032,1.882389181798624,8.635175920898336,4.689415481950031,6.376078690219002,17.46646361541037,18.802090672684436,12.78753937893389,10.132221935862065,1.378722661125226,-10.006447159122455,-6.832434822770498,-1.2612805816299515,-8.9530113344565,-12.974269392574035,-5.70114359434198,-2.194588497372042,0.5959860587649051,7.8093304466738935,3.6818837263067055,-7.196333723159846,-1.904290429056799,9.480943608655075,7.748807069253287,4.470710024525314,5.249092204414157,-0.2691141841468321,-0.17507262240781019,13.893480482857811,18.63273779212772,8.101274896756225,1.764401184013444,-3.5709260609773574,-15.465367367013913,-17.727453501351928,-11.204380942020993,-15.262502201228529,-19.981725871623173,-9.814192519647486,0.3198487848529292,4.555112396500841,13.9130835042846,14.943644759303995,-2.550364764270089,-13.545137950879788,-8.117954813540456,-3.7568715443754392,2.1542696893058593,15.52181712031407,18.38240303108346,10.774849110234445,11.792628109475832,12.243363601886823,-0.8933840518077423,-11.374691549851006,-14.101141391927927,-21.213593351123897,-21.253418833741147,-3.950304394018009,10.459931691108212,14.537152852976297,20.92700911648043,21.17063146393253,8.240278448220986,2.9846936104342796,8.968447279326215,7.130583426105954,3.0641289431409855,7.167535126072422,4.947570330658216,-2.7341469736629236,1.7640743250855682,7.831539801568419,2.6409492838923465,1.1736858980155047,3.735118974552423,-5.177056976364478,-13.17565142519906,-8.028144294742118,-7.583538557738351,-13.688222063365922,-7.798916352436379,1.8925721103857929,3.626062014624544,10.224479944615057,16.496768258219532,3.170598403246441,-13.57545017417743,-12.729985630893605,-6.7853608963310705,-1.3808943134372682,12.245467359022676,19.719446706276035,10.746926369473496,6.085349078692444,12.145643357533435,15.373719939728726,25.08682635744485,51.53974315697844,79.35282861751992,107.08775406760014,147.99515372006934,188.3631105112721,210.56684613722715,221.46278049407573,219.73838786287735,198.00291797754963,176.51842388982266,169.72412553788456,158.20534188213642,135.27968825713504,115.28583214953713,92.78166229270897,62.008116095315664,37.301178660127334,12.772290179124173,-28.032080407690234,-65.36657008791664,-79.57620657679145,-88.54744115491609,-103.07666915220481,-115.97245910063727,-136.08908529457372,-163.53463609441272,-174.84517591809077,-172.1384073487124,-177.59721881063217,-186.77452415551932,-192.58618128701656,-206.94517280787156,-222.24536094468584,-218.50552181725826,-205.2299938820155,-194.94558046977824,-179.55918604174616,-167.31929871318775,-172.45937423169482,-175.38068073348876,-159.9464203010047,-143.28314649160515,-132.118194194222,-118.00464187538505,-111.69158478263134,-116.25931488943039,-108.61782972592593,-88.54765749663187,-78.34419388024726,-74.36964613286234,-68.0801947838324,-70.41502127746344,-72.77548840235384,-56.765196834294215,-39.72894578956306,-38.69730775346783,-37.96336557054569,-34.10929708905128,-37.51903308495151,-34.61163568236002,-19.515347534983825,-13.10551212237463,-13.172756093378386,-0.9621333902707248,11.806987649292893,13.716589063977466,19.823474167821598,28.904071754328935,28.058034227157826,30.272424956669113,42.71130209115474,47.8637942062809,47.996452234880714,58.80994788585548,67.40665779729105,62.45329491508543,60.88861784012535,64.41342325287185,58.9797658631973,54.542342777996396,58.289181651597715,54.843993181044596,49.07510638371509,58.66556823337868,70.49150345042807,70.03564447207164,70.11469633981275,72.11263785834053,65.37549843403718,63.1358539970075,73.7243276658678,78.62331498776317,77.17030856120289,84.36284901830662,89.02615019895872,82.1896042572281,80.54328112661756,82.10813785442733,71.34419200083161,62.83755603084724,68.72256335368164,72.51602351461206,73.31508661213982,81.50895188647198,81.21296762484363,65.33433826532715,56.44369113818363,57.23644925877911,52.907424646404195,53.30369375157595,64.29447642773805,67.09872960509884,62.85924475206402,65.87037005541227,63.52787639855726,50.11399269716733,46.62693345065823,52.51452994755765,51.41554079288673,51.84255428033767,57.024646624043484,48.667055429099236,33.975554328998626,34.31159865091994,38.69463700567551,36.155375881042616,39.79190220239434,43.116798732719346,30.72624738088601,20.525297223048288,23.968813135372486,21.972926304186643,15.462013665051797,19.5300298225941,21.52986403579747,14.68141182084411,16.781648389060294,22.224807727388217,13.835525524971265,7.247866334097148,13.912366480054933,17.309107395452443,18.36904402930831,28.76487213471578,32.73282020545939,21.348199598935587,13.41811926049954,9.282301176875293,-3.0453388452508694,-7.563885229198336,3.951701475283757,9.384366964179998,5.482857977440428,4.90869801869617,-1.3921218241368352,-13.524996194336474,-11.173736691803384,-2.1376621824716264,-7.528597346597375,-16.940496105195933,-20.93436072539683,-29.154747936621355,-31.687106764471146,-17.30234471087806,-7.780551878502379,-13.881134186955624,-16.794732182321102,-16.318307875920173,-22.791657153157217,-23.55315244836528,-17.22267311491157,-22.18792993054284,-29.54597426298595,-21.510876122278752,-14.270131984842731,-20.25903458659341,-24.2627283562576,-25.976193739761833,-34.94194066799344,-37.692237267256836,-31.37774047519932,-35.772726807814166,-44.63402526412672,-40.015128250661235,-34.44813626871749,-35.02070329905236,-26.26992965714341,-14.434631766209325,-15.692307582447697,-21.14665423520745,-26.938176090975688,-42.036439695783315,-49.607554123676714,-32.317458580585225,-13.623825752388763,-13.69158833081007,-19.777976871886892,-27.942444078612247,-40.33173667956098,-37.79363175925626,-19.918992661282196,-14.325376819362836,-20.127593076093373,-19.661111633785413,-22.7046792901151,-33.177453250703614,-32.956265824375,-27.26277491339809,-31.136352485071235,-31.496147367135407,-24.717079562083384,-29.15550764884693,-35.79802341897568,-26.719565495459964,-18.075969650804723,-19.803520313462915,-17.358789804795734,-16.69552781499905,-28.333139382569485,-32.63820317270305,-22.724868071284767,-19.199237921641952,-20.413063915012195,-13.398069047906626,-11.147860067158922,-18.59342495473334,-18.713241221630323,-15.96193032825915,-22.99230595049604,-25.09461439005622,-16.191103175166308,-13.856070317826136,-14.832371392361903,-6.914507075521346,-4.011057290001716,-9.737354617281268,-5.310350819920346,2.789956609799333,-1.6914700625469674,-6.259732376532552,-6.321581434763589,-15.552310959370503-21.56688697609142,-8.755543079927481,3.8814468376385918,4.349866934413852,4.250371153927528,-1.7417410730287046,-19.84465934435977,-28.26001057027176,-20.19910159183737,-14.760473658103571,-9.42767353595715,3.529247810061616,4.609054812469131,-9.310779485117964,-15.21880931525907,-14.948724568262701,-18.700503984959404,-12.461930586921607,0.6752349709339036,-1.1440904344336076,-7.326495213618598,-1.4043081128931623,0.5487548918400945,-6.619285112692859,-6.147615130150809,-3.846122831889392,-9.597725040528161,-7.319966965994921,3.5563464180623736,2.1349178117399257,-3.816407939373402,2.7005607591095635,8.21825987574281,6.604598672758917,12.057620537773333,16.044283796706807,7.4913106090515615,5.055174673100885,11.381538261286899,5.116013751087694,-6.554425508307223,-6.48287383411142,-5.273400558222397,-5.438315263899277,5.441796100004732,13.312454735493269,3.6192409505308665,-3.4141114546413953,1.7164741169261148,3.203210828970837,5.52620225281707,17.096999913301524,19.89222789014572,10.866228929206056,9.141924678435627,9.632986914417723,1.295742185927503,-1.4925884665693232,2.5836600814773076,-3.539508108968496,-10.342651072002031,-2.9244673862552464,4.2753503187095205,4.774012986948551,9.722415749852432,9.727519300441138,-2.7116430458447507,-6.320986277318685,3.38247001281539,6.694497064658012,6.910270901445912,14.299148231535808,15.940608755479612,11.396651395584456,17.13866724904031,23.25244439982759,16.07076993744614,12.4208876079104,17.41215219644193,13.901440936082963,7.518311080757767,8.937586318421232,4.791966885319868,-3.690060998416532,0.8497156383782003,6.665328967731467,-1.6068703341528359,-7.961438930802684,-6.001509354983352,-8.280992792147211,-5.8465542635285,9.410679229742387,18.428620175288682,18.868670782070872,27.351537030101248,32.92696425013701,22.02233970149188,11.758881861606202,7.684108871572587,-2.7970125091368754,-7.081941349218176,6.105935643533017,16.377523020099428,18.247864363472797,25.220812839465825,25.142972904715513,8.37425310867409,-2.0481098837813905,0.981903051616003,0.33932077695001506,1.7964194783303662,13.283876708474628,14.994183109688684,4.411408556217142,1.8098274154029534,1.0700305833691368,-8.1115614531206,-7.559192778993038,4.4325429835512855,6.783344117978463,5.217054663530687,11.67685920674542,11.628403282914668,4.261679790421141,7.046627818973658,11.139051975623078,3.4354400843445254,-0.7487768087008337,3.6891824744229456,2.1798390007890327,2.0526649806979163,13.639952713804705,18.489094715742265,9.956205012302341,4.516739940831978,-0.5112577069521556,-10.429658425412573,-7.665582415869037,7.498190595214819,13.628872426239267,14.085144914741978,19.06582239061092,16.919358846463517,9.890330987324077,14.552093388297608,19.995723815625574,13.090603551404346,8.017878815804224,6.85657648078038,-3.0336532204215194,-9.66094928989453,-1.8021584017689443,3.9422161272278546,3.8201058441800004,10.860459216929328,14.56931986446321,4.351524870759791,-3.023970698049707,-4.046585540479134,-11.602409103980342,-14.157285367499465,-1.0907391931840689,9.150478523005589,10.792761295514085,15.774904343988409,14.408216862286235,-0.6213278893732781,-8.66150149708043,-4.856364919512788,-4.827753086131191,-1.786426932338724,10.690321826028587,13.074215096233896,4.929303629668126,5.431536040982692,6.294058456813003,-3.162351288867168,-7.605252132337574,-6.9940578648569485,-16.01449098801981,-22.18349077170291,-13.78207432473736,-7.754696275287142,-6.404404154736422,5.279055744843543,15.993559406759935,12.627679529437756,9.597389797079323,8.940047988034575,-0.4514994579924494,-3.8633266101191084,8.649574263145468,16.594009149328183,14.828304022409789,15.957256646816152,11.133759205664571,-3.823461809808048,-8.77201093408023,-5.337239948881599,-11.6026279835672,-16.89930386197044,-12.38195942617111,-15.454607955151571,-23.38310278133871,-18.760160833197315,-13.201686558661038,-15.243041128841204,-7.838246084797956,4.562121393981119,2.4627840794371663,-3.036761033483468,-0.6719673941958055,-5.448362881454192,-14.651510517875508,-11.066568056308906,-6.237420775782926,-10.448369531818518,-8.11809645899683,-2.1085504086615425,-9.06433041035634,-16.94982737364816,-14.48564618908292,-16.140463110223727,-21.46564803308284,-17.19921195851115,-14.434374718664156,-20.52629447133344,-18.222740613333567,-9.169185665546923,-11.380371064409266,-17.000931218564666,-16.56186984508726,-20.857544315789827,-23.49026186681932,-10.6373808258087,1.1917897479613093,0.5919001166821605,3.5280239737429686,9.502879311167513,6.370907566166942,6.586611126356257,16.12677132425933,16.865649462148834,10.877874937621344,12.329010379028459,8.430642358014472,-6.6732668342806285,-11.994846520949846,-7.535315523705648,-10.297691818704402,-12.496288395310579,-8.524226944499002,-13.899064396927352,-23.073703099520653,-19.35596010810716,-15.27083082685971,-18.739369020960204,-12.392514830220142,1.2992702619130165,5.61213838700721,8.437801598667981,14.32804496144836,8.414867158235392,-1.4573457758928323,2.803880424930752,8.05919252448139,4.449575094376005,7.513748409849251,13.753375910800901,8.378438477544332,5.103813739017008,11.598983270706517,9.662978500400092,2.38147751092298,4.81847514107249,3.8852064982762973,-5.471953693768681,-2.9909117254735444,7.153651875202463,7.2568917924908,9.156210441213892,19.84306905875244,21.211021937396715,15.216540613869114,16.338005409104163,13.176556210680282,1.5106999333137363,2.1758420201711335,12.531422582455829,13.401427611702108,13.070989376366441,18.655332067623736,15.473090259668837,7.8932172336882935,10.604674388816433,10.844664285106731,1.6836471332013923,1.4729952664598576,7.211065324539861,1.1424491638992884,-6.462123045913525,-6.685198565522832,-11.624748208151164,-13.362205048199446,1.579789773338983,12.615867550723465,6.014110166623953,-1.1379206422471086,-6.476379308996575,-17.088520013021814,-16.927335525775852,-2.0948717286608396,5.906375183197916,7.737049761309025,16.02173819712774,17.109403514056545,5.849725313676073,2.355569185863247,4.852129938896631,-1.5389120155318747,-6.2584258669216295,-4.556792538719871,-10.88174787219383,-16.19329999638777,-5.886996398154966,0.27094016327268666,-10.095154288698247,-18.520943564663114,-21.54212650952408,-26.202923146540293,-19.515918758148658,-3.2813781151089447,-1.9184396995308277,-10.950738297612133,-10.618874507713125,-8.984549266953087,-9.908706806819813,2.0067685381225964,18.05988059565828,19.78443053302973,17.849187738314065,18.87461431176556,9.841286831336902,-0.4228819881346402,4.326265750993186,10.116383823823147,7.87074146946178,10.559889830612043,10.924076519104801,-4.465467132682173,-16.79767567803058,-13.165726561990157,-8.874614078634949,-5.568976453978802,2.0919570536285477,-3.092482314263714,-22.6148753960249,-29.827962538879735,-22.722930457930392,-17.11464497842117,-6.622640386828172,8.621478820141437,10.717130160289058,6.693688310909622,12.245781958801548,14.840133531470489,8.59853115515935,9.054961250591202,12.588691598854938,8.762840674623195,10.045536995859479,17.092174528742643,12.821520911753323,6.711029454108732,14.432827277785343,19.362507660727413,10.34406345814514,-0.0026370796895147652,-14.534671638538121,-36.673456267553156,-43.1156046982416,-31.00764114207618,-25.37892199374272,-22.41138598669432,-7.595623422873409,2.74923224086921,1.4484000760578253,4.063819524894948,3.9672375961264397,-8.003858056741214,-10.51178750454865,2.071220094015132,8.886066344714528,13.822373804710011,28.03814753430301,34.00537770057052,26.399789383417954,23.472562104521867,20.02418650221039,3.897939288567541-7.919734080955874,-8.403700948251137,-13.516475322898694,-17.24296177139157,-9.489162699512704,-9.14274524198842,-20.395837310200477,-22.04842455455853,-17.77427193107702,-21.0675025854466,-18.78374645242376,-7.707002600736305,-5.092562947785827,-4.007686866437975,8.529096433514866,16.657947762054985,16.033288835038988,24.823589428442965,34.979304497942934,29.312649379088136,21.217129335801623,18.232863430103684,8.708703924255518,2.4103529870767813,10.377157075626865,13.949720800366944,7.053892332612982,5.478587645802339,2.5963169943315747,-12.1117166542335,-22.023777824565926,-22.08604173624911,-26.37878508087045,-26.323849249723516,-12.397927882969633,-4.545124608831319,-8.566948751539739,-7.079097457079845,-6.0979194887329635,-15.719805403403239,-16.540863304470882,-2.926306069611962,5.357880990514215,11.034425810058941,23.012066616253918,24.457511935854523,14.248805013825729,13.619531897668478,16.65019384355423,9.00905729673426,4.402528415324499,8.06736520533141,7.226554912412157,9.371622338232731,20.725835726242575,20.727466011067396,6.433420297612852,-0.9836874329724399,-3.9103715843065516,-12.427485563194248,-13.520180452030507,-7.906131849269846,-11.94882519718947,-13.12379695633588,1.585675729016213,11.63396674985659,9.474966286555915,10.652921317181537,9.73785514376306,0.16830221331307982,0.5175541092692721,11.62357414557606,13.485576688262478,11.766901115343362,18.05594792634644,19.001424075110297,12.400317889071628,11.998446226339311,9.062709135268868,-4.4189604418805,-9.11516184753818,-1.008693783206601,2.1216355326218275,3.177524809342435,7.176019722157898,-1.4664244429927962,-17.208599782751367,-18.09326954426008,-14.301147974619866,-18.590061937110573,-14.630193507292615,-3.045970451304874,-2.2304563536051862,-2.2385397864736714,6.055127335207864,3.482640904601759,-9.134910556811317,-10.872026809050478,-8.95200024025328,-12.476761669028312,-4.471297538273631,11.232413373854492,9.933304343249302,-0.9982153751731424,-4.532205357815962,-10.302377026118487,-17.95787213012279,-13.657868892970338,-10.22084701869083,-18.175350420422912,-16.945441898057314,-3.808550463153714,-0.41088478411065565,-2.7558557030625614,0.4090067549671472,-2.880115523736076,-9.323315602285803,-1.220333695664022,8.784802006245808,6.5830112620753685,6.84497046978692,9.57217405336252,0.46327244678487345,-6.199146864828613,1.8662254586284925,5.174539015035423,-2.3314970396519903,-6.941310581273097,-15.002588343088947,-28.842780072401908,-26.91007093509782,-12.867188587398166,-10.915490609912272,-13.69000480336863,-8.01229544944313,-6.379324170358371,-8.84344690244401,-3.1975978292607747,-2.596035966927283,-14.768442628444948,-17.38570398704845,-6.661410442286793,-0.7947723201146242,4.324469933129253,13.885690976625149,12.170729649616465,3.0512602850190835,4.728651884481657,6.972416783639664,-0.34438169221487724,-1.7463337362013653,1.6315183497983508,-4.925241161742631,-8.662827738881939,-0.07223096105626325,2.3524510713553717,-2.1587871120027087,2.004186429048633,4.197124563997696,-3.6320241365200108,-2.6087561144745477,5.6641248027391145,1.0550985447453374,-6.96535101917175,-5.74589491084426,-8.440138283962353,-13.129373236736022,-4.683187945768262,3.7063797487026986,0.5836571131629209,2.2414154153620895,7.714212139489251,1.20024210927316,-3.468156319503188,8.00493985421158,21.75757949317008,36.672305348517945,63.95370712085118,89.58269958497975,105.03019436521747,129.79079170357232,162.4563779590071,181.3937406164288,193.09701676091535,206.49489811642076,202.96766854124988,179.61645492585413,153.75039576209167,122.3256463646054,84.33742613046212,60.36388667434535,45.86049026865841,15.400942089636589,-22.392773672927582,-48.386994413874646,-70.20899398641299,-87.30290876032412,-91.31424647066284,-101.02601724040485,-125.92259334785572,-143.35584643283,-149.889130996314,-160.36997846395144,-163.88524465700905,-152.35012667252005,-143.8412192014025,-138.95554959052106,-126.07803937123285,-120.2604511060185,-128.9353242183102,-130.2891376936842,-122.52097128283492,-121.34729027754048,-116.69124150237616,-101.87357125177789,-96.92549450246563,-101.85275274546677,-98.610512163137,-94.84237765908152,-96.60749131581284,-87.91869473865647,-76.12470003276465,-80.86447107994839,-86.18384939908518,-75.02478025634787,-60.54920191531798,-46.07494840757047,-26.610585213747427,-20.497756728680145,-32.19808780403988,-35.40211927119522,-27.96110910530618,-27.427325620504423,-23.723767566138363,-8.58112207477244,0.8005759263902552,5.876718951695101,19.90694706576272,27.558868872740288,20.339808917186918,19.304222669342796,25.669086828236036,23.973128542832683,24.9131228358816,35.00056501774471,35.39399939004894,28.674122871850663,33.106291564559186,39.69759265528218,40.3567937852398,47.70868081773138,54.94175284561617,46.67128082232177,38.1730641918417,41.767808227167436,43.70129341791012,45.097666929113245,56.845626779439,64.57857470542828,60.73803136612959,62.3179982235648,66.55684083435308,59.85600708639055,56.00986394487947,61.31220235996276,57.788421128781906,50.842773389143204,56.93110690914585,61.774018512333754,55.97064138887612,54.08756721163333,52.152487038069935,40.48588920360814,37.91447680578501,50.281168911046734,52.90732343348824,43.87765429027485,39.739186100277834,34.28073976602618,26.37722154334017,32.93279570513183,45.46807935293156,45.43395083625481,44.414405593356854,49.63706602297887,46.071660647982085,39.30916997448186,44.31357312961196,48.295063595179336,43.95295698731086,44.81182080251297,43.63045538386277,28.01026941666564,17.82406617773138,25.615461645788653,35.34208266594587,45.12845413155159,58.222440213697396,53.364371422536614,27.387353013693637,9.379607030757612,5.982704787489762,5.391462807897229,14.9021086271264,31.689046643760676,33.32537597314906,25.144373565888753,25.463379354596444,23.57835120339258,14.114813204004204,14.410989870573935,19.89413124111057,15.771152026448553,13.82311497106083,17.67465513878626,10.592254238655812,0.6682714312524083,4.3901767255544435,8.539479403593651,6.309496760909811,11.702843420751348,17.69963367095874,11.269690798049755,6.443776592915096,7.368197701066788,-1.8537264603184274,-11.59764856782987,-5.512326828215997,0.32772639760450517,-3.6662099099517684,-2.9315875103233786,-1.5754788856409616,-9.764512510724108,-10.420590757027258,0.7043723280813801,1.435769129648518,-4.183670488521268,0.9212899095626486,3.0926859068811083,-5.269721200652528,-7.763164919288367,-8.149341290573243,-16.83090348768125,-18.497099082088933,-11.656661817126146,-18.31483143615464,-33.01172989944525,-36.10744584867298,-35.583189990256066,-36.35765458973688,-26.608710638253264,-18.485281264009586,-27.982472724532077,-37.39790189417016,-38.17322270222006,-45.47385763777373,-50.34037298850575,-38.205419405097565,-25.62685404102967,-20.400174002836863,-10.531930090704622,-5.9115861929509315,-17.249428576867892,-24.94368599858542,-22.07445699003463,-25.46217173052313,-29.062649437511737,-20.285165051106922,-14.318715559233931,-15.624986875753073,-9.41554092414609,-6.7628671420383135,-21.67544384922749,-34.12845382435713,-33.49390274352024,-34.42770785419005,-32.48164990390655,-19.135506301597275,-13.529541544123095,-21.4421348052459,-24.28626898175137,-26.2771706526223,-37.54913371404364,-39.100797418686824,-24.962646889231294,-16.469690913413558,-15.066678903961128,-13.53603080503344,-24.013965445737675,-40.33099225902535,-37.21308534028381,-21.707385121802318,-13.54701399590694,-5.99638688495712,1.0181017613116565,-6.511254511095591,-16.650713621950427,-13.870127798430651,-10.997476932185716,-11.931799550323712-5.197409371362126,-2.416029584370528,-14.311447429569458,-21.607415602481886,-17.854587350155107,-18.57839343167645,-18.59201718500571,-10.063006729292049,-8.800686851848857,-13.695585332294703,-7.024893880109474,-0.9137501359549378,-9.81081056014042,-16.0062677730761,-12.307745748387287,-12.415819038054094,-9.715057508548526,4.219742149837076,10.6547828881823,4.100601137127983,1.8691566318348807,-0.14220484465714403,-11.402475195735551,-16.025913296212966,-11.401981433367869,-15.680810310815643,-21.88919007208699,-15.653580615841644,-8.37333097697818,-2.5394995386697135,11.619946692822904,17.383855475075315,2.080374016102869,-11.178729681949784,-12.275047099733523,-14.395209849485004,-9.687129559649865,7.810859408568735,15.652817394576388,10.194621917061475,8.75376016580079,3.268524635999268,-12.92098224269349,-17.512583508813112,-7.5840632959534355,-3.4241549373834523,-1.059226404543914,6.987440172113498,5.954815936960262,-0.7058993906466666,5.590255965467554,12.97882734307634,6.412295433092868,0.5509517758095677,-0.36655226794341833,-7.82538646743247,-8.639226873220096,6.78157892416073,14.324332386717728,6.716166885115034,3.0873634680135362,0.5014963252746774,-6.9425327438768285,-2.2131884746815267,9.113539337314354,1.9863818794367445,-12.179090816263384,-11.701114774779107,-6.3784991973858896,0.06226716000411481,16.001226876921255,23.477620178535098,10.425428023268237,0.4362753527389456,2.0322028159181174,0.7374310738521577,4.382973462726083,20.7014761979599,30.113239459545444,28.459073252920795,29.727865122174478,25.078126842304783,9.16059456977229,4.138985591413385,11.225514928773206,8.8059590875125,2.340484290285378,3.231805868498311,-0.28641465638621977,-4.498964798512498,6.36821765067242,16.68378259549185,10.558015024453844,4.405787623584374,4.584746486356516,0.017185709978253083,0.2707347834176876,11.450906953073927,12.308005905749997,1.206190901836846,-1.198931138492025,0.34649292068917503,-3.3561218658478724,0.17860097944365094,6.623288241682996,-0.17523788249933414,-5.020922845706122,6.676890073510327,16.3780985556235,17.484911941771067,22.440663795126216,22.052114058093057,10.093724499302965,6.084408690196793,9.212777479997705,0.8911072227310246,-7.873868701943234,-2.7179048169594813,3.959933404692994,9.575308325019629,21.05266175976263,21.439732633874478,2.2285828111014876,-12.784890287656715,-15.341052398008472,-18.06680757802186,-13.99246259732722,1.1345655010345208,8.140853628286692,7.100111350111678,14.3137586521259,19.79190098242425,13.981450082508179,12.757713135084252,15.807224220865125,7.756440474253672,-0.5954317133824716,1.686471726716627,-0.5971386292527234,-8.495030488991361,-7.50410562982403,-5.7189645222913,-8.291536648528886,1.3879631653649658,15.513931298468798,10.495974738650414,-1.8361021962475141,-4.090803076432792,-6.525860784742497,-8.067297443581316,2.0509695590155954,7.338432044132855,-1.440425417955295,-3.590864338092782,0.7064023005747853,-7.155878851387836,-15.489651942475284,-9.769294784892544,-3.9703785430893275,-0.5792399756447054,10.547806024824755,14.637054058203454,3.982713336561607,0.9909588180037581,7.69314224996767,6.586983709806111,6.344065358326102,15.492876624098285,18.13313640118293,15.12460801695644,20.329095721109503,21.898138028652372,12.157611524083467,9.059998328215139,12.474580945167181,7.532426333856274,3.316347688853878,5.729299378401347,0.21329842958578782,-7.371352725187755,-1.1962039648677898,6.294997651536512,6.120277073890625,11.090604953949589,15.515632111001773,6.203835022627015,-0.9899923206729224,3.9439832181926833,4.3502038566766394,0.7421086792351832,7.181963285895293,13.19516494227648,11.156595091375799,15.897780185248337,22.616030334595735,14.006218798922793,3.0911460073588115,2.828169340599552,0.09242590931958561,-4.177769120244051,0.7643446420020634,0.3763526837029806,-11.373252849736193,-13.400999806914559,-5.578471658519474,-4.292655377135919,-1.2929176158560753,8.155400042781672,7.615035330592054,2.578710276266201,8.834453738951535,12.389698435991386,4.462190331702485,1.8770731361173976,3.6225667149057132,-2.248314822472857,-3.599785694017407,3.685969694843447,1.3986374706688283,-5.814366078024797,-2.3717455875809295,-1.8222639419749498,-12.608357986567388,-18.69173100448673,-20.87458406647704,-27.380866255449707,-22.72589127013924,-4.8586245732472175,2.1582008442825567,-1.5445988705864375,0.8485005624017046,2.807322066393293,0.6712434206052109,6.214152443419896,10.057247858160995,-0.06005571168684565,-6.257985401745878,-0.7654554234870878,-1.7927209798001096,-7.60190027194295,-6.114363394064534,-9.928652011910986,-21.740754031643387,-21.105076264737736,-11.726890897223129,-9.537821468139134,-4.446084414573509,4.865851608662117,-0.7078345434956197,-12.622923687565782,-11.356888431984569,-8.13886484239255,-9.278995047811593,-0.09700645311315803,12.5337805439471,13.632155816384422,14.316238209692465,17.705349672488467,8.690672065073741,-2.8749129845446832,-1.3213615307024922,-2.4760282145732293,-12.739269280285853,-13.378108695368681,-8.920475583520648,-14.913169207985156,-18.905348400943474,-14.553302645053648,-15.663900423029995,-13.259610517954934,4.934926579339772,15.713894034743824,6.886023261859994,0.007032019475742279,-1.1946000123138405,-6.178345051279791,-2.656668411521634,8.92696823015769,6.545037269397438,-3.1153155357887425,-2.2655830828281993,-3.794346822375582,-12.130811028300709,-8.616720561869519,0.742468819853034,-0.04122381902434302,-0.18177644783387453,3.37598683631174,-4.224627494829119,-13.301112216327905,-8.351747298774887,-4.998363308404846,-11.05787799441886,-9.557610341200881,-3.730290166491401,-5.910911155146736,-3.8343194990571967,3.417140365720124,-2.7447416517674275,-12.693149304337698,-8.294794011391955,-3.1625546234694797,-4.963051069008909,-1.3822447392449009,-1.0503688642748443,-13.28885354521864,-17.581084209930715,-9.05980738936848,-8.42739893684751,-12.794013804789778,-10.53602901326083,-12.899784739427364,-18.496508465435294,-9.804899809787013,2.1553561345278403,0.39886221010151335,-0.9375365486332512,4.9212301051622465,4.47092186736573,4.17250865752389,10.9170797783892,4.553952126178458,-14.745764834599997,-20.140585833258747,-13.741329101779069,-11.034185506933305,-3.9775052158325295,4.3805186344888725,-2.4700422877891945,-9.96478651873795,-1.05858528208232,6.729194239599066,5.1490074221649715,7.840881399533975,8.791063020518441,-0.3435310013216939,-2.5385483851429216,6.235787798342631,9.017555214175522,9.06697418650284,14.174256838669415,10.361758778184015,-0.6031737029500821,0.8099612009544996,5.898095989213605,0.014233975004874111,-3.0861218497262493,-0.484604549946239,-6.788605004250323,-11.554970697862037,-3.5704876516923783,-0.5938806998939342,-5.035205683248019,1.0943819530225403,9.382066042727914,5.832266462006109,4.348372625605987,8.881361711602644,4.678264341047165,0.778758116553977,10.353113238620201,17.36809224952303,15.902613912976431,19.40557538828811,18.74338775526369,5.334588943976273,1.5443788643697374,12.78149362907752,16.521487097682943,13.1191946781305,13.249551534051415,7.3056261122977,0.6768293910021672,12.425573097918495,26.11665477047164,18.695070750230272,5.753995726495713,0.7775211861931762,-4.50579433340362,-3.3788605747055813,8.014052888464112,8.155065195094604,-2.867572875541014,-1.4232622340651622,6.120922004691151,3.6791849520296687,2.643645020089237,5.767805074318953,0.4380973373528345,-2.9335918194270825,3.360772671681911,-1.0194898735358264,-15.339525195477306,-14.593391255062972,-3.2029914178038905,3.979691624143289,15.52728058094041,26.017749872999946,15.941006002086153,-1.0285565088594995-4.598587401156374,-4.702265783462183,-2.6564797135641247,14.144490472885341,29.76962746429676,26.173725526453445,17.705570744408575,10.143732718757246,-7.185761519896908,-20.162969394677194,-14.858068429824408,-7.336209025271758,-2.1150653343212498,10.859643953987963,17.2591360811514,5.959313331666805,-4.280679771826037,-6.8145959392820625,-12.355653666718302,-11.822724296775844,0.5790174385227926,4.705083773489193,-1.5837368739614184,0.5338148845428834,5.342363940386563,2.619864148441297,5.0741766160601705,9.791141695167303,0.6640352809450816,-9.208673059984784,-7.881452158043571,-11.60434262839477,-19.426857800456503,-13.515452384913964,-4.177976296781584,-4.563879215541878,-3.06986877242149,-2.938087161511147,-18.157973807542252,-30.67593167059886,-23.62898736463388,-12.921079095006707,-3.717038389236037,11.882952450907412,16.914419323666845,1.182110687795162,-12.860171195052382,-17.697946041908665,-25.810355647339918,-28.205855622928045,-17.839661475484313,-13.078930530526954,-13.521625414742612,-1.8241084621831392,9.642856224898239,5.7300265788671485,0.24275092675191534,-2.484985054757165,-11.04439545191148,-12.328325378564298,0.7469349681547106,7.100776613039663,2.7943876356348394,3.7782259166679593,4.752774540442767,-0.33639267656869354,2.605611092463077,9.934724607317065,5.002719712296673,-2.843819923078435,-4.910230788380437,-13.53627106243397,-22.30228118047132,-14.26134193029666,-2.647846912765427,-0.25724187714352587,4.379651632293483,7.235670377797951,-3.2459225956683238,-8.803061103825787,1.8146742610935318,9.864000285963265,13.596288219812191,24.41971419407612,27.295189782979072,14.454934428454141,8.017067258489146,9.51581251868328,1.5762289478739815,-5.684384681157694,-2.634008168319907,-5.215023979690047,-10.463982882914577,-1.7113884166801125,6.431305294772873,-0.3461463724254612,-6.592330745827006,-9.477517063754792,-18.353989050993526,-17.472041893174737,0.46560194480426453,11.385805690573967,9.787599915090334,11.045129230088005,10.454764594260176,5.6774841962621325,13.497748852263932,26.98926430170563,23.410694050674074,10.624966452023639,1.5840896707935304,-12.821717461084267,-25.985230165548977,-19.178538403719383,-4.131255824319289,3.966873927243483,13.372879813027506,17.06038000823118,0.9649593341657683,-14.11947888388654,-10.58440126551466,-4.161614597091281,0.9697994788693391,12.09132837526243,13.845245889363463,2.6240709901719708,2.7141231484123605,13.967686919612948,16.524773019754484,16.218829320702028,18.65712033491711,8.893612172197855,-6.953226178952443,-8.938233171512636,-5.766544187294944,-7.824240044449862,-3.012945117628302,5.1459231352928505,2.5838942773594376,2.542206767443517,15.085751759113522,24.806601224038083,32.45419597248592,51.488935759695714,72.40272720728467,91.73306188827843,127.17238745082433,171.45584436261345,201.85872903289646,222.27121000585743,233.40291739945735,218.45384143363955,188.4245705398656,168.07234189699955,151.61035782580478,132.25142845426208,121.3441288351762,109.71339466513624,80.99015472876869,50.45727014178486,30.06846629707291,6.226818716486142,-17.924296579176,-29.05730534017288,-41.369231113425464,-65.28263953781506,-87.33726681345777,-109.77102157238322,-140.57062860815205,-160.21638954455065,-160.44672218467963,-163.01007301626015,-171.65301288538512,-176.06416113012773,-187.7354649658501,-208.99769135425856,-218.3840249101347,-217.47599162175527,-221.7105739203554,-220.04370509073215,-208.42906394025988,-205.86844159774688,-206.03161759214817,-190.9325741144207,-175.85638157285462,-173.0125832476987,-167.78356639242082,-161.0269330998131,-160.01210061075022,-147.42835874761914,-123.18806603872318,-114.8595770199229,-119.10445693102764,-112.30657334439547,-99.41659996332918,-86.57560294082327,-65.24769275631428,-50.04158148252054,-56.147607312762176,-61.02012728409197,-49.7526930324732,-38.227522607356285,-27.12021076875394,-8.090957301510134,2.352319021759037,-3.2414689351901402,-6.19431840350876,-4.286784163187006,-5.404153803563721,5.06754632054256,30.017640153056114,44.79467904973655,46.54432654682098,50.337756793909456,50.53810163827323,46.97588024131912,56.224830103325864,70.02048707197179,70.68697724079811,69.62899581169276,73.65231586168727,68.69224687706821,61.57187370705499,66.06206283070495,67.8371549327102,62.82105221090089,68.905898066037,78.1987867280296,74.3936668322512,71.02654287796199,73.91055704171261,68.5387215504074,63.714474059657604,73.16962397490886,79.27909060732536,74.01458112369474,75.19286148783485,79.54000072221517,74.51913223396936,74.70611570602404,84.74564818878606,85.68918643666737,82.10271999140238,87.07371862171769,86.3994009549734,78.06718544424031,81.008385496447,86.4484454157185,77.92673717575319,69.48281232580989,67.59764689023777,59.67702551101554,55.4953059180865,66.32433140436645,72.0694325520863,64.7832932165504,62.89211006850255,64.2170320960967,57.571769375553934,55.49916404022457,60.05025511751653,55.6154841083865,52.01995760984195,63.34621117640499,70.84817789988725,63.62566330667852,56.610955198000525,48.4722737791375,34.45897596221387,33.48894392850387,45.37693382851266,46.23907595043932,40.82017874659157,43.489045630180286,40.39842443570555,28.130735280024673,25.025085129770513,25.85492851338,18.834273509273096,18.45559123371613,25.960672992665383,22.31385281216624,15.185471761321017,19.709640854166178,22.826524721242674,19.688753015248473,24.084576106957716,27.31063555478652,16.64907304783292,8.179817536653509,7.714380665109698,-0.1157294410758789,-7.0881045240171945,0.24061504721068339,5.770514902955258,3.594435951024006,7.707831122520906,8.535012813264611,-4.746826152273281,-12.190000937479516,-8.009436492018017,-10.657667984841256,-15.397663886996876,-10.932333008211025,-10.742500601595061,-15.288072816019374,-8.198859619339299,-1.4636833553650765,-10.340937958463725,-17.511698722138025,-16.159240991107833,-20.94218342918695,-24.265336407387526,-16.508016828356148,-15.971755289543953,-25.958207480518706,-27.933660273411423,-28.176300973161105,-36.8866181495855,-36.702814716041985,-26.07784789792807,-24.84253827726036,-25.988865396109,-17.85244062644738,-17.113930907143605,-25.685596222679926,-23.97398849157323,-19.267099635550537,-24.99532386809884,-25.683176818284053,-18.419112161641245,-21.491326297202903,-26.61041604559893,-20.311436631964085,-20.227800710885845,-30.52547020012316,-31.11493318277782,-27.737800388159883,-33.40491333737561,-34.50105871372146,-30.01458424649467,-36.02408104512859,-42.39419652070167,-36.833767707637804,-35.20322900343113,-39.72455645905956,-33.089833209781204,-22.720855943249152,-21.826306637023794,-19.705839411618804,-16.288101554125245,-23.775632687369864,-29.158770254026884,-21.975083079112274,-21.244324188144923,-30.86518026935489,-34.238921918749234,-36.16572776775471,-42.75320934675593,-38.64567644347923,-27.405022968017896,-27.989584589583096,-29.713194062928615,-21.651422360550868,-22.598446317109286,-33.99776039976551,-35.995945418569384,-33.5023564483179,-34.37687460076834,-24.598360082162117,-10.147731567611983,-13.133514344650292,-23.14763938662947,-23.790092972904947,-26.46332990431067,-32.05136609166707,-27.736451547592495,-24.75002119178106,-31.72023216708724,-30.974447619089972,-22.545071201139187,-24.600398043167008,-29.986719205813877,-29.244045153987727,-34.85855914221163,-41.74155759780699,-31.863030548287192,-17.812320346345047,-14.53903050761842,-10.108086951838366,-5.152743673477298,-12.590922900031257,-18.3206940026726,-10.186258783918907,-4.72734156337563,-4.846826801190437,1.8007894389855763,4.243221939721654,-4.736251012578421,-5.914519843635691.0823410555786217,-1.935595386222145,-7.906561360554977,-7.372205809797721,-12.341387632263228,-19.766208460546416,-15.516433264876294,-11.427274926655315,-16.941234528745003,-14.68157130468426,-3.070085964230587,0.020038112819259712,-1.1109325751857715,1.9368537715768221,-2.0780375332211154,-9.08271450775111,-3.50725122860319,2.724131883422519,-1.0104087278724871,0.2100987063959323,4.613164615228664,-2.796077242750877,-8.829220931518812,-1.0158363790016538,6.08656608463477,9.697506637914632,16.2016532509985,8.730506625049223,-15.411408776875577,-25.395892719962767,-14.284333926709369,-2.5019492119209845,9.601225183057256,22.46774067480828,18.938677390344452,7.016176473472963,10.549476503936676,19.357791936308924,18.82007253418309,22.306896335287345,28.490689210251098,21.067937606977324,11.59926383288105,10.946712626704672,3.6527913804546315,-7.735984258699863,-4.132074109387937,4.968870671184442,5.827941458554469,8.80502438643517,11.839322838131231,2.27581356915402,-4.84368577367018,3.64490973669065,11.57739999835176,14.574208888049473,23.16352442223236,26.50007221319702,17.332344626696255,13.244892934215931,15.719196421078038,10.933783235251688,7.532390464213334,12.607633101347503,11.521254100624976,6.377608262274077,11.054624873233267,12.702754013877026,1.5611049843044231,-4.606817853416316,-2.8573752105225196,-4.57695155353149,0.464245331350154,16.20931178102003,23.697322937349064,24.366658483798652,31.72336482587585,32.019267802004926,17.951291845866596,11.181743852512911,15.301697790966909,16.339467711606734,20.475649607257576,27.7306307071786,20.023474227781527,6.509471799690709,8.710414395217944,14.321323126532544,10.833306112644305,11.525872911766283,13.179450987539212,2.8258455916764325,-4.222336755383845,-0.566035525948112,-4.46087986158695,-9.920587214316502,0.6658680071297587,11.499726831230577,11.16586720432434,16.024880405020934,22.84904276391455,16.57097076085396,10.793585354209347,14.400557827478515,12.702078650384689,11.370115152490783,24.837058096369894,34.72927026428451,26.97397308616543,19.33345141480327,15.875620577073994,6.809102326253851,3.5713605739838594,8.43547783289709,4.0091580137637255,-0.1889808802319879,13.139520049038508,25.605397521502596,21.942918129225404,15.1544426977586,7.110939836082552,-5.464883914576559,-4.641659357058499,9.80838204563277,12.292149026788064,5.6838236059664595,9.11467853662352,12.86273061123341,9.539957103421285,13.601957469004308,18.726343125852843,9.349211372279797,0.43774208317496055,1.1562202339455319,-4.370856084224649,-11.136661479186436,-4.281820775425453,1.4252779796913282,-3.82356061739325,-4.398043746368368,-1.1352140644804682,-5.808639030170431,-7.312679487281969,-1.3494781279503019,-3.8808621713720592,-8.21586956782648,1.652091335560156,11.242826320963726,10.194253862548862,11.542298498721856,10.495450894452452,-3.133526242391178,-11.418546985268085,-8.125932358277645,-12.247716187380638,-17.8486040479059,-8.279799772065918,1.6227867997620695,2.2949308395862307,7.551541724104182,10.017523549658257,-3.8932690154485865,-15.185993701526538,-12.291560490960869,-10.955086237244144,-8.59122202192757,5.088734831758149,11.660981208227671,2.4978372286377244,-3.2452581197744097,-6.067962162038607,-16.394682484333437,-17.69430248449639,-4.529331331783646,1.9200408755357792,2.42820926031872,7.361988226254777,1.3597944105689566,-16.558439571305943,-22.09844409970652,-17.43654692423172,-17.96824537771694,-13.521442312974157,-2.245108212150726,-2.0267477596685115,-5.702224687694396,2.032036256480557,6.686325554759345,2.361734901846569,5.28193601067885,7.658876503998355,-4.43969178587135,-13.246785314001706,-9.109254219476242,-6.481606786099836,-1.525590110973781,12.659343624251072,15.560478928508275,2.3410622507482426,-3.880743520102219,-3.10780153435564,-7.901207881412099,-6.812652796206896,1.7305377383505545,-0.7984576253192994,-7.1677770777875605,-1.7917076792720206,0.6573937373864296,-6.243016015013827,-5.361535275638646,-1.1686184256362573,-5.867485084418982,-6.116839485908484,-0.014122711305490032,-5.146970912054367,-12.793638806248238,-6.612397071329438,-0.3564965902096475,-2.349854801771788,-1.1669095088260066,-2.597425421664805,-12.74699539121296,-12.043609914697011,2.440949431915203,7.875441695055456,4.1236897424675405,3.0346582193903786,-3.3397527640727906,-12.098023426664051,-6.418646760871412,2.7554326507198046,-0.5359704694923364,-2.9010604162038782,0.22990581578697178,-5.0542198221944,-10.04328361193415,-3.9047001128997096,-3.692767662670581,-12.187059013224413,-10.627780993733449,-5.037426518969274,-7.075322690353408,-3.0259738796360556,6.4913547290052565,3.208974684153873,-3.429626609511983,-0.0499784494212947,-0.24576776995171956,-4.115093424040245,4.388052166613116,14.3396912546918,11.6303456720222,9.341901969385521,9.213289802168013,-2.2511609909881756,-12.050241145764716,-6.948218926442595,-5.716666691055101,-12.736683250161224,-8.989241375890384,-1.1132679912657912,-2.3598014139989125,0.36842904621749084,6.574222353873199,-1.7805412544143442,-12.473158103646336,-7.150885006795885,-0.8242376237493518,-2.1914115577050746,1.0461448951032726,2.247042014577737,-6.085506405218335,-5.14798130216724,6.3214316930669785,6.582190694747421,1.6594382757034283,6.625977049237485,9.561974242214568,7.448041354798372,11.447749014349302,8.165921833271923,-11.155573232504755,-21.783079143796794,-15.290944813574935,-9.643972633480608,-3.1978734088933445,9.167378927976324,10.242231583685172,0.8686623180264657,1.9268618686513024,6.365117156712205,0.07505609066994046,-3.2586437372558112,-0.014790119988840722,-4.232673736894227,-5.579953891541007,7.075075340262304,13.68480964294129,7.6044021321462045,5.897954399182402,5.171946213381145,-1.0934298489079564,2.1902497379588,11.339387315432749,5.449858448261825,-5.520055087915742,-4.8655747637341635,-4.195735564387777,-5.866732356565796,2.2731250663176037,7.2163827406749705,-1.925571885963886,-5.63685725986519,-1.3836696228861909,-7.359058470908441,-13.779710835752468,-7.248318002046756,-3.1838094128038987,-3.6698340405061067,6.062792938956944,13.683655697033588,6.526310257614863,2.4982555426481152,5.417225660756237,-0.31525736724946674,-5.665840563148719,-1.320602883526262,-4.848290658025821,-16.296883796908944,-16.051380651025557,-10.381502286990688,-10.01527474998084,-2.9620566209204755,6.956641501177723,2.4660202651339858,-3.780783431120012,1.1102058723720334,1.007933654995878,-4.613425573492322,0.0959452005338921,3.591881277042835,-5.07261874907808,-7.788906509677398,-2.2710299217973686,-4.4621292299602935,-4.623633697133922,5.453514317588789,5.4469407012615,-5.211416662499801,-5.06317812481569,-0.26754440632474186,-2.3823983611809565,1.7573307057596594,10.294759760717149,6.122487971521842,0.3720969053785288,6.005432534962848,7.052718313716564,-0.0224818331107004,0.026290439787542752,0.4337453928910176,-6.282181751120179,-3.4032456990416176,6.948263344912007,3.710528781887938,-4.289881889248244,-2.0389284584184875,-0.7323601739737681,-0.21342367580079152,9.428154822493866,10.355098179682646,-5.87999206295389,-13.238528311534035,-5.725249781840258,-0.3520718666111577,7.397940620451911,18.683179249201043,14.062658412185218,0.2126870788555193,-0.31877422756530915,1.9182613715677548,-5.8996403226970955,-8.559343730013325,-5.606070305215367,-11.780793395427528,-15.393743163170738,-7.292979925240104,-5.994788370529781,-10.679374353649983,-3.1473826044544544,5.6535521837457345,3.344964860310433,3.6570085022578045,6.55795891179161,0.9782453887359983,0.689092628341343,12.408402568185364,15.581904336123591,9.673446891272917,11.91434339173364515.073786751028376,12.203526128041172,16.298369987260536,21.314480253508115,11.495908746187016,0.9492145792540383,2.1583679439882624,1.6805065022464234,0.39271252951343993,9.680641468109489,14.48836280479072,5.174681966049217,-0.23607010434529754,-0.8953731162804964,-9.579337105764125,-13.68084826032062,-6.347336648754018,-5.609334839194812,-8.308054188393177,1.7144347752735731,11.466733479306546,11.090986659424505,15.236719357461366,18.932069421422206,6.803292954930102,-5.1965530629634635,-5.0559268582843275,-9.10835000621822,-17.09642762469586,-15.926823146972696,-16.887625712913334,-24.34248618174655,-18.904343381207315,-5.171678686613538,-3.3812162005803077,-3.981185025016189,2.916374507512082,3.9411720411262454,2.2648899265422258,10.196520847926273,13.439860955858006,5.508608594440267,5.914038487978495,12.094641208316297,6.978719214957071,2.321087600492416,6.432296416037273,2.57064370186492,-5.8566789062100115,-3.2516249305980276,-1.7634492494768488,-8.592807497733165,-7.446459333099346,-2.809955708027368,-9.967547287726891,-14.629437979240063,-7.7708449945946025,-7.591197194490763,-12.653434196397782,-6.787880763815249,0.04209613180228167,1.1416992729356414,10.547924343560979,19.317234936572984,9.234344229991907,-3.3312064508461146,-3.8356279676972953,-5.195586471101417,-5.061061218579889,7.556912229710956,15.253905330644974,7.18942476097165,0.6854971568469842,-2.8880719720610504,-12.43080062603175,-11.672313861107,4.656092280043028,13.213039625107273,12.475678593356802,16.303980342692356,13.775164411992781,1.337226188591357,-2.104644458670979,-1.474752621673346,-11.252646651003769,-14.075929392837299,-1.1552365230154402,5.9156766997519075,5.721835435200251,10.518449182169887,7.9624416140624135,-3.9953166308231247,-3.8025589134895443,3.503768449488533,-0.7275121284287289,-4.3647912791205865,0.7949990573446177,-1.3867903448365795,-6.880495263169847,-1.8501967963056838,0.6781414717745118,-4.348294072426641,-0.7223769406402296,4.240132685108872,-4.014285055126505,-9.444417262912024,-3.642668419899474,-2.603576871541038,-3.8950990299878407,2.7084767847120848,4.049022823086495,-2.666010536254847,-0.7581341738165077,2.556947852309484,-6.779517116987785,-13.067563998594917,-7.818750049074726,-6.119458253763483,-5.488786467746852,2.763359136976477,4.463529932034872,-2.131928904978361,0.8186416114412616,7.310930864556446,3.458756362186011,0.465734048305357,2.5423179753461937,-3.232181754468003,-9.758185022207906,-5.085162646859129,-2.1641194013333713,-5.137160431201548,0.4154980818697487,6.955353621328209,0.6696786356491469,-4.545128308094373,-0.6270599106027173,1.5837300451098986,10.225997907846468,34.807613886687754,55.221319132044606,64.45232536622132,82.38154502139821,107.95781079509338,129.8264323231312,157.54132723883745,187.42669751535078,197.3578868496597,191.28315070972937,182.22046571260867,158.64792117544383,119.57335547950245,86.58993863724007,60.72255971503591,31.528102702848006,9.25854747939864,-4.863906332398081,-28.620952290911905,-57.15698900556506,-76.16552122176161,-96.72136532312662,-121.72467891524131,-132.35643521946102,-132.04464598568185,-135.91435648617778,-136.3956987047655,-135.29776102272248,-150.2854448453112,-168.0059139274637,-165.53184619115186,-153.70457373142906,-142.18038861252498,-124.540996895505,-116.02333713510984,-129.60250306187655,-141.23058155858936,-136.9013348622939,-130.85759696464675,-119.64214237306346,-96.34176536788317,-82.78680236527508,-85.89632352640417,-84.13019853749321,-77.1378455547427,-74.42688144870644,-63.2724300872931,-46.28593333112832,-45.57495978718738,-51.4433824052456,-43.735651480748515,-34.4092931192546,-31.006042023825803,-22.270851652801998,-16.895530346100863,-22.823592054389028,-18.43571994293994,-0.3337574440050277,6.469046584992006,2.74352909054175,3.1835577502420107,0.22920311137848848,-3.1844859868791286,11.07200568326078,29.852747325075946,31.841414879407623,30.061177987385367,32.70060227182304,27.218704366590252,24.30911338671668,37.130364963623755,45.36363828127317,41.96344348854729,46.76583192872116,55.13680065934897,53.59673584228596,55.155737934121156,60.40111307896298,52.20590645608486,43.219042635250396,50.66245449179738,58.61114373273908,59.09962478382876,63.524550003512516,63.68585547552044,52.20822585413484,47.57759625311451,52.30411578885637,49.95662731924771,48.91642796461965,59.2639716929025,63.975770003782685,59.61310044180045,60.85827544211048,59.977954014530354,48.73225934687287,45.00832178288042,51.91715525256564,52.94563619891272,55.22699500857499,68.10186028098161,73.24039519162248,64.89870859864837,57.551950843648484,47.50345974844362,32.29128728485351,31.749547699957628,46.013751631153845,52.40249775099605,49.479818017850576,44.070637636006715,29.52644817873471,17.315351709775065,28.40873207034448,48.15431658075255,52.96100299211351,46.336764128729826,29.78114260523318,2.9260707751540664,-7.759751472468695,12.12044819950913,36.54362937098341,49.1806616006208,55.44799414000396,46.60594828036002,22.140450605300124,8.109155800086526,8.839227316370858,6.450178107677486,7.6231626212953225,19.894477093794237,24.320390862553907,18.18631684725185,17.798581244569135,15.489528177208047,3.0868355484470196,-1.0479931477335054,4.3283879586569505,-0.11313249252063695,-7.174356923068071,-3.3487246947465623,-0.6292387331837206,-0.49851358093842957,9.051506404561135,13.176857511758216,-2.434861170158177,-17.956279673423246,-21.864759738021604,-24.019903927215402,-18.73998270375823,-3.5905221345383724,-0.9388676928239081,-13.382177441177344,-19.777356629823018,-22.859086430670224,-31.96699470449103,-33.33564034982527,-26.672299596049662,-27.939313689877476,-28.142456783693998,-17.80111728594369,-15.22791521667088,-23.28426021692222,-24.49673358690283,-24.465989138964126,-30.234965796644136,-25.06960140939219,-10.417335665884988,-6.000709054393905,-6.001922721438169,-2.583475227045581,-10.200820625266424,-24.540589342050968,-26.607560531001635,-25.62296822922316,-30.083422034938167,-23.159132411309688,-8.16592756779116,-6.607105059976836,-12.07891529234143,-13.866073122706553,-22.17671066220476,-30.50937134849709,-22.24782609715171,-12.265573981608204,-14.918435328383254,-14.933268667896002,-11.018945359443848,-17.547512383628032,-23.11061206550825,-16.969970332510577,-14.364979048102649,-16.428153032720555,-12.322651028855509,-14.971961134610236,-29.477360061362667,-32.87255575812801,-23.446976109501335,-21.203632678402975,-22.212135764102886,-18.849897948976803,-22.701007558220866,-27.7677515536619,-17.786683101967302,-7.947370701387348,-12.906982018322166,-16.551742833179148,-14.233797185567923,-16.85395361248083,-14.140233396402031,-0.7812481021423423,2.4691553003512414,-6.48003590839456,-9.576880478046558,-11.278682281975529,-17.755693097297968,-13.708523715652932,-2.8664787555119537,-4.202474010435164,-7.714549481803371,-3.4504041502390157,-8.118968884841767,-19.995976397088942,-20.279161200480985,-17.143045618491698,-19.47941765143345,-13.842323749338446,-6.361591616230109,-14.737803991410155,-24.323631221477687,-21.644834172377763,-22.46302289498236,-26.829756282093395,-19.867584544650377,-12.566306089765014,-13.194087315256898,-5.8829225621362,4.9592565366712,1.0700417885843994,-6.152731185886004,-5.282570114618123,-9.090000775187658,-13.228549715878017,-2.8650999339953453,5.889639519083566,-1.4389215031466023,-10.032655827813759,-16.471693764972777,-27.973681820183614,-29.858201002348324,-17.694398838202503,-12.582905607285086,-12.341227708730292,0.3637107864804179,13.293357209015888,14.343453694386628,14.75583775393575,10.861701978902223,-5.597011679551131,-13.822603676957575,-4.2026600194620592.155499872842144,1.8380071978803845,4.87924319779624,-0.4191296501538839,-15.669907536773529,-17.849954030006483,-7.778758190757649,-4.006642492987262,-0.12680983263970336,8.174804143753322,4.678144322890786,-5.718751292559363,-7.010602355945826,-9.88587211555214,-17.422377017791753,-9.304957027148536,8.8501084271043,14.839151002566432,13.45323345383087,9.535015403850187,-5.749989917975131,-16.666633946635816,-4.3848762249288065,12.225641120457366,17.115738130031104,21.728795576137436,23.145714303197835,12.112712708194863,6.8713202346427895,15.236012718470985,17.09050578937401,13.129670174870775,17.2158497682148,16.62229410359059,5.102525436833447,0.8865962593213935,1.684466271379051,-5.201744142900949,-6.120601532691129,3.0173863957579474,2.688264719023241,-3.226137557459136,0.5425668841745037,2.320656307139934,-4.1813378327594375,-3.3618671148270307,1.6893716267039809,-0.26964248610666175,5.630397740899601,23.645612433060364,29.910909693790167,22.674986298431826,18.654314115521245,12.5278446696352,2.1736798790723717,2.453797266599719,6.346286474848796,-0.22092077805926902,-1.9570350395912484,9.177802867917471,13.8906638529085,11.40358650589895,15.187157861717612,15.156570847510476,7.891775045138236,11.543966570132696,19.948282169416068,16.4766753473387,14.942567081294701,21.321259765597624,16.737689540287555,7.435210186471349,12.459257002356876,19.99691698396085,19.752867740545213,22.12419339770134,19.98019440531343,3.65540104642003,-6.217670118826124,0.26754132703332933,5.6850792358931646,10.214321469275069,21.284849508323788,22.09584571048301,7.915072779296093,-1.6839309561378493,-6.617785819522084,-14.628391300164425,-11.434220014397399,2.80561356879626,7.04991368137788,5.3676425358506,10.03477097804888,8.481163260091318,-0.39852139758273974,2.5853154636378184,11.984785565809537,12.761955786409327,14.832009933609307,18.466725144778266,7.679204764345224,-4.380166892690127,0.9993258479528988,8.800920517913966,10.686038971853174,18.01604087484104,20.447690043476456,7.543131728664825,-0.1736001014446692,4.151689983941932,2.858116894617619,0.6738398075121335,9.436671278068909,14.580025469571801,11.351952709356082,15.380102470814629,19.024644405624485,8.736720759831615,0.7663179872433623,1.0281218460429031,-7.168791291565656,-15.43854655580919,-7.673305618707975,3.0620743303294127,9.656695692877154,20.150118005375226,20.796698087891997,1.3217113170138077,-12.968348810076298,-8.321397933870019,-1.4970094032672507,5.395750496999227,15.832454509086132,12.323232161914522,-3.5648650547206957,-6.9369671029541315,-2.561356081578517,-7.881642395456631,-11.930749546899536,-10.681471855274534,-18.846799622716244,-25.909790859050588,-17.39120753514745,-10.957669983246697,-13.144289309444268,-7.7987008460602905,-3.119279791893183,-12.359415558331909,-18.635055272500857,-14.548907430103945,-13.76335482565295,-8.962045615253718,9.075802868150879,19.04554946221699,12.051657248599756,6.114758538550895,-0.11529913912874679,-14.366847804688446,-18.924817299826664,-10.58047415428209,-9.709994393906891,-11.421842710855666,-2.70765706788596,1.968520038966905,-1.0349480310253962,3.2102921769629984,4.147094863889149,-10.046573763877392,-18.576447015467437,-13.03895865676358,-9.084144549413661,-2.7851340044772535,10.6674499815266,11.196738433281418,-1.6955612370218338,-5.779007431135797,-5.406886159685312,-11.369247700344674,-9.450891261546918,0.17411542684317016,-0.023310668359421527,-1.7198006221458813,4.398669696843281,1.1800244497997188,-10.419834297404071,-9.47711844241941,-3.6672154925821245,-7.517031672970622,-8.892591179268967,-5.857403226767591,-10.978934277971161,-10.821296946350651,5.675952817923506,14.936046649260145,8.395652645965182,4.647368636461192,0.9707512383799686,-10.063982543429532,-12.062939378343382,-4.9902321701539805,-6.7054471317458475,-8.861884992796195,-0.9404563836203641,0.7846348619016252,-5.900122735121551,-3.994417811441931,0.36089250573525655,-3.7578060807860107,-4.6362273237955645,-2.6578823972052525,-11.045143804383455,-16.935958120606042,-8.281497150288669,-3.283304518454325,-8.207049671572582,-8.768492682187489,-8.86876903692934,-12.86527557228308,-4.958158095532653,10.49472143604935,10.76641249362309,2.316279172356181,0.3980337124159229,-3.2113056871806416,-6.721015639025425,2.5985790994037874,9.828131562909322,1.5209058815164833,-4.8270448199091875,-4.061677202407104,-7.751392112481224,-5.543848080814919,7.338203070323271,7.989953403908375,-4.41358084201615,-6.916800705935026,-2.6167613558111116,-1.5673782444180655,6.312798155518053,13.742371109469874,2.235977268425451,-12.060665423541547,-10.399200243382499,-6.568653497488297,-5.184811150875899,5.0951059772493466,12.721750693329996,6.72791225736334,2.4892453970441366,2.3745110226649073,-5.068412117259561,-6.5949580287170075,7.612431780469846,16.98845381659353,15.25822264438495,16.72593469215627,14.69488132296869,2.661168194809197,-0.9230341595260062,4.683927777999321,1.9205432164086518,-0.06468349956023367,8.456398931098299,9.079993098237296,-0.045513036009840135,-0.8155698691008092,0.2966053113896376,-5.820595120050346,-5.031717166707471,0.32471612785668613,-5.609067122480768,-9.35466579687434,1.241258388309916,8.150799473979411,8.10096346193312,13.437072151364191,11.06694581786531,-6.504212787497384,-16.133068367523087,-12.962392658278631,-12.06723285856193,-5.764684724507251,9.046263863097018,9.252372508362663,-4.300517947147797,-7.36785427985299,-3.224088655380777,-2.52383019043574,4.615626803590151,11.832741596053365,1.9731596172973096,-8.681367215097596,-2.3572736220984707,6.47672128566827,12.791529653085012,25.38063327489983,29.435752410634677,16.020340198725197,6.356972454966781,4.251811566547887,-5.319522608302238,-11.896448930369141,-5.725841029088084,-3.5996026875442864,-5.434306343602717,2.311569450954126,4.636961464638376,-7.7195143394853565,-12.818866856688192,-7.968433522544264,-8.472902880406032,-4.440113910319781,8.679624831248715,10.386994594581473,3.5967548718381224,7.28203847854399,10.562365246119063,3.380694142666733,2.142114730271537,5.438020323499336,-1.9263303384479387,-6.4450536992506136,2.814807011238735,8.562211497240309,8.896484523199526,15.756278275933209,16.202650377296212,2.5375837302931235,-4.923999198974199,-3.9731691429035667,-9.240075115978957,-10.173056226908454,0.2809586475330441,3.438872335267841,0.5399924187782701,7.038990889773229,9.548883345478473,-0.7927890972220171,-3.3898605773645314,3.1035029412173474,2.7631467695374226,5.985453738970147,18.681145853717204,20.171882016211107,11.322651579844923,9.4072881580432,4.701417621865479,-9.327331817315914,-13.926809616860854,-9.114100126085203,-9.474897284905207,-5.426137804991375,8.041455030217739,11.669416282162295,4.549578490111129,1.31538511164804,-5.333346490061876,-18.684889494641876,-20.60697313754095,-13.501424055108274,-12.058863497453727,-5.226625918471258,10.820949327791968,15.493505313835822,9.201874845997386,6.033205378040433,-2.2887466144167017,-15.913404246027776,-14.649527210112396,-4.582425795759305,-5.337138762710473,-5.921141295481196,1.6867262387079158,0.7935475969710613,-4.2754264867514715,2.882835637461215,8.827561014676057,4.075485866561922,4.25809165451694,6.376633130603141,-2.4114543880058847,-6.476822999744908,3.361129192064282,8.295576853078424,6.074972118846275,7.858628047656819,3.4612333960177786,-9.584682267994365,-12.62363227149894,-9.453301034357104,-14.273947224460539,-13.28354839983481,0.06601074668017493,6.047951055996428,3.4461420157799734,3.814238919229416,-2.7273663575683864,-16.296774766261372,-15.80250730825126,-5.834610665911298-4.678549257825113,-3.037515235343763,5.3312064774155274,5.2127855462291155,-0.4647460178595342,1.1583788715088186,-0.5333000678426805,-9.322923213669334,-8.04764332122104,-1.329997842896199,-5.332878778480872,-9.003173070419136,-5.642234074147506,-8.626286197822948,-9.737869521307294,4.002923089237574,14.063573898189508,10.777948231877607,10.09971668695508,8.620127324561684,-4.318464083103559,-11.133308371780755,-3.9472539153534427,-0.30729485032384596,3.894858690076854,19.802152425675505,26.43077679192343,13.622552577900649,2.0059983795708907,-6.839380210527285,-21.34364248609212,-24.535717699862047,-11.803397796254641,-4.3806864612473335,-1.3722464307545816,7.95858961519429,7.709095788558386,-5.739588705036183,-9.74109559114411,-7.039285141372369,-13.351119459513015,-15.242681839507885,-6.259400371898131,-3.1217775981582814,0.44070410421366835,16.65347504613097,25.09415030400305,17.062945325890187,13.765953603669233,14.181067866070734,4.594053124001489,-2.0997376341005483,-0.0436118400519363,-4.2877975513838,-8.247193992252008,1.770996446591167,10.283968611994398,7.083421920911071,5.4067149105251415,2.835838158840085,-8.515389555957697,-11.38667692703278,-0.646124431969624,4.469927536552072,6.9281144419859375,17.931913904010987,21.839340027453424,14.155734722192292,13.332622884582289,14.984706368303573,6.927381759007535,2.8335281041053784,4.6968823088686,-4.7730920159767525,-14.46393413031294,-5.671718606481598,6.5042992832988205,9.935331171606233,12.707957262925925,6.922386306971768,-12.851899612168523,-22.05584148204177,-12.393698184031086,-5.2031014642710876,-2.3411507297063254,3.6991972314446633,-1.0222133450795372,-16.03702055506364,-19.926239945045335,-16.979783982207714,-20.581526219935583,-17.812873200483388,-5.5121228527658355,-1.5411655653368097,-2.0849524170709977,2.819097003766134,-1.3643732013584193,-14.626854290817121,-14.921697518423652,-7.026784027333621,-6.91435017777377,-5.725657304208655,-2.626920458858542,-10.526491919347691,-16.043695828716896,-4.766083483923606,5.664804305076004,7.4704226469348125,13.884591135233551,17.23112125769072,6.283401101057482,-3.5168027175438485,-5.793691674689601,-10.535463893804138,-7.338099096675098,10.93122434146831,19.310628574854576,6.853919808705233,-7.248061038063853,-17.92435571142208,-27.035140406993488,-20.294125019742484,-3.043219414349125,-0.12281312546494583,-6.4407195146806515,-5.344740032369996,-6.133145502771305,-10.405013779385271,-3.2372720774733668,5.314860502114807,1.2030264328307787,0.04547775848960811,7.688183745424663,10.583120595753975,17.688536258831164,39.90835515214688,60.346547687338074,76.9694433727585,108.16550555219851,144.09860004370393,167.9768433106756,190.54214929533333,211.0547792382324,212.98907099993846,205.6572398195489,199.74903713258914,181.25595211208298,152.68389559830052,133.34763852054334,114.39012536262003,80.77190830541123,45.3915183370257,14.960324548999864,-18.67962911119607,-42.812532039510934,-48.03661277542808,-58.363592938435445,-84.33821168069458,-108.38906329974913,-131.53437199267321,-158.99416462808136,-171.52354702461642,-168.69939524064293,-173.59067443555605,-182.8732064884536,-184.50719191829546,-188.1932942436628,-191.2410203587056,-178.1962000098401,-161.54259356468856,-157.92526004284025,-156.46681790327938,-154.2179975581481,-162.171765778001,-167.41672030589112,-155.20537831610335,-140.02300253964705,-129.1966279204267,-113.82736945314262,-105.56650718818656,-112.9641504435171,-112.35826264260676,-95.21217303481228,-81.01053419334251,-70.82227036777572,-58.94236550989277,-56.8673174463441,-58.57647534994431,-45.6204033848821,-30.199164644729102,-27.87644739640203,-26.60584315981398,-23.0762713980438,-26.040446201780238,-23.846073179431322,-9.721494390564473,-0.7087130300783082,1.8492582552609815,10.104151799134526,13.782492099572899,6.8942456617137315,8.917008597214549,21.685273743496474,28.222568570675357,33.81666958836321,43.945597837278115,42.75464176096051,35.78696323269822,44.28481416228496,56.731112703984806,57.76276118977961,60.32470610683207,64.95088012064316,58.650669288567926,54.101101222687554,60.614823800906024,59.82080433775799,52.21827581277783,57.16872968415456,65.42323829260673,62.9429440599224,62.033774871169115,63.767023558888894,56.53599786160874,54.237917029593305,67.54639990599543,77.34576046463302,78.80836613535634,84.90226214978766,84.91801487852143,69.0292754200829,56.36710591185255,52.76795282678735,45.97566582122673,46.79571944841133,63.29605587891935,73.91774640171562,73.06537412614182,74.76926272637292,70.73469713430818,55.87592139798265,50.587905586783,54.76423944940014,51.3569687819474,50.92910854585758,62.48424278906478,67.39481544141661,62.7379042423378,61.52498695491954,54.69759451752309,39.00856653900067,36.247849937080964,45.58374959096355,46.72556413134996,46.5141409602287,53.29660847320399,50.95081811612545,41.399324612702436,43.10358749641075,46.87046085695646,40.8677522315557,38.211812651046905,37.95624895943582,25.986730351706854,16.044600483480924,21.557981867952332,27.303094615657788,30.577506002019867,41.59844128606655,45.0349752983786,30.11458738147092,16.869214035010895,12.224982575415472,5.686733936667452,6.1570482693944655,16.609058854873382,16.706611819830897,9.615983992402944,14.463826493696867,19.388167605430084,10.878883994509227,1.9540043417996593,-4.716878735367809,-14.64855446375411,-11.582156861180327,8.590807302990012,20.072029960020934,16.36381710228276,11.348600865428402,-0.1810208239901332,-19.371420018271486,-26.554734328233252,-23.407660174707672,-25.197177518713353,-20.921381430148298,-5.667889270327836,-1.0692837594428959,-8.067007682456552,-10.446513020455487,-15.21161253633837,-26.15213213994362,-26.773940845886955,-21.301242573543476,-25.12391843439477,-26.11190524408021,-17.351424847639763,-17.965007663419073,-27.025086984177555,-27.138778578137746,-25.497604277788888,-27.708770915589408,-20.44728935445858,-12.070965209871861,-19.905394905330212,-29.19992207999249,-27.625175929049092,-29.35332666051886,-32.87714042979638,-25.68747920765674,-21.137942166771474,-27.31002559250151,-27.97659059372217,-25.742126884621445,-33.61757040383041,-37.448697664113354,-29.54406674123031,-26.42636423601271,-25.969587642483763,-17.79456094633523,-17.12061075406873,-28.865308004929734,-33.00006384020291,-30.26134862284448,-33.8648462390705,-33.25224146096343,-24.17358376539877,-22.871214097974804,-24.493312079230094,-15.791681278796386,-12.728205329927714,-24.157694056858208,-30.307315259038106,-28.76760533080232,-31.510273027371085,-28.63147577957202,-18.627871339523807,-21.604667831884328,-31.698937266152843,-29.228708371186976,-25.06722363912896,-28.806909486527054,-26.321833826512403,-20.709768745029635,-24.180499947907585,-22.746613912216386,-12.027680156608875,-12.524181060666685,-19.73544267110027,-15.145824954785951,-10.223129674013276,-13.534633415391065,-10.777334070874435,-7.565457875441504,-16.95522434602396,-22.08532591412852,-15.364018447257722,-15.823634563516238,-19.41730827113185,-10.236219378979063,-3.0181315937097035,-8.379429121204447,-11.643808740477608,-13.956809687267427,-23.423600015814852,-23.61045905211756,-10.375679131912669,-6.208133037966874,-11.127759378529806,-8.784337878098704,-7.106633136672016,-11.799391954482223,-9.891145996634295,-8.912062896534026,-21.84137147836218,-29.52935090681999,-20.713363470041138,-12.222651306326544,-4.489956612227283,8.65655860979272,9.507745498208063,-5.022944032035446,-12.920285413118911,-13.781095805043119,-17.610164103026516,-12.757835457304537,1.1942690395720401,4.660127618229216,2.1166319364534383,8.0620024455332,10.5093598294068033.4355282349095795,0.3401005582898151,-4.018754840742577,-17.169468228077356,-19.470043329784446,-5.520118441649322,3.392929056521395,6.083906724317421,11.6693824074014,8.759561725281976,-1.8811900907684285,-0.6419724167140057,7.51415105621875,9.246926902454375,16.668305238119686,30.19279182190834,28.020758408982,14.897362340790183,8.692737554046666,2.4855267140834196,-3.331572537795244,6.266642984948598,17.32075450060677,10.191380550520162,-0.05988252698604235,-2.9429645924938015,-9.216213617590459,-10.03815172334143,5.116513408573857,15.132458210352592,10.043690881009198,6.868555988672274,3.7227560474699657,-7.266997592575989,-7.614973228715679,6.354725719526962,12.282253176158585,12.595008035642085,20.54233760212245,22.66456005076606,14.830667148261174,12.665344252447653,7.787011484620248,-10.083870226654776,-16.86020657596007,-2.2962185794503176,10.765397712430236,17.265158117039764,22.794968069476347,14.29009574558691,-2.7769718237432226,-3.4649939729680765,3.7890038330818943,-1.190683151613066,-6.866130371020568,-5.318855217908103,-7.203019483395793,-3.292396678147672,15.838421348489613,28.734169560033035,25.77305301571473,22.06208268346015,15.135735198497997,0.22691225164263695,-3.4690366881228867,6.7049210084588164,10.480301689234569,10.20272983715115,14.7792433800767,10.44771713908056,-2.17139324934616,-4.357320907708177,-2.655315580698729,-7.232836166824108,-2.8828796190504757,10.265496373396331,12.775213166660667,11.523693276854567,19.025072364356355,19.59063850930371,8.990338050934126,5.907826033552652,6.690325385085917,0.3336651044033778,1.6741099807374427,12.425884861566447,11.036978673042633,1.7035782913711586,0.2605780130485609,-2.5554980773687177,-8.15582711152593,-2.211033329017618,4.941713482546156,0.40118154102406534,-0.5325612267420663,4.599712789819467,-0.523302887836107,-6.619931688617822,-0.2791844358288236,5.001383338402635,6.647236233385297,16.248377346240154,19.757694547918554,5.468273140701621,-5.053973662476275,-3.4248843010915246,-5.792973469087914,-7.5235733495741925,1.1597966425772102,5.570730992979131,3.6313692946939033,10.80865209515532,16.985917323560994,9.339182624170991,5.295376111995765,10.13464020650523,7.797586883055859,5.191018273965348,11.84433414201893,10.608195258983004,0.22965238555138656,-0.050937776448630734,2.8739494978601794,-2.0924716158817978,0.45814220619172485,9.896205032740399,6.04752058640452,-2.0597130592567163,1.722632802380323,5.352004824438541,5.238586022509564,12.651317799050554,15.738442210728774,4.069213821622672,-2.8278574605150317,1.3394152642268025,0.9023481762815654,1.6558994685423507,12.24215988765927,16.192754955279923,12.250793873834498,16.63344245946613,18.794412311769634,7.874951221184444,3.306621747856302,8.8772729425248,6.720457824582883,3.2751297784907885,7.851010344050925,5.173939538717558,-2.747258188270498,2.6540258307054594,9.491885091615362,2.3900279966049216,-4.2561225950339985,-7.273791541540902,-18.48266055687132,-23.97785459543459,-12.066259736145359,-1.9972957572618621,0.953842806687346,9.924696609790303,13.471351885387893,1.6556374138074723,-5.971687273193473,-5.310240483138841,-10.643061491274924,-11.159810970151836,3.3808407946614913,13.60231023071778,13.350677349259751,15.676549286150967,12.529052936924783,-1.5641309595714006,-5.64314967249419,1.0794054187800648,-2.0036315440399903,-8.317889798813738,-6.793886855870211,-10.364411356443505,-15.922626470074189,-7.868926686039304,-1.2880048960459844,-9.589978594485215,-14.257383116966674,-11.15241371529453,-14.689883306021432,-15.19454199011167,-5.183411096338657,-3.9570190183256337,-11.292292289771481,-8.934706146186642,-5.782808215231803,-11.283244076980006,-10.871485432386606,-7.27985364030926,-15.512328757808453,-21.47403153936701,-12.000030866928027,-2.3013469040106,3.9229657506290647,14.883901903519098,15.901467852819671,0.2759862399940971,-9.71557672632578,-9.994665920175615,-14.023191220658962,-11.677204703684582,4.182514046499865,13.950514376603325,13.009091403049162,13.336423927521976,6.373647411814785,-11.601266871449702,-19.094403448291832,-14.381168233984821,-14.770084430008378,-14.02826509922513,-5.5347137163610505,-3.6698846368674114,-5.868396893455927,1.5422667635324374,6.392647412621962,-0.9419926938336793,-6.570235880160904,-10.966897104594889,-23.42922093980323,-28.561122089119706,-18.21858173112624,-10.381199970264058,-6.443027675696031,3.2768784932366564,4.580335071246644,-8.030279121086927,-13.563647857621127,-10.537123483478517,-12.066497828299882,-7.101895017770747,9.262915307106276,16.295984086929437,12.382081273719734,11.515112560980825,5.8072202789822605,-6.174761209957911,-3.199286510977035,10.520518061737084,11.152826345926908,4.09931217457841,0.5522811261205971,-6.947066354968074,-9.34039021805128,6.22796571016123,18.264095713669622,11.471867804430211,3.8411529699680913,-0.005867482171660346,-8.92706990211271,-9.313081929701895,3.851483615255323,9.373871761215005,6.96515645421688,11.575958118716043,12.610395320411191,3.094893168093322,0.2513696703164923,3.167314905179918,-2.5209062406541998,-4.614521623498103,5.878193070139325,10.108081848917502,5.869020107085573,7.60870574766475,6.447142715834147,-3.0114697110297626,-2.347225230086191,6.991068944526193,8.202364603486165,10.18222724359071,19.598738935860858,20.45885432202814,15.874995730185347,19.42526477759828,17.904479155310916,6.180017676700975,2.765386510576816,3.7689548685778536,-4.116801115301631,-6.899471609484039,0.1861236370408781,-0.46220358745667367,-3.241397968226292,5.986530001729529,11.326564771554533,4.427309250095046,4.0442464396835405,8.219187845269161,1.0238700711628135,-5.590200127636909,-3.1098435248583827,-6.309829585070355,-9.325871024880161,1.8929995328976919,8.291619886686556,-1.3690776892127596,-5.296155031538755,0.5149119246060079,2.5196742219006407,7.04874393370674,11.998504976905336,-1.670304169081322,-20.392626069618217,-17.703844891412817,-5.019074515728222,3.4396405277641624,14.937797871054318,18.852726491695844,3.169461471611271,-9.092971350392636,-4.518229558973083,-0.32949949399072764,2.051423046452656,8.91255488388927,4.275072473033054,-12.149972535073502,-15.806901739750646,-8.801354510548231,-9.305271204129962,-8.97629361761322,-1.7783824306418718,-2.1219622608874116,-4.475184267461555,5.6841687085097305,14.040143403616936,11.489115867751185,12.886919577622493,13.20517371318892,-2.0301773806323586,-16.40379081298397,-16.70303456235112,-15.600350225329862,-11.775743573416435,0.8202511964729151,2.5682399111381664,-11.511950747457064,-18.35296954908657,-16.400226058693317,-16.772886742971814,-9.798528165220409,1.9156232419774928,-1.8878892885166798,-11.5046377936349,-7.47898071557197,-1.4044462935132251,0.35815964735526884,10.882726115036439,20.23545439140183,12.659022166823041,3.388720495101669,0.32189875584070093,-10.760302259445659,-20.547753051297796,-13.057874455323063,-4.997952472638138,-5.2754203290519825,2.3964912061970396,12.47336276101706,9.821086989786062,5.969201388292361,4.878711844427242,-6.793577063478375,-16.201378849930688,-5.36635621422897,8.326560617049424,10.63114024449354,10.91257398590068,3.92345621956277,-15.891855588572213,-25.62399720171021,-17.263089519938163,-10.512707686191733,-4.477772715142722,9.659392401628018,14.591340438435122,4.835029780328571,-0.11589179407482295,-0.936037999766769,-6.228430882236083,-1.538157964477422,11.528351117527961,8.30268457206507,-5.189010420916227,-7.502448111196301,-5.531116209413882,-4.748417838022885,3.3233581994247,6.037104166710593,-7.151792350892548,-13.3549020142739,-2.784766624830936,4.5034115091514076.7340732981898315,11.911274756293261,7.086625166826836,-7.093621204355881,-9.883599047643502,-5.210282604051333,-5.856974123922649,-1.2953857455040638,8.117703473925449,4.674844498754324,-2.9883271626963053,1.506821054086453,5.538017184198932,2.8808666583725184,6.3033313482057425,7.124620553579904,-5.2410214432959386,-10.62223511408461,-2.191953943087865,0.8338917154762849,2.433705341726716,13.213057361689671,14.788999904301008,3.427453379136628,0.9950826346654873,3.297381481561837,-2.1390870482209188,-0.3741432219338985,9.454405310199158,6.569326899065299,-2.3324854291368466,-1.5969514641755493,-2.4778739227441493,-6.504662748435349,1.8150062152189732,10.256773007039598,1.6643320253692262,-7.637764383994475,-8.254358183423216,-12.386965211568029,-11.479422591844882,4.940458643770053,15.999559838131708,12.47445981327688,9.677269092173445,2.6620865747169833,-15.469255989277436,-22.793425330313724,-13.729458630631836,-10.106532322099014,-11.098870102321804,-6.019315218557631,-5.893505823636987,-7.9811288569635135,4.587151573267666,16.392994276013138,8.541748645686319,-2.2639953799284624,-6.701176007476871,-15.128170860760983,-16.758712629110764,-2.193509128664086,8.084213061205919,7.765759992794365,12.665497160052036,16.275096278434226,7.252971628693818,0.9627353968111187,2.3868768785065533,-3.7277838528430594,-9.802462633746652,-2.091068207406717,4.772779104487096,4.0555475400188605,8.685210828290751,10.937533512639483,1.7136682669933672,0.10503577048534174,10.17156309690343,12.572417190132018,10.477447183223497,11.838062179800293,4.3575698183329745,-3.8447225154691678,8.81767458974156,26.69463587047202,27.107679485761615,19.317868052742213,7.899260917703466,-12.391432524160958,-21.848079118168023,-8.918514506645955,1.5498283691553676,1.1685810850038223,7.117518398620158,11.977576855752002,3.419143018745669,-2.7497849593754298,-3.3957133126384553,-12.983351767509852,-19.05530772699303,-8.679407562091157,-1.1804556718637398,-2.4818276203868925,2.8495697619436107,5.605332585635211,-4.987025817104431,-9.951621298373926,-5.2196330159905715,-6.522335714380497,-3.4350782897866248,14.060105352290503,25.67086676290404,27.693832539270637,36.92419862684289,46.999946216069134,54.154876156584635,80.85269824469111,127.47461494634484,168.36320687125715,199.34690744974935,223.43883531336638,227.22651092287177,216.04694238809367,210.27962722368005,201.42023206477992,177.85440448149146,156.55378662544487,143.26532208252854,125.6537728525565,109.8214518021118,99.06660590997117,77.00839302242589,49.062030208164316,33.227252850414054,16.054279639028127,-15.049973698505804,-44.2400885335332,-69.1515263582234,-98.61807930695315,-118.73322859180304,-126.49922907255736,-144.80185558057488,-168.8758083162129,-174.28868874194058,-172.29694542565827,-180.8867299227411,-189.40950384308016,-199.6667319826125,-223.13842539373906,-238.72566728533445,-232.22763648025915,-228.306560924542,-234.56646803683583,-232.17735867760018,-225.14858651987015,-221.77891796524332,-209.52451581485263,-195.0111903828597,-198.08815736975288,-204.94296544646048,-196.97092743464142,-185.01483710891588,-173.14791524818799,-154.7625000555606,-144.46596802372997,-147.95348552735618,-141.58565300577135,-121.81652182061646,-108.1236959213901,-98.69570903954109,-88.66594514898419,-89.69271171928634,-92.45493326887504,-75.84249999368508,-52.399666297814235,-39.52122086976639,-26.38939384249224,-11.86787565262366,-9.535786624654765,-9.785751168534247,-1.235955062504364,4.613951419432691,9.467345397410341,26.60779797648944,41.61111526907604,40.04765718341211,36.92365869947062,37.903920670314804,34.64903561126877,37.982554858233776,52.69894650851795,60.48711750756334,62.53083196019099,73.22768060783407,79.8452030692257,73.77247757451865,73.65373874037334,80.21623331601405,79.86869190246287,85.20947939476592,102.09921406633629,108.51953016432306,106.03762735404052,112.89804442393884,115.88816545287884,105.5940021662339,101.14512676753591,100.52781904414647,88.76405849867933,82.39678978945634,92.03660526373123,96.68847002570514,95.22287053122,104.33912740497902,111.36025524523527,104.57494019929617,100.36127726960684,98.16700766219888,85.39038593270422,79.68521552542029,92.74548037569834,103.31858522938722,105.16899173832844,107.13450913764619,98.2829176013827,79.71808513284799,76.06492898672124,84.89927334602129,84.48100164533784,77.83465564036207,70.4143495404634,53.86592896891453,42.502955686281716,56.10554356474044,75.94982278049869,82.69189668034126,86.35375038352922,84.3622501651532,66.63023843114709,53.81629628414965,59.88202266837342,66.23373465467525,68.86255500116437,76.66544064845938,73.88800289120533,54.94014938229695,45.12741026425214,47.87025319232039,45.32601324437094,43.52804071299797,46.88236715164604,38.987217172713684,25.726710931857532,24.52237321989102,22.762834035610087,12.89976847704971,14.569429300512056,27.13883775928529,32.986526728185424,36.450958536755024,37.65555368591268,21.81149283835326,1.372681184451027,-1.7533489744705046,1.8602942530428936,1.4168174273650394,6.908329729686436,12.347049198885488,5.16564037634649,-0.39254692780330414,3.138413187850741,-0.016725988721451035,-5.933864036843175,-1.9401711272019215,-2.110018465595916,-11.837514018396638,-13.645311826935647,-12.934712694872886,-24.090932526045925,-31.43850050834716,-26.78049210871089,-27.417730881361347,-30.16631572132909,-23.20697305593723,-22.654204647666,-32.192802879335964,-28.82760920014633,-17.000971973180558,-16.93780013786044,-19.807231250320424,-19.316779983231008,-26.961578369514072,-30.430917409381312,-13.629188800094703,2.659370227317953,1.630744245007669,-4.994976581503477,-16.76423026991041,-37.0356269118534,-45.1266662841113,-35.85305758206025,-31.90659653043038,-32.990499687487514,-27.470545433705894,-32.34597601167173,-53.51360791645389,-66.62319152926493,-68.5625290242703,-69.69049236699851,-57.36894914747239,-34.591388255693744,-28.893502660450924,-36.5914401881139,-37.66144142555037,-39.98571090288298,-46.48694278414816,-41.207679615947455,-32.30975314594984,-35.5830073965376,-36.90802046845185,-29.25040433711504,-28.516847815394655,-30.379068023124148,-22.84625028096259,-21.040277322313298,-31.20195403155708,-36.311269484854904,-40.937436356913096,-55.84354787239785,-60.79957749307887,-47.3967199728411,-37.40530237342687,-33.888686673117135,-29.258240223334035,-35.691703184364655,-48.646728631283125,-44.13370830248492,-31.16953468000409,-31.58538830818604,-36.43281613606081,-38.743934898816676,-46.55973654627514,-47.24721979244349,-29.536771233525055,-15.060838789361974,-15.746876094424685,-17.15909819671477,-20.465263175005653,-31.456065849885487,-32.53799433719352,-20.481389917436722,-15.34836259838451,-15.191475395677717,-10.456166154200073,-15.45256530991868,-30.654274088747933,-34.26657536848363,-30.03600817846192,-32.33805941447857,-30.573785900861154,-24.625577115371318,-32.010357568779334,-41.34477543534691,-34.30786841451294,-25.119737022523733,-21.33693530214294,-10.813407280325066,-3.8504690265934913,-12.957773323549148,-19.889052762632254,-17.633192202002668,-21.620383242903088,-24.289945314411526,-13.381296225616683,-6.294991691005082,-9.023621327097334,-4.697159954815693,0.24445901511448564,-6.063617338949117,-7.597359793127777,-2.128614116432389,-9.331877831178426,-19.985918517148146,-15.336802601669241,-8.75253588057744,-7.6423525856283545,1.264943832619827,8.299997463024964,0.2906729232930916,-3.8429335612679516,3.1293681351502127,3.640036817587666,3.4625183869094793,13.188179337030734,14.153461737116707,2.26728194416902,-1.6230910971808532,0.10805164685683333,-3.2472639577163207-0.11037238127599247,7.915507260331041,3.550237443819703,-2.340176902088553,5.676317569411631,12.240744981246566,9.809970881299229,10.70272233993166,8.391012525490561,-4.463482028526876,-8.78869423281919,0.6534702177472087,6.753678630680978,13.380550288400654,29.01694922139029,36.119405517390796,30.04692850294748,28.10460128699826,25.350444231604982,12.934369665968447,7.738202877384538,12.728110156513043,12.38484494779172,14.388670084577296,27.20879159676236,32.75425730437893,26.657362218669554,23.084722426198176,15.773046140341329,0.43717075793736004,-3.1489277197799095,5.08705405613848,5.564957281787811,4.358107973727285,11.291420601495112,11.969487675664467,6.065754390386138,10.185617591417959,15.433566593038748,10.333014135961925,11.860101805025511,22.15796638053136,20.958224962951853,14.126839855883363,15.212120451373714,11.971640947875791,4.520318248808926,10.742013691485402,20.955126253702588,19.271688738340572,18.009381563511475,19.381170205038753,8.140356221986298,-5.393302273360884,-6.329036614032722,-5.869594863197859,-4.21044514020466,11.590482922281442,27.39860341624759,27.693241009715976,25.009152688939558,21.833059033502686,8.649096627130813,0.7533256951315155,9.269954350957638,15.401953850193923,13.50518885402473,14.969517476967168,10.618281248635686,-4.986736743906415,-10.015159348900447,0.21506960305917833,7.45277822856405,13.932396838234643,24.250328703989595,21.224612692891455,7.256437542944474,3.9163599889771716,4.816875629018503,-1.113981890954805,0.8916455359463962,11.876297905088684,16.22700817375594,21.57079052797256,33.26520583646623,30.957950848238855,15.688728069741854,10.393409068102216,10.283166856387965,4.900524913331693,7.507804239170372,15.158868733017684,10.145538868591608,4.725136037899183,12.197966140096288,15.142092319180449,9.767206922619472,11.359810541599995,11.546068609561042,2.447924036628178,1.957943382107988,9.320348081661272,6.127441426196824,1.8621901267675236,7.207508580244271,6.127533593153635,-2.320338437193647,-2.80747785668776,-3.434344494963411,-10.661402637834227,-6.676304709566884,6.477197483398739,7.0542792606811915,1.474365796547655,2.9742989556762733,0.4133459075030914,-4.713953899885402,2.828606174969798,10.834417099472402,7.058041081654879,7.693762141600478,14.096147486113379,10.291134042200472,6.213533414289984,12.834734602340239,13.861774273082993,7.783642494343232,10.961014569150406,15.151537835714494,10.682393230304012,11.485398220905632,14.641211108095424,3.8933819973270793,-7.589461411953266,-6.359553488325051,-6.382262696323135,-7.808499800607914,2.4912503840333367,12.191161581190725,10.532852711603626,9.609215965811961,5.026450309757438,-13.563278274072541,-23.892604502425524,-12.208967066769823,-0.46981515070193014,3.349158668507633,8.403071321152135,5.258293240430159,-6.695584058086462,-5.699308543939036,4.000666496528723,1.2286797302567591,-4.0329362809505955,0.12551576055365832,0.3056575479184256,-1.759535632266978,6.562519869589558,11.003211300777116,1.560886556626408,-6.128074593359994,-12.350614204926536,-26.882223939435814,-31.92092908749855,-17.164640497485443,-3.8941565475900455,1.4719460189845455,8.225480879488417,5.890752979839787,-6.619971018109413,-7.2633499948050275,0.270609642278846,-3.937519238923011,-9.912394220583643,-7.51059620095932,-10.430771175404212,-14.51102544048182,-4.583860680372522,3.8507990173379065,-2.1362148348593903,-6.772058157934759,-10.104907111131283,-23.969054174670315,-31.00971747080045,-19.388454491031105,-9.732905667229078,-7.039240917276924,1.29212333566079,4.052430835311318,-6.184485893901485,-10.54288482324833,-9.371110130244812,-18.669929006792657,-25.867665567844973,-19.02514473217444,-13.528594356536049,-10.225517510931326,1.5237882780300165,5.962096247542869,-5.830370002323422,-14.157947146119476,-16.410418628699464,-23.740411219022146,-24.284507204567134,-12.653429099441631,-7.476189298639399,-9.219983151081845,-5.7285498621668705,-6.935292215983054,-15.046044248243886,-10.466402532706702,2.7427560943735645,5.58869052185354,5.268518797414426,7.531382664859126,-0.4208201670028777,-10.28479821782737,-5.894353935205241,-1.6469366048308194,-6.543760631439068,-4.137068214717848,2.4474663898741187,-1.5120821041758474,-3.337123525355492,4.121895370604882,3.166754980195844,-3.7051765575034357,-1.891605136907243,-3.5571523963769125,-14.022769025365813,-14.726230132022769,-9.288731728524688,-12.46190977784411,-10.865020669387468,1.8087125989167072,6.874302644006825,5.57543024010258,9.929808628355099,7.605839354548994,-3.7111015746693465,-3.789429504947282,2.6377615787154647,-1.4280468921340974,-3.4459803036355936,5.108095203103689,8.182026511218584,7.807150016522099,15.264305358506284,14.879998883477473,-0.38487432469155713,-10.852789468242534,-15.622253640196442,-24.89644173650349,-23.939124200500757,-7.387973530944386,2.5652090850012135,2.9689574317421927,6.6258431971276845,5.1118046026564485,-2.364511310752632,3.2198816915742974,14.112447682580248,11.778005249952923,10.405942127386412,19.688117068244985,24.67294092097819,28.719924279529607,40.247606046643995,39.74398520685151,21.80660942448848,9.49178603045284,3.978505585639868,-5.889054953070181,-7.730356257107639,0.24384758885316327,-1.7176526087813142,-8.452028242185303,-4.932857242338711,-4.945136907946114,-13.75550243466698,-12.310135816604136,-4.716150326877036,-5.770889512072162,-2.9582778271452583,6.930406182706783,5.009378797736254,-1.9132544361129464,3.445931479749526,8.740060812039122,7.911528966018343,16.495572401926008,26.49352906707945,21.529997949479625,16.478317814971348,19.84248747436366,15.308877324760203,6.916195316867727,8.601282640955045,8.166134635727147,1.8202980741130526,6.240909869408995,11.678327899640376,-0.8724813415278705,-15.835594848713972,-20.094818317708416,-23.930339140471762,-20.547144904556568,-1.6163253702752804,10.31546391327966,4.92429649649263,-0.14693488805832916,-4.172044335673532,-12.303334418683214,-8.664259560597117,5.348457388273648,6.746518640543519,-0.38818446137427465,-0.28319705498585157,-0.6657423616036369,-3.0020064900071217,3.2464962350630104,5.296744360618488,-7.946084089967103,-16.51426111564923,-13.139800851711781,-14.423843306421265,-16.136791165052948,-8.516156843219536,-7.066606033236696,-15.142369963256733,-15.854414993092671,-14.934975780539048,-22.610126568117977,-22.504488643280716,-10.993481094009388,-6.527731748487986,-4.42475923032695,7.615758290650021,15.436161632637523,13.606314270467214,17.17758618449809,19.81516146905124,9.697469133887074,3.1505918298629916,5.787712738413402,0.9072777293690821,-4.188456253410297,3.6549467368099227,7.30728637691603,0.6100286179884047,0.11983880533144586,-1.3241256636131367,-14.33463917957404,-19.08060810612808,-11.305703806515542,-11.760520583332536,-14.6381027338333,-6.448640706859048,-2.028076514046675,-4.759864541680699,1.0275051326917688,4.0975320642741355,-9.691767924915988,-20.00898562819436,-16.758959260345314,-14.323680119707273,-7.09359176984071,11.778856040360608,21.18591819291839,15.956989435571044,14.716202673602512,13.902829017406402,5.568741791031379,5.589229754442779,12.708932717302762,6.898992473204715,-1.92970482162253,2.039501527860123,4.84960453891015,1.9246368391052242,4.908548856228995,3.195904782009099,-9.711466765289936,-11.725479630793137,-0.710833885527117,2.470595153725304,2.644452315204665,9.37203115696794,7.204125181246763,-3.793027250696562,-4.526526326603123,-1.3427428760546254,-3.893402674830385,3.140648683674485,17.69781802781813,18.93723870833875,15.369556112032788,21.25438493447669,22.59648458721871,15.71938809046499614.032280165132544,8.784793924720073,-8.952014539705727,-20.19389426743078,-18.489606882126875,-18.64791991985189,-16.677366530860944,-7.143071880619909,-7.481367166704959,-17.78273158807232,-17.61498425717537,-10.646332899311808,-7.168032189240369,2.4006657490658037,12.945989534105948,6.854960949518347,-3.8847307542115592,-2.5564474870639593,0.9708740017640661,5.893365641321971,22.516837878719244,33.85750350246538,24.45548838862424,12.66491014108875,8.813260501962825,4.284991501391568,7.068426408326923,20.589233132179327,22.628443589447777,9.811099941422857,1.8541723307321354,-2.232597992446426,-8.469707446945513,-5.068800230177687,2.95048757348174,-2.154683403024117,-9.346737642648156,-5.371842612632237,-3.7375013490025153,-5.7479481783554816,0.7322700511251639,3.6038500841736703,-4.9612573096635755,-5.171532259824426,4.102697546358152,4.963962303821987,5.350391356179592,14.367167952546094,15.918128969248071,10.603675022425891,14.154506631107438,14.014021951509083,-0.5584612690657735,-8.464756939968158,-3.728210195767074,-1.4364471907564462,4.124985864705962,15.276657113504651,11.340597273531078,-3.361115523279028,-5.4686236843132665,-3.3315721034471935,-9.909668006268241,-11.520393204382765,-8.105747665446383,-13.754778580867102,-16.40396993624291,-7.681172802678006,-7.648558479615641,-15.056952237364793,-8.705713287650855,1.4232916417763004,0.38477981252431004,0.38061088037469115,1.7959582067447233,-5.868037874815136,-6.926952175749831,6.829470125816982,11.940513878808119,3.676891742106682,0.37189460712596983,-0.6777460018902866,-4.082816258795758,3.1119507401376354,12.089553875238337,3.2546421756378505,-8.414802300158804,-7.309812602313981,-6.8452793118288655,-7.314439147115233,1.62785084262261,4.05732889733333,-8.329162266257203,-14.07346141111831,-10.722533059122032,-13.702135412107756,-13.244310259931416,-2.670861898130922,-0.9212133034495976,-6.263232350632978,-1.3129312036176404,1.8089685787414023,-7.2098554900234255,-10.466143746963613,-6.992047642533692,-9.921420910865304,-6.9753511161847594,6.899903822340798,10.189666076757494,4.3058679135279645,7.484280941187947,9.732214905356248,2.8153944713209764,3.7485749969508477,11.580262466506921,13.155448164185186,22.98084199307853,51.05451375308397,79.95386954006435,109.18734897250874,151.37495639705983,190.77788793436946,211.20631444118249,221.22645894891144,218.27655305523396,194.2840823601141,170.38614727162462,163.10186346298048,157.6856530799352,148.23096529445328,139.04814099456271,115.92069015297407,78.85830760770729,54.59686602820864,44.29974686299862,27.17696187544926,5.085246088739261,-18.016573781917682,-51.51450560524202,-81.20313590842053,-88.74616812987892,-96.00213627215243,-120.95397611618884,-145.43904742733312,-164.05230913732103,-185.51198029379492,-197.1768680154596,-197.57928222603596,-209.10704193650864,-226.69037208957235,-229.50501360889615,-228.56441065398002,-234.31137856876245,-231.80342822401454,-223.66495130594728,-223.27305465887093,-217.41302125980127,-200.0312655537944,-189.02355313694466,-181.76093577399985,-166.16940150794463,-157.08099424583168,-159.20277129922925,-150.28968388195227,-130.3967543508835,-115.72631140062289,-99.31029240154022,-80.70284811014452,-79.25131467168862,-86.16544803666402,-78.83869922810409,-68.92595504401439,-66.9752737240458,-56.81348684958283,-41.92797896664608,-38.586228038527686,-34.09481301637246,-20.318251090517272,-14.660658764068732,-15.4931304720144,-9.462736208225742,-7.327290669872892,-10.814434312028707,0.8089011414171345,23.89068879302052,38.62928619417516,47.46945938097675,51.43026043354705,40.59210340035834,30.824678887100905,42.53212417097367,59.99668465926675,68.74466748143001,77.91524627110846,80.66297387351673,66.7567649299732,57.97399781274369,67.41527281006108,76.82208272450363,82.64846017201674,92.33377175543549,90.97106972974657,75.78969828805008,70.42921097273238,75.32185655863987,74.37576428605256,76.1164882033075,86.2067347497767,88.94810686066123,87.04616310366792,93.63787458123724,96.00791689061508,87.91355580834673,87.69181966529774,92.63061900105775,86.94090952799499,81.82469692963703,84.1579823756615,79.61023563754046,74.94612467023669,84.49698778301557,91.88812907457611,86.50138365202127,83.2656224051851,79.56658302305628,65.67933683585781,59.87250684070226,69.81946702270488,75.99029981801687,78.34457834105694,86.33339578125045,84.92906511781756,70.61496583737812,64.75665920981268,67.24079880410936,65.23915535034874,68.1671008879018,76.24860903192142,69.7145076048071,54.8332273714132,50.68297576549142,48.13353793864013,40.937907125044106,42.371055714921354,44.99871148759878,35.99485069354452,32.547788753495595,40.8328660528561,40.39761477753781,33.15108174134109,32.50002747112783,27.067288168552977,14.97241443244803,15.590300471399036,23.835052510615046,23.76333685520571,25.993322824164032,33.17648829496676,27.38546915789867,15.915794106499181,16.33468251510302,17.23440865965606,11.865968958097529,12.088984444064767,9.895847589966618,-4.335531611114344,-11.732358982931164,-5.508230842444831,-3.3708908271182016,-4.21714217617575,1.1817912252538458,0.9760931500163716,-4.845488870581333,1.8427494180332382,12.33588734999428,8.661087368760036,1.8362475266700133,-3.0965811422065483,-19.02759700544915,-34.10142576327381,-30.93080426216316,-23.573109646758937,-20.09761208790241,-9.57186195727414,-3.5060510905470803,-16.474404502067674,-30.782539218145022,-36.171730282524145,-44.41716860520438,-47.486252574048336,-34.194359914492516,-22.63580876696112,-21.109598836508525,-16.595157433982873,-16.669611312117908,-30.712358202885664,-39.38077642868146,-36.268693827259945,-37.67183640138166,-37.998029708445756,-26.785701366409363,-20.19271251825958,-22.596491914361046,-18.98352914496352,-18.87592622188083,-34.27902532339568,-45.28419319392223,-43.060025041176175,-42.56669721411412,-39.039061438563394,-25.28629021611242,-19.75076179026265,-24.72228271776489,-21.31013298383044,-17.415241363614832,-27.141862443350025,-34.93638225258909,-34.35226718821697,-38.17132648401883,-37.902337053594756,-25.010126738041542,-18.90522014802173,-23.523536651840814,-20.728752945621494,-16.887449676434265,-24.4753004126884,-29.515875952065535,-27.89209365286291,-32.64720360184663,-34.51291959885756,-22.55774034737767,-14.150966410720152,-16.45713828395915,-16.223299830775492,-18.819036749939183,