-16.994112885898645,-97.41124259441534,-259.56350668610423,-448.4461205748971,-588.3192251950779,-626.8278336625093,-556.4027558547033,-444.32500885332007,-378.3768627319116,-370.9921860823802,-370.90840588717367,-346.3489711554672,-306.26188514161447,-266.26344600420646,-235.61706352120703,-216.4011284663119,-196.13823162192338,-164.47142947014402,-132.95881395941026,-112.8356199526697,-94.99060423091738,-71.7697085571593,-49.18400533026474,-30.113258204407245,-11.830909537573785,4.8787103320775085,20.610772673164647,37.58381210354152,51.85510918900621,61.303049124311094,71.45551699867109,83.53366250965294,95.36329240749642,112.26878461484702,136.38991944773582,157.69229740799452,169.56499801483665,174.80527840677402,175.57763969471296,176.2488534629166,184.39551378467362,196.94313331702062,203.73177316163066,204.3929937507532,202.46821372027762,197.1747654010262,193.35946066718589,197.4827844178388,204.9664407487666,210.38989935726187,216.50099076610292,223.91372016805457,230.3401080248959,238.3057465945574,246.84183004932467,247.27652107483817,238.65111787195735,229.92238997184248,225.40106973189071,225.72403428098622,232.60037007137208,239.56448846561725,236.57733397903448,226.3204775609682,217.3197241966868,211.18139105671705,209.61482418030226,214.69622516646064,218.5467115362761,214.15031194813025,206.67322168149752,199.8510042897452,192.27457144563408,187.5587162629201,186.67833000305654,182.55880279171637,174.0006492047761,166.3824498364971,160.05358917603513,155.05011234460355,154.63877943265044,155.3404653877207,150.56990375001732,142.46086272378184,135.07055649015254,126.97267122985805,119.73859161418775,116.86596869037957,114.68695405684213,110.23598217183988,107.40942102598194,105.82202369632886,100.13868366967158,91.59215396557242,83.12943403279202,73.05872875431811,66.31220036751536,71.75322962468395,86.69799611338095,105.93420103905738,132.16851629499013,164.7869320769947,198.68360717383692,230.7068607591748,252.34822848358164,252.7154392811944,234.51701207926124,208.75246787889841,179.10561367890574,146.37026187535687,114.33960927883068,82.81414957506786,50.392484149250095,21.765981189922464,-1.903798748131476,-27.426176418035695,-55.252261106148694,-79.61789848815661,-102.26384601624972,-125.07763595907154,-141.71524507033365,-151.9281887690918,-163.35862777259683,-175.9251965038257,-186.28987349555402,-196.9944218640992,-206.54188947524293,-211.0971531807005,-216.08025268936137,-224.53618320172234,-228.49213485037671,-225.14345043181999,-220.34983551205923,-215.57204048855584,-210.98436428364744,-210.0520086354545,-209.56467841422062,-203.84938329775693,-197.4579066036172,-195.41186962551922,-193.468415865498,-188.66525702728504,-182.99178967378006,-175.61685954752892,-167.00884559651553,-163.2274618210909,-164.83224093977378,-165.90989879978605,-165.6544635830929,-164.73864978687817,-159.51038604733827,-150.6499873690778,-142.94541403273158,-136.08615092065205,-130.01378860057497,-128.4392987961005,-127.95572750489794,-121.5066911806705,-111.65465717278485,-104.00759395423526,-99.39008045322481,-99.9762852808964,-105.5237080694558,-107.22337266658568,-100.69984295442669,-92.62648856821835,-87.0658910398299,-82.92807255392438,-82.96748762858321,-87.17024663403619,-88.18197495038072,-84.99446180505056,-82.20161566110818,-76.50517516138066,-65.62343861937192,-57.325302615618966,-54.87395557925721,-53.46186398853906,-52.85517749933297,-53.200872570129874,-49.19680722574782,-42.79132544304863,-42.24049005722296,-46.2706382455705,-48.75688035714673,-48.84336560525146,-44.999943992971325,-35.891213052171246,-28.33018468583652,-28.53979550263905,-33.26448813324793,-38.90074479186845,-44.05087950176125,-42.51496177168059,-31.755900300849856,-20.198851864539172,-14.380821350122577,-13.654167874496022,-18.32627840188281,-25.38415798848411,-25.61606469110354,-19.000473765425625,-15.363073288732615,-16.39400463601111,-17.432773285076586,-18.206568861559816,-16.89563060554892,-10.121993245745156,-3.484925198647921,-3.469209409151065,-5.957092638479236,-7.669488135139343,-11.281073405298615,-13.817919620422856,-10.947169676195097,-6.379496930583862,-2.7884469050312215,1.256959448529071,2.91775253837338,1.1898135564848626,2.3895258245808844,7.227476222598327,9.45139910668441,9.294278461110393,9.26876492815165,6.686802773360735,3.367079167220952,4.53668134526353,7.132749096787996,7.6977528178251635,9.976228545961783,13.244801276073872,12.275561167339538,8.983572871927974,6.383616978069979,2.9319396935937374,2.0994408754427765,8.483301069380467,16.990423915433308,22.070144573462294,24.90811572610189,24.626209690046736,19.57588308211853,14.909755190649966,13.792377572840904,12.551041847634515,12.387208618468854,16.995434361789457,20.437050891321093,16.95255968374327,11.797669343771028,9.586789321744844,9.310685777072404,12.764231120763968,19.019703339923222,20.379673154531567,17.021472111548402,17.36258734492292,21.482823203398475,24.27329832818407,26.53369869173115,27.853375251903802,24.838010168368374,21.489506323374204,22.614213295554457,24.318599717241185,24.604462362677516,26.071192921643203,25.207115197295686,19.075724850832245,14.350311044016102,14.602387701403899,15.882709647966994,19.06321849882713,25.27308420584369,28.32969909472314,27.308907141425358,27.04685710224235,24.772233313821676,18.51322064390696,15.836342049338823,19.216729874074883,23.41635527503037,28.213276798896768,33.4643558761651,33.08989915924997,26.889191213835744,21.462266857038713,17.556629023874983,13.366834425911293,12.317589929193037,14.500354956443951,14.04669669980347,10.857919988870478,9.170891618687744,7.72823619182891,6.119124628278601,8.397824417336512,12.651934034546413,15.052716990464926,19.118714714131933,24.95782465696256,26.209401623999298,23.611307184406193,21.576839982476812,19.064718109831137,17.081018422698886,17.941029879936544,16.681885409288242,11.069032735761617,8.55484384271896,11.837799288069304,15.27852339677144,17.386130960223955,18.676241940544543,16.030659496082542,11.718074275827805,11.626729894550103,13.15819445849313,12.764319287453429,14.89840391985204,19.75284722344075,21.44315521239941,21.580512088755135,23.512606905999682,23.24477033355015,19.488061389501077,15.41978224058079,9.73673163840919,2.383391025068231,-0.4331071029150264,1.7642176427293523,2.705526410667336,3.2381228227308343,6.89270131754943,8.789650551096415,6.422086563598066,5.29072011152211,6.191992787530543,7.958043107877378,14.864122285295638,23.534020351031373,23.555763320022482,16.68247078998658,10.955514309602043,5.801298529813784,1.3074551987650946,1.8462370214253203,4.173296702177341,3.5057925866140867,3.4939022910031006,5.135605097282635,4.404445924402521,4.064952120210582,7.501788015063208,10.292450340376476,10.845648529552214,12.973090430980392,15.705371428645414,16.644077586629226,18.568509849434776,21.20678108892642,20.111037671660096,17.1036110086919,15.449335659566756,12.693482557013986,10.56817247340857,14.277347176739216,19.43191300622689,19.346154424447967,16.247852875279268,12.41130715533525,7.812391147670956,7.691699943046608,13.252307170457621,15.2408740747997,9.805723274407276,2.9524052339772764,-2.6492159397272097,-5.74316876704915,-1.3744721839982081,7.471803453665842,11.310128636335236,9.686157928262446,5.520805264603354,-2.6846851149574826,-10.08236530915073,-9.189303191757437,-3.6162943235188942,1.0665051951485416,5.926838935628258,8.195781736991206,2.701087325433739,-5.948745986685374,-11.080360287138657,-13.592846885196602,-12.554563403064167,-5.298048497805327,1.2930145075096315,-0.00933480110867202-4.777913932435671,-8.044106250355227,-10.692966491423814,-10.92362531846532,-8.032410080095453,-7.733731092966579,-10.47094128424428,-10.396363536447796,-8.902993263118676,-9.482549159295834,-8.315001107320343,-5.397909507719687,-6.522066921303184,-9.960924808098456,-11.209069347321988,-11.726134626155009,-9.454008767129865,-0.5098719976151531,7.2890773385621275,5.351667804273106,-1.2427162121699902,-6.465077290551199,-11.164038720856263,-13.714802920073165,-13.7121989139224,-16.876826789011997,-21.96905433998192,-20.39277892781027,-13.077416291998011,-7.4097875732355245,-3.871716001958432,-2.4054417286946115,-5.545974480626505,-7.628033196886244,-2.3232815311070567,4.715901601456906,7.917751202001606,8.842296263924126,5.990961698398578,-0.7375739465293103,-3.5846772486016643,-0.6780590621252804,0.9222309715159503,0.07994318617547685,-0.21290556878600045,-2.0631390383915047,-4.868113777801595,-4.163634438732977,-2.769665547121776,-4.5801806650127155,-5.580506837284846,-5.0511420135121305,-8.067504720006358,-12.05883593159214,-10.95130663897612,-6.946245797523588,-2.77815486450089,2.385271131520283,3.7704728056867234,-1.8843627010373274,-6.400745044694539,-3.993296813925462,0.8704728603350577,4.992259883518474,6.797699848898178,1.9207114824703972,-6.750574051422647,-9.59307440205918,-5.913858452401911,-1.6462591300826421,2.1956855323543176,3.882665443552729,-0.5433421729901395,-6.452348057439385,-7.7720512663256045,-8.157037958082766,-9.081293820850766,-5.494363401122755,0.630294290597379,4.472880082939389,8.597318809732352,12.019466461491714,8.652675603508577,2.573857107250724,1.0793209977389115,1.0575258343386276,0.05738600767221802,0.8315613967637969,-0.03920223381207,-5.277002021695104,-8.070948002798259,-5.9205598144930764,-3.479520869670238,1.1676778788894184,10.179911434550535,16.311611958918768,15.471546096154274,11.135416532786607,5.527365067618095,3.1057957583577425,9.370931018038164,20.79415258113291,31.769580471302426,44.34855287264293,65.75807078497846,101.71576798673883,149.36373023832826,197.33461538796507,230.63903352985642,240.3249831796808,232.25388936073776,216.71250630188456,197.98041847615787,179.61929497147554,161.4649392950135,135.7524934014903,103.40227997221976,76.62111442226241,57.67784462178118,40.049516844299184,20.757029812717604,-7.3119514441803855,-50.086119794375,-95.70497827331255,-129.05668992421118,-151.08914485770154,-167.5441016439597,-179.24182269994108,-189.230434776645,-199.09921472234723,-203.3539165750043,-201.9547156442481,-202.59884549938266,-204.71063464427337,-203.05187655957437,-201.03458559545047,-200.77687550032306,-197.51424545766258,-191.3748622508463,-183.51401525177482,-170.31257140576898,-156.45398041513346,-151.7964271634678,-152.7823526335551,-149.62155200933432,-141.14977245103358,-128.45227689354596,-113.11939073940223,-103.75759417913159,-103.32636000276638,-101.09081171420048,-91.52246902564099,-79.8353391691059,-67.2378699224383,-53.913821873022734,-45.534654565360206,-41.908658744158615,-36.98226614295962,-31.074517324444983,-25.085314700720975,-14.188428232487563,-0.3053089491516321,7.7542343583447035,10.046521024472645,11.54999465715806,11.265722134719468,10.503408726193403,13.311319054137048,16.032688435302166,17.25908204344391,24.67078001737938,38.06906312063087,48.19170758239761,53.923641400411086,58.30741470042515,58.80281753952927,57.51669560876453,60.57989290519468,63.63008384776384,61.33711873184555,60.13439866663301,63.552340116431246,66.80334364205679,70.68472427312734,76.52478028005899,77.38187289712798,72.06324577881112,68.00310694194395,66.25883428266977,65.3821963106563,69.52625750182006,77.27240004616804,80.85713152680094,79.78565341982724,77.01011783649626,71.27331519120247,66.00813285584023,67.89865033646602,73.51442202784995,76.02826345787304,76.66574236797699,76.19157134829955,72.09271157543292,68.72207028663239,70.35296199426054,71.22425278001123,68.45470738473003,66.64878920050636,64.66917252465953,60.03315425370549,57.63730941411359,58.06857301369391,56.00232239072549,53.52475331252952,55.27545998515855,58.6974783924051,61.424374279989635,63.74191212299352,61.690650014845325,54.14937111890807,49.35590714299369,51.09297139971885,53.19157708441294,52.40286566573595,49.28401176969002,42.34141950186057,34.84408483389261,33.287701852560645,35.06474809485474,34.87962453908764,35.4552811222747,37.395321406299665,35.48107660788291,31.070461841838956,28.472437138921567,25.305686343938422,22.157113235254435,23.902297440727097,25.9395053823764,21.95167971075938,16.347878410813145,11.572234733092428,4.8124812715949865,1.2911661617159376,5.757534825800546,11.272374955351603,13.182231693745287,13.468735701258376,9.091134814211095,-0.22657578569108594,-4.957238215557565,-2.9124504836360994,-1.4998709849317442,-1.239018482689073,-0.1452770410338694,-2.317804746618894,-6.87213505747522,-8.018124369332995,-8.14788930471083,-11.37103762205436,-13.36344835968871,-11.785755413812971,-11.130131793040743,-11.175088873260455,-9.658533706958451,-11.026956013514528,-15.789746977226185,-17.65299607578656,-17.408084518393846,-19.41757723717611,-21.6294996862314,-24.062468356868514,-29.843573738948265,-33.82764793823622,-30.628211138908014,-25.50183434217861,-22.544782896332798,-20.2900782682561,-21.91799101734383,-28.591463876024523,-31.729410369286914,-27.16323864179941,-20.404177138524304,-14.850384600950708,-12.470300463839642,-17.41965625612224,-25.946900970625453,-28.771314381682263,-26.5862643019161,-25.085973101101377,-24.088370042580955,-24.296242580512505,-26.78186467785266,-26.232207828822727,-22.32779098654874,-23.475559536722635,-30.174528599873902,-34.78545890028576,-35.344082996161404,-32.80639402032899,-26.574954137504086,-22.557553555365413,-28.012397173999904,-36.624673809825694,-38.15419186464316,-34.30976412701433,-29.146010182833763,-23.261430413028094,-22.854571827254208,-31.015122214236094,-39.03820046354433,-42.12388924400138,-44.11705874494445,-44.68157697481851,-42.905865170312545,-43.75899794932589,-46.79175155584525,-45.331358861908406,-40.02002571087368,-35.33544167858523,-29.83557128833143,-23.669595281974345,-21.545971928766075,-21.783571410020073,-20.167171994555662,-20.14503864049336,-22.908930135281352,-22.970085634480217,-21.370121592954774,-22.43681355957078,-23.320009909076994,-23.62406844941937,-27.508642242439528,-30.5938665257556,-26.236517603477296,-18.14463497340055,-11.015167752098941,-5.035951475230345,-4.404431235276023,-10.537302450987134,-14.314559210553496,-11.192460695919987,-7.1453436000643595,-4.65196592701596,-2.6929362775053747,-4.071268787938619,-6.288386126444917,-0.17076017439139513,15.413558607725037,36.84991398136214,66.56502500596909,103.48446290644509,140.37575964498143,175.5960224535736,207.47251503644856,225.5156273594422,223.73188338103645,207.916305385164,184.33073943312593,159.45769174140435,142.54265529811872,131.54019134315786,113.25170044918119,83.360607005351,47.62552992265934,10.457915416545106,-21.919471921751583,-43.17134202428639,-59.07145806482598,-79.14145756129022,-102.20645918646076,-124.539766433147,-145.16087855158298,-158.98422819664805,-163.77401186162066,-167.6326707648773,-176.05648692396488,-185.05184420655902,-191.4780869131642,-194.29831744072936,-191.03518902458646,-185.32539572104383,-185.06722806186087,-187.3747218815448,-183.33943831677274,-174.33862767750082,-164.92165932941282,-154.55800801653612,-146.71826845799868,-144.106559453506,-139.17717008589165,-128.0059611382674,-116.21546945651673,-104.41278498301602,-91.77558359720162,-85.27322381042696,-84.43085720812945,-77.86458834446009,-62.576361029574,-43.53275686709744-23.89071952469768,-10.94594253801348,-11.143524758298575,-16.164843992148903,-14.288716432597422,-7.118394305033352,-0.4363864060336178,4.961958562335819,6.67477009916117,4.712800022029678,7.537747258610066,18.120034960964986,29.47814724826866,38.70600735993405,45.738927594988965,47.00217674783834,44.77820035043276,46.30646532321643,50.668326050300045,54.22861380311471,59.62212698673114,66.09012395661051,68.16626982706873,67.51168461112435,68.2285049566367,67.97302129754715,66.59853812008333,67.7833593929268,68.17498729995289,64.36565525454051,62.97997772201539,67.93074953598381,74.25450703436572,79.64028022079718,83.20086459661466,80.63161761858586,74.88630860258007,74.6101219722795,78.04512861284815,78.38585240196699,76.70844764524259,74.54616949069671,70.77169468554811,70.17722158317048,75.75371596066678,79.8609450217184,78.06847467660812,74.99445570395011,71.98490076072808,69.30604845945673,71.53960222921735,75.9548662742672,73.78701589637575,66.62971623724665,62.42823080640527,62.410715480172364,65.97092246360333,73.28584636510936,76.74522128602288,69.6481369691324,59.844464869936104,56.32567447921817,57.476282747749046,61.87243769714988,67.49074500663205,65.14165073329187,54.20699298773422,46.79635696327718,47.41429447059032,52.19305607952349,59.68157864044668,63.78487075378312,56.87476881674324,45.38576232519364,39.822784916640316,38.64429807856526,38.260509205996584,39.42245598904251,37.82594277584546,30.415873588329507,23.990763058084983,21.15282338366664,16.349065103946565,11.640800808783542,12.687085763127344,15.3309178359498,15.990732736924326,17.495894548602678,16.899152567626647,11.138538210166928,7.379609539159478,8.82035416926969,9.0758946670351,7.219146442876577,5.726365481783341,1.1702114438318703,-5.312151340641291,-6.253206876256268,-2.6867542824873465,-0.5601355233159937,0.9619407812567958,1.9001777243901723,-1.8184934259961745,-6.918468945707164,-7.596446040709001,-6.792326554523893,-6.621543309555428,-4.422490026680931,-4.155481163461441,-10.169967079479576,-16.084365276795996,-16.709106697232457,-15.391925410350641,-12.77171648706204,-9.00925031511185,-11.589213424568987,-20.978088431896225,-26.63124095280869,-26.076263967815063,-23.578696176218095,-18.15478977734058,-13.266634408586253,-17.721263936848445,-27.920013725674302,-33.114062398977,-32.45097183695184,-27.958864877690022,-19.83148298621223,-15.875997085794541,-22.323707847543506,-31.573731011578793,-35.53473043890196,-35.01432405114845,-30.78643079837527,-24.81351610628846,-24.889740258887127,-32.94374452133869,-41.31714177862711,-46.065213815839535,-47.922929242745454,-44.252547956179,-35.766521211923376,-29.11660201449383,-24.865746792144172,-21.104940425893545,-22.701703513496813,-29.919734296863773,-35.095740990994216,-36.76321688902485,-37.172467560362136,-33.10056945141771,-25.813064377640302,-23.59938653287805,-26.113700262073383,-27.266375480422724,-28.62677995782049,-30.37183187445829,-27.272782274434228,-23.22613194929411,-25.254890806284052,-28.064888447716587,-25.302619397244083,-18.270892034327588,-5.273503926413516,14.598835102659782,36.99238788818854,66.24974629071966,111.02860187781717,165.2724921154761,213.56385012442075,245.1938378818972,253.3644998053823,239.02999991105605,215.54335771378965,190.85728626491846,158.36201487004715,117.04704211806084,76.80009283401542,41.72442703125785,10.948015887241318,-14.618839394559984,-39.60458773598764,-69.18104444214053,-95.92708527296952,-111.73141258522656,-123.23601167291432,-139.40134423525748,-159.8181647065596,-182.70185421349964,-204.4804483582835,-215.31055397926528,-213.02816623173857,-207.861293014717,-205.6584197915161,-206.1521463611593,-211.89529462562604,-220.35778477870903,-222.8512797359228,-218.46536243920448,-210.79893608962504,-199.14794255974277,-186.16602325229698,-177.3588302717762,-170.23209803538094,-160.63007009865322,-151.25198773932,-142.8965729270222,-133.3377207229601,-125.9299126171178,-122.31734019944156,-116.51145227926071,-106.91065460747676,-97.33015524600603,-86.54081969841315,-74.07067481433764,-65.58801075531872,-61.550404685706006,-56.362926425566286,-49.42269420831541,-41.72241288327788,-30.2692692536555,-16.46039533236329,-6.133018158968806,0.8618649751308931,6.620746055022547,8.737829864872214,9.028802886797099,13.726549053351969,21.65335163078025,28.410869430622796,35.156703965326365,41.4824568502535,44.378261605533076,46.98081190737517,52.05120118149636,54.84266100534029,55.32946740189385,59.82994419877936,66.45958822911795,70.32336368982058,73.92273688605928,77.72176544592837,79.24075192846239,82.59346518418835,89.6311653969129,92.97272055883565,90.58355046282465,88.77117695597977,88.46826228351826,88.22065334209822,91.2525143239037,95.65974643798333,95.37800486991759,93.56252429110538,95.64548066492777,98.02981930027536,97.80496077452375,96.85825028704198,92.92815904689094,85.50314995381187,81.71377299282454,82.74231819740382,82.3362771437474,81.55794367011335,83.652621246786,83.5537118719148,79.42102079739986,75.81314112964716,71.72516642877275,67.40228106327471,70.69045855483317,80.80272809422496,87.20638462760665,87.71210578093714,86.3266997518384,81.67481386984888,73.97465604412069,68.4625666091752,64.06672791260041,57.393155884974504,53.32297711144721,53.91864708238782,53.41430193034018,52.05992532672101,53.37387741980753,54.04485306298845,52.65556537594928,51.74373694014414,47.514460825356686,37.70635713618979,30.606514131460372,30.51098048031426,32.89030438668207,38.041221570016326,46.898166817907224,51.645554654440176,48.320912143077436,42.10043245833348,34.37390375089838,25.320845190085137,22.084293225458946,25.585747389394182,25.903470850623243,19.599655633117795,10.96148880159921,1.0780078411370035,-6.401544276742639,-4.788012265065943,1.5341588316034953,3.5260064295658244,2.29048841052328,-0.3778600353026546,-6.689671038548395,-11.46211496726707,-8.941652418024924,-3.9020200342598415,-0.049759528048197166,5.129724675283274,8.347797706587546,4.892475233228461,-0.04174529636977997,-2.1829401750725674,-4.651438133989916,-6.131506762748085,-4.484767063956692,-6.45136757530769,-14.507304378451012,-21.12077511029389,-24.273154372342212,-26.424628666202874,-24.639555495088928,-20.59594357213605,-22.075167760681012,-26.769968155861214,-26.920298908625398,-24.418076360786124,-23.163544725862376,-22.473046992621203,-25.72842040568317,-34.47034777195786,-39.07302135936396,-33.082686468094025,-22.532764077435473,-13.817219727908773,-9.745987708168347,-13.610953460047785,-21.811202216042435,-24.650228608345483,-21.865460000039164,-20.898487705403923,-23.430111320903197,-28.019795333421158,-33.943364247671745,-36.28370618422372,-32.22219302401191,-28.383166470478407,-29.247353519509957,-30.177397234256745,-29.428186372406124,-30.066217334349304,-30.919142911609793,-31.810946934993357,-35.273106422001604,-36.05667318367816,-28.6039030852825,-19.0825339585305,-14.180586162714818,-13.657498755283044,-18.729078848147854,-28.58988302008032,-35.06844087235473,-34.90147766125554,-33.17153951362352,-31.496294972132688,-29.232696864922445,-29.09359653477856,-29.88272887581453,-27.558736014313613,-25.267002626132353,-27.213705689274775,-30.091834228578577,-31.066207688701375,-31.505030430742373,-29.666567381827285,-25.2179649649402,-24.859843983869204,-28.816642571346584,-28.43994774659291,-22.99442849971861,-17.08106211386918,-10.500208704491605,-7.219733516070802,-14.072456354579426,-25.550824771075554,-31.62966551693783,-33.18180192749834,-33.16172224286371,-29.518430421155852,-25.105377325777205,-24.413627331100223-23.12044350254827,-18.461447361662763,-16.19124450503164,-16.626153508969946,-15.11881192109746,-15.153023329630768,-18.903356839371003,-19.464685796898095,-15.61379076025489,-11.816574296254148,-6.260910318521926,0.17768405825162814,0.25896049602145754,-3.502571610422135,-2.551947388184856,1.6982305307991692,5.479257711582988,10.825047195297085,17.205717553707316,25.03846252992234,42.923635965223454,73.71417440643368,109.72975126938472,147.73277698272784,186.07719899581002,216.04469467035563,232.26984064656364,235.32339420724668,223.3024836377088,198.24923608910467,171.18011088232504,147.69334273239707,123.64833235268978,98.10695560622578,71.07675434133554,36.58532220839724,-4.1357416508277165,-38.74540113702898,-61.56289937923361,-76.04046060255683,-84.7631462018448,-94.54678864936356,-114.71085424311823,-140.83182971188117,-161.069306689492,-174.2288970221694,-183.46022753630245,-188.00397237573426,-191.02827424963877,-196.10919831593802,-198.55807833635708,-195.7757682331136,-192.00678125287965,-187.5537776832513,-182.35128143622296,-181.82006326355327,-183.78038532229317,-178.6439918056061,-166.63128873065352,-154.1156763591168,-142.97724117549535,-136.00746788994263,-134.1922217365314,-128.44879298263896,-112.70562171423212,-95.27697737446685,-84.7855920737711,-80.07602018664686,-77.17060981233344,-71.46627522854564,-57.7283941797609,-38.519113648315816,-23.872071215640727,-17.151867992632557,-13.239619154880703,-9.012342944714593,-2.9671108505695463,5.950427686484446,12.749893411666985,13.458507771384244,13.380360146148728,16.567788602460944,21.100576522300212,28.56610812142918,39.698731296554435,47.268508785114534,48.437211371604704,48.765473574203064,49.16587034231205,48.498502059780755,51.770900926932725,59.2388778002591,63.796038424328046,65.83796512876481,70.34285254978758,74.30616567573193,75.23409726724196,77.31966242409545,79.89880633268388,79.81774614092117,81.33547976383085,85.47423417652486,85.56307870101716,82.10824868037922,80.31139464483215,77.81050044913081,73.73220714574579,73.67340378625218,77.13371189156378,79.81988707625548,83.81125584622067,88.69198232494767,87.8694438214949,82.37729625175659,78.61737877763707,75.66763163163567,72.14675619290715,72.1481229864936,75.03019691770498,76.47634439070546,77.64916934177292,78.62155725620329,75.33047933271224,70.67718174901891,70.5993432451383,72.08064938112923,71.56729043767005,71.6910982148596,71.28001973781971,67.604297408685,64.7105763337678,63.70303453793438,60.19236165010595,56.72849114584993,56.77718234079596,54.512703180245936,48.16948618068087,44.78265232539361,44.70795975997231,43.78525130326481,43.64206502950231,42.80999332648129,36.68295540562236,30.690724797573626,31.302929763664167,32.84943324985008,30.398893919642653,28.488716244733098,28.790370088051038,29.018179040200415,31.685515179104208,36.176636494748834,35.29941722125848,29.70802244039016,25.25150498480111,19.230540107434813,9.587948757281978,2.1935052851325056,-1.445886361048045,-3.201579448636677,0.49681847056852324,8.701236719842667,12.649930232490192,10.760898139181773,7.0498042285907125,0.14396278555321107,-7.612495777704433,-7.85076528813838,-2.3445335401240697,1.0967554354770002,3.1407800655969513,4.513112984730608,1.398958445274219,-2.7205262198556563,-3.060594700206665,-4.366482542155829,-8.168772168475934,-8.449115820972484,-6.40880456847443,-7.266039813080912,-8.869431107732364,-10.339842468814588,-15.30092173815167,-19.834894151664948,-17.765407971667074,-13.369456449748967,-12.212596466386376,-13.269495289436511,-17.80113144215329,-26.48726327998228,-31.21867490799218,-27.891635748280127,-23.295754026389595,-20.64674937826772,-18.49864290510523,-20.146612193291226,-25.361752876547996,-27.32379361948152,-25.965342900511423,-24.389093392463444,-19.7216663458005,-14.182382597309251,-15.903833030916637,-23.092025886347184,-28.563532633577722,-32.65558348324519,-35.50153775859398,-33.48571892372637,-30.32263658306004,-31.573946154981705,-33.54071794429627,-33.520741753729276,-34.981930596895886,-36.02226889805664,-32.8583608285507,-30.26027672967526,-31.360564427751022,-31.75467569085975,-31.720936788749512,-34.05390500659485,-34.845718229965016,-32.66868501853429,-31.031984728981513,-27.901408340358063,-21.941528282212502,-20.071389240305855,-24.30266206663991,-27.880664583367338,-28.733019012822268,-27.691894760582745,-21.08587270062553,-11.300856059328375,-7.997499819572526,-11.763993923534093,-16.609553570744392,-21.713809961281648,-23.476947215061248,-14.169143958585696,3.3074402984353393,20.561122697102675,38.92838264378415,61.38517336394937,86.06374550909828,116.51976297876061,154.61820236893195,188.7348801942643,208.2040940025825,212.4402656378023,201.49606396137276,179.82907484265058,159.6612690281219,143.4382366142362,122.47030705371401,96.55206561385498,71.51753046492395,46.711183003770145,22.663463280144114,2.2321840048395365,-20.998102489712654,-51.891430500781766,-81.15747529088716,-102.33609353008853,-120.44766817523508,-137.27565165901848,-152.8549536125932,-174.07021917264848,-199.73440626951148,-217.43718239226854,-225.71269788085914,-231.48723100644324,-234.20138995365815,-235.28716240279283,-239.1166694206412,-239.34212467863026,-231.79814836852577,-226.8134948044338,-228.93378192069977,-229.29379559315555,-223.4391743580726,-211.46587104418887,-191.51566488269282,-171.25879347698773,-162.89172056150414,-162.0948385355837,-158.12636773000992,-151.88597477168537,-143.6731362823578,-128.8886197774463,-112.71937593189736,-101.69578243752015,-90.76278694376754,-78.33983701014186,-70.5109577912905,-63.83248558561911,-52.05351264315397,-40.24399724056039,-30.646960806254633,-18.159054854770545,-6.916278054749295,-2.305102839951962,3.250346499248036,14.085503228696268,24.38072614163582,33.72208098616493,42.93604929215609,45.86642619654603,44.23004158142102,48.04330380766198,56.2424622180071,61.68960083280683,66.35047788423222,71.65991014728522,73.40914896023644,74.20746725967518,77.85674398739567,79.55516197420964,79.45020037194818,84.3310108386903,90.9857197245993,93.59911758658924,96.13394587760753,99.11318723724435,97.47889963965544,94.90894463715512,96.05094289865139,96.2068301379063,95.34108700897124,99.23296352800975,102.74662642132509,99.63830473122064,96.90208741545868,98.2577294240632,98.1656982116581,97.80259678019829,99.83990666870999,98.17077355973677,91.92460079295131,88.30349200966515,87.17509024620196,85.98294198242453,88.74933401161684,93.87197992747788,93.00176821736103,86.85634999953044,81.95874913045296,78.76802201245282,77.82677255854946,81.29037926352936,83.3405499182492,79.05613189994526,74.81395053557935,74.39040008227582,73.61106829359889,73.0038200885569,73.93304499838503,70.84203958121111,63.73582596779829,60.206127594512424,59.32985128585593,55.79582287979077,52.96430353474845,52.56612985734464,49.76762232656341,47.04743518271976,48.737903886488816,48.18459754187248,42.081821944022465,38.021104096140235,37.16705366440246,34.85923351260354,34.08625105790443,36.69063154870114,37.779773650993,38.45823085078908,41.202255916929616,38.24949417196012,26.336445410844796,14.986884495165242,8.604950219902534,4.7197887687664295,6.086007235446607,11.908867342252742,13.936193395233136,12.078542257545932,10.756943454777268,5.746611193014076,-3.570301811362975,-7.686658691070226,-5.02709207692882,-2.2055132254346015,0.4128110296833447,1.8963615353065966,-1.9962875920793537,-5.874216139408647,-3.1862981890413065,0.031100926384124428,-1.7534038763696203,-5.373722083661469,-10.000752905595903,-15.242639679247535-15.280771408787189,-11.212066763250313,-11.952052812401604,-16.93635354064639,-20.027277466949062,-23.05264160660486,-26.597737358043275,-26.678594550957534,-26.986230907598326,-30.46000507552703,-29.553886194217196,-23.64357839576527,-22.12776441531576,-25.550640481252124,-29.127849829089545,-33.541401403985,-35.32271649415874,-28.349819657205288,-19.421868816996238,-18.061973826340143,-20.59318584083625,-23.34101476173793,-28.62345843964375,-31.66503049671127,-28.749116355581968,-27.68007652532911,-31.26088448510257,-33.22994808914017,-34.13093738483773,-35.8433742496515,-32.62476233591228,-25.95334878512957,-25.032439132739885,-28.116459799361465,-29.287758407168024,-32.50643572372418,-38.48645182804013,-40.279057807305534,-39.23065846827703,-38.88072621575569,-33.54426032925264,-24.40904321857007,-22.316998812136355,-26.73415232789184,-30.12473895034729,-33.21995124245419,-34.551215202638545,-28.73927143888057,-21.933569128588537,-21.568252590561904,-22.883575735013057,-24.30606128220476,-29.540179192402626,-32.55700137953453,-28.755474385803826,-25.78991400441705,-26.67755216512537,-27.305348945799963,-30.32094921099593,-36.20602433011714,-35.8790533262388,-28.751155313768713,-23.442986003300298,-19.62877285104792,-14.95828444871192,-14.743139812600013,-18.21378035999828,-18.73096652892933,-18.632087059511655,-20.780396530737207,-18.89584572794876,-13.12417147175158,-12.230862028035737,-16.013507998466345,-20.225389306704493,-26.965333501180297,-32.52615624827359,-28.730830807430237,-20.901708783350905,-17.955633853796293,-16.034395461221756,-12.646007411979873,-12.094683377443548,-10.700388903281379,-5.40030014716695,-4.283531561496581,-8.513911259971154,-10.06058770520654,-10.887034343975825,-15.344900039222395,-16.768738624188188,-13.51782826548682,-13.019018830078881,-13.527450868146262,-11.335202772750959,-13.192401421392184,-19.17373790935197,-19.67595076793929,-15.792374876470063,-13.849606558291256,-10.592533112657675,-5.4576802804794005,-4.82737216633767,-6.498483597635041,-5.745249830317293,-7.15166763378853,-10.528210425313752,-7.88023024121375,-1.4014285259375279,1.9409066008016065,4.362297851300667,6.063341465445449,2.7700566300144485,-0.35359010465800145,1.5847635873951855,1.2802522514791757,-2.941671445037871,-2.16916371106743,2.426784941257545,3.996036250373381,5.503182980734338,6.432608750465509,0.3939716666238131,-5.6595014813780695,-2.419509511106476,3.7562953326264745,8.227408207579497,14.746974208205291,18.133991209539975,13.8375599789101,11.36727400920494,14.66563519015255,16.755611796621448,17.928775289034782,19.466185208543774,14.232630738648794,3.904270545376882,-0.7139340597465846,-0.4461842446164336,-0.6811676108949904,2.4998183188962457,8.282740664997013,9.226475982295756,8.542866152739851,11.049650304086825,10.057772268666136,4.600207456039504,3.9491981280860213,7.543557479429923,10.121585822073433,15.805903275466294,22.988842180090877,22.43194004984145,18.946876364203188,22.05602156483729,26.770641470023982,30.20907916472663,40.04206624411759,55.592388557327546,72.89028240419528,99.60268842667477,137.9420258845647,177.00534797692188,212.97649054295104,244.92527125936027,260.98591361815625,255.90426954241636,237.73726618229944,210.04271697248612,175.73844708732642,145.78966848034406,122.52116868053514,97.09601724936873,68.320796500654,37.94896402817117,1.2092930754377278,-37.41265062578252,-64.99080273385319,-82.75729502139033,-99.96162442263281,-116.61775218973835,-133.45277824541958,-154.85255197788086,-173.73387884468812,-181.80532787425318,-186.33823232205043,-193.1131936483985,-196.47137197608728,-196.50224673593618,-196.44378540710838,-191.92972657166325,-185.47214215070073,-186.08420992925278,-188.21847486997314,-181.68502419962363,-169.7328974386486,-155.6292501900196,-138.46403728456,-126.92513038925243,-126.27088214729696,-125.18249147783169,-117.67820727968702,-109.97544106010773,-100.65733733110244,-87.14996750615344,-78.23568147978536,-74.84815960244326,-66.57921964658577,-54.55449143753242,-44.97173762593585,-33.490174461432105,-20.960160769213875,-16.149106241183826,-14.703945280826906,-7.906821504489587,-1.1150099679060093,2.0863992323490366,7.686122967426639,13.783821883065416,16.204465873701388,21.324365789641714,30.423469324516503,35.613339806981486,38.99654583116725,47.283126752773185,55.64261862496447,59.98992721650506,64.04663661077552,65.1266923040817,60.24525695123004,57.88938997431228,61.46784992310281,63.46693611955804,63.64013755804625,65.25214349908319,63.11159180522483,57.936062197276414,59.372862167059964,66.08573046653912,70.28668523822793,73.41052032496012,75.66338515624714,71.72973127078167,66.21451108595971,67.27953003943732,70.42409394109998,70.77246756988434,72.06207732925142,72.18009669037562,66.8471059446876,63.09975879790457,65.23662753853718,66.36080776703118,64.89718164957145,64.47929361817148,62.1613201072351,57.825356310204306,58.224691705759625,61.28094429281664,59.5878821098906,56.55816019629047,57.814239505937394,60.702935920250766,64.31203307636544,69.63610379199972,70.19545557492981,63.25197629574188,57.23314557068812,55.00928164042372,52.453052260733415,51.587616890185714,53.11047302064747,51.26829118709109,46.64041041167522,43.49494172351885,38.79908646982682,32.19804809249776,31.029087994410574,34.60113173077221,35.26257448496956,33.02973581892316,29.130099020734406,20.65844898727508,12.036427998740095,9.980743896861693,10.311882543799571,8.807312068581707,9.625663009309731,12.268911280503964,12.110046047645172,11.982740257878307,13.183069332910662,10.475610678893684,6.501020534246267,7.730296216461237,9.825042062810379,8.305033662378218,7.269774350519586,6.417435826947085,2.2045556543055067,-1.2551663699280275,-2.9718383561185764,-9.244601830554675,-17.42073640645394,-19.60631238994585,-17.59405421803543,-14.83859303807839,-9.634713334196041,-5.120057132923934,-5.927144587564266,-7.873952746015307,-8.443494405897589,-12.05754867300285,-16.234561254588485,-15.360549286771391,-13.843251876752175,-15.481246581905268,-16.090191405438535,-15.923334885795644,-17.738326057184395,-17.03940288853587,-13.193948145911545,-13.495226192119839,-17.26344637816502,-18.927088588820332,-21.52944076242389,-26.647992195711396,-28.68967589479537,-28.917773377529496,-31.970394753023882,-33.527397201971205,-31.78693846644409,-33.23090237541508,-36.41529727798292,-34.57863564719344,-31.020319737634818,-29.685616092271854,-27.030600981169034,-25.07333753241248,-28.444084523276384,-30.83089587341578,-27.0154696075818,-23.101093059262876,-21.922394595843976,-20.447213548477897,-21.0081896771003,-24.250657905603248,-23.900889427609975,-20.770949158173238,-21.2461986122911,-22.95329370201075,-23.308786355460796,-27.519939754949192,-34.355700791506116,-36.94977264632591,-36.74411695399886,-35.26453121064593,-28.593492589269985,-20.945172830521788,-19.845241965222755,-21.52674513271827,-21.74588793312442,-24.508649498574034,-28.97032756865828,-30.073442875568393,-30.082467844068372,-29.951359750424118,-24.749829993134146,-17.949177173322504,-18.263313148810074,-23.64280642264141,-27.69834939424033,-29.795197962422204,-27.375005234982403,-18.278131268635526,-10.869941508131596,-11.29060173130105,-13.644795448346265,-14.587555001205438,-16.242606093142676,-16.08436507939857,-13.496718718706205,-13.896073914681267,-16.384418861370406,-16.091312652029302,-16.684343952191643,-21.34637429741972,-24.00616546755952,-22.4835815656952,-20.895230462736265,-17.77633827304478,-12.575792714825635,-11.915038616496505,-15.097502294793614,-14.976430036782272,-13.450357663748306,-13.11483690094072,-8.650872565154051,-1.2503841523008605,2.0041872543997862.3232340746288056,1.1977003204240342,-5.051939500958136,-11.88266760256588,-11.877589331287965,-9.735292611214412,-10.50306498334065,-9.460482925866334,-6.154958530617593,-5.119397175081737,-3.6664167664186933,-0.8587417304747238,-3.0159870507084285,-7.8200492853648855,-6.654610842697227,-1.4951138702041602,2.3289140339689807,6.015326736533188,7.335281628882807,2.592769990615288,-1.4542311343937682,1.2479888934417502,5.509152500808413,9.383512512000676,18.48329930332346,31.678314264099754,44.760174951511615,61.92693207984887,86.24063461194763,116.28128090756407,156.82925277819334,206.60471619721886,246.16009311681947,259.2937999528482,246.61444936294433,215.41260738865347,178.11600799498584,148.59516295435432,125.76850400244425,98.37766081595058,64.78649757737116,29.624536190717865,-5.184531498960346,-33.23611606762411,-48.657189680610834,-59.97839198363815,-77.4209519328607,-98.68269076443941,-120.89971276800703,-143.33793538487149,-159.31607566928892,-167.68443298283512,-176.53461747547806,-185.28931619138132,-186.18465450694475,-180.65927340823794,-173.95345798432976,-166.60494847859025,-162.12835480231504,-163.9150191486916,-165.22402258570128,-159.65517486057746,-150.02327488814421,-137.35057021324647,-120.5384994781364,-106.78832302475706,-101.22232922312503,-97.77349044818287,-93.4864050293689,-90.454543561913,-85.0006540118425,-76.27461657417717,-70.7929107475259,-67.05041321063547,-57.80320408564614,-45.72595239029682,-35.46084903474948,-25.116236878675725,-17.807721067413635,-17.735135809483875,-16.66774053169852,-7.353244687254328,4.649417615069929,15.062263984144764,24.17549587190703,27.133154997451665,23.76546049698138,24.66219117128252,32.189529706673,38.09704547905475,41.053044694647156,42.23920024457973,37.9214524338946,32.9439441980576,37.72884789867437,49.24317094933665,58.58366355210319,64.95065503732151,66.75341804980721,61.415531006320045,56.69879865695905,58.97161925076048,61.89478444883316,62.12967784543822,63.82378692291794,65.56167425576707,65.8748019711746,69.86077250269253,76.2465732950374,77.66158427085693,75.16430964911204,72.57493379762343,67.66220617063497,62.511681214331176,62.89385640452887,64.93652881580692,62.94167773155227,60.19862658578428,58.2928138699973,55.22829853544394,55.674541987012944,62.438262728427524,68.6714151745446,71.11293240207873,72.39809634751902,69.76517603185249,62.12596236861813,57.68329015189262,59.5416779024848,62.64927583059199,66.69359493893523,70.46563087129238,66.46828264353613,55.81464339671936,47.46480528811951,42.905623680740234,41.042742880225944,44.59723276343699,49.39360622249068,46.97776701569661,40.12218145651663,35.89932894274848,33.51231076648142,33.24430961533185,37.484582160910726,40.38299795147448,37.45847994704502,34.5519051466219,33.76775348758473,30.774570008013427,28.28175112986961,30.427473680363274,32.63842490218466,32.05848726660092,30.928479596718766,26.606267302320692,18.463007863430025,14.473127430847997,15.644930050135839,14.301817969661458,10.438055632391784,7.417299630048229,3.0948702515041067,-0.3222144490800124,2.0138929558715035,5.164057758114993,4.255749112152281,3.896739323885003,4.574624826184455,1.7926875897417676,-0.35717030176844,2.217681233815993,3.6640357414289464,1.7167935625866928,0.3985933215721524,-2.525750767549186,-8.302928973399235,-9.358324300179373,-5.415684895512576,-5.224395558619667,-8.93431740048082,-12.912539999827366,-19.356030145067155,-24.96979988596729,-22.780513046045147,-17.097509380849033,-14.475879337478174,-12.634016249706843,-12.017345971445407,-16.48303574881688,-20.80435650436839,-19.276872866730656,-16.435320692640488,-15.164358009153489,-13.3464154090383,-14.721101135966736,-21.515845523460197,-26.446165308784412,-27.298058076678572,-29.399261786838185,-30.92356481877769,-28.356387751687123,-25.732638457412985,-23.422419875507018,-18.59244163855893,-17.371596098088276,-24.019719556079203,-31.47301478068993,-36.16212019450442,-39.91328954740212,-38.10854928163684,-29.25103555620794,-22.5668271431436,-21.96267318158729,-23.932657881177164,-29.728726807236733,-37.56039073111678,-38.259105046269134,-32.58673782169835,-30.04394971186555,-30.177922961553676,-28.44307721662676,-27.889278785772056,-28.69153009524396,-27.4178885820116,-28.94543495488238,-36.03478079317681,-40.0811392158605,-38.35302323406357,-37.73494996760472,-38.32270134276306,-37.115494079503165,-37.45969909499857,-38.52519050576854,-34.983871654986984,-29.754597257201738,-26.337581669053563,-20.342941008090452,-12.9788700752213,-12.135462786622815,-16.800007475471485,-21.445435608435634,-26.30347632624785,-28.481627657451888,-22.76283945320246,-15.485108466787928,-14.598218950604652,-15.937659738079008,-16.39034966324625,-19.226854278819626,-21.66379628826594,-20.33205595346934,-20.815616273536925,-24.49555984914754,-24.2023926361827,-19.857940626576266,-15.939541838239869,-10.351234423572583,-4.380674904754347,-4.820308283250106,-9.187034405915151,-11.57541069943376,-14.694824873281796,-18.755136681550447,-18.968338327430946,-18.14607643878456,-19.089066810259446,-16.120484248640473,-9.30409134322926,-5.542971710671356,-3.7950446763143786,-1.8598909002011783,-4.819043493870511,-10.97155542270343,-12.088391075511282,-9.60640374352019,-8.067776472770692,-4.830891003307359,-1.1370470548025624,-2.4111475941264433,-4.289650515471229,-1.3576410566224355,1.0510238383038164,0.5725875520574666,1.846348692906009,3.554106863386313,3.80306164678644,7.457298356059968,13.039076849048813,12.930391142781716,9.48013255751433,8.267177288963694,6.500187265442252,4.173807508601138,5.6575169671724685,7.200007187435498,5.192000772923109,5.572310500163938,9.526677988822827,10.39285636443222,8.581790724608975,7.614620509621343,4.599564497398402,0.7514546495245291,2.4581921116022367,6.856702566673352,7.855386188475215,8.379666777553691,9.583986012172565,6.865323234727398,2.7047133304439375,1.3427830520044335,-0.6246622692514595,-2.537032413784756,1.4892606140440479,8.195048281434284,11.471955460532364,13.591264164302503,15.117073345268725,12.812437408529416,10.471296031830782,11.50997393134347,10.77554591066317,6.931564943908546,5.252000384887524,5.09591269362765,3.1789793156084425,2.139301607193996,1.8083793414028915,-1.9351845016585014,-4.690504062629569,-0.688910901438839,4.7682237308415925,7.553049672078089,10.921187358152341,13.296120083317641,12.731808668987878,14.81534484568604,20.452921310148874,25.708106119590514,35.190615583557914,53.13867935416444,72.90186152936685,92.43958584723632,119.87022674190075,157.55102425124696,200.29231206126573,240.1885838123227,262.2919565732641,256.64279373435147,236.3234647505795,221.6408555047777,216.27194609446065,213.73011582570177,207.29947987258862,189.27380208741468,160.3485579741784,131.52987284932664,106.59445515991625,81.21543384655749,57.118727902292584,36.690024790849954,14.63516633026314,-11.339691096111288,-37.83745874119448,-66.26506184910532,-97.80466922477018,-126.53312543964822,-150.30261910746736,-171.79190776257568,-187.15705227941237,-193.38777662824592,-197.4276945984833,-202.9779776177021,-205.8798440749383,-206.97616911666117,-209.13735575947393,-208.75005712159458,-206.72924593565006,-209.6508830308591,-213.6000302463375,-210.77225624697516,-204.22958169717924,-197.2044434070131,-187.58554660613572,-179.80350576829883,-177.66234209516566,-172.73290891601414,-160.66231235389515,-149.3075234170362,-141.26518258648753,-133.8742529843292,-130.1653372442094,-127.91081341551615,-118.34621432559997,-104.65991109740942,-96.26398396026,-93.05795003458722,-94.1165631301191,-100.66222513864602-104.14307147946766,-95.43145111382545,-78.92870321054728,-61.161977565493494,-43.68623122541282,-31.58656502962274,-27.386568598068756,-23.433847078885037,-15.932504974883063,-10.213424065090965,-6.625453377752564,-1.3805466162856967,4.435202396302314,11.542691467934375,22.979506132965632,33.43284566720748,36.08541974209142,34.21963143850654,32.43500998098997,31.115425272025398,33.93209689519912,42.79462261070346,51.72002898605063,58.21337868559552,65.20606787418198,69.59027667138545,68.0970443951151,66.562297329965,68.63345778862991,71.23043917624591,75.55484950860732,82.56655158841335,84.77212175032103,80.09667360029039,76.58196310996807,75.75515920858132,74.61331637798536,77.18118719857178,83.37194630918563,85.69609977482243,85.21082407108875,86.84030226804134,87.45585437151072,87.13689976385076,91.04773671686186,94.6604719205925,91.92560751488296,88.6730927945172,89.63128089807938,92.03929134771657,96.7356918875466,103.0801482616462,102.22226353824298,92.42290436336428,82.94652018490893,77.54711716737978,74.69646185508788,76.98830629724164,83.099735537264,85.38450174813576,83.46681851815956,81.4899080850203,76.70010648376082,68.52709470877073,63.57947237081042,62.97875021946301,63.90398358533758,68.59495745372993,75.0306250076363,74.70746975497792,68.19206834680132,62.029645872489894,55.57072901510363,48.97994890842935,47.02758943905687,47.68067398507199,46.92734453037023,48.10702058884156,51.00458015474885,48.42074627415806,41.104403017660424,35.71343409491952,31.730737241914238,29.06192087273471,32.044609167444264,35.934384426503726,33.36517769337976,28.958112079874844,26.847037409194087,23.268331177130666,19.88112025115217,20.50048390687835,20.747710590714853,18.21013119823627,16.55110219850079,13.726956584393825,6.383603255786183,0.822151885651872,2.0630110746850487,5.722192798373423,8.894622501062937,11.116304721803596,8.547102379117268,2.477034931124864,-0.020371241662157008,0.020452916593372894,-3.020002078263331,-7.097811403513116,-9.870248451007187,-14.041876333568997,-17.617197936999155,-17.471412756659333,-18.18971236071071,-21.014858623720347,-20.577829965151352,-19.43877076087692,-22.727828530000497,-25.491379515529974,-24.737131358610384,-24.46784994694613,-22.583627179574123,-17.132120616360716,-15.613473803964315,-19.432120316554304,-20.56188872748568,-19.22665006496179,-20.09586431930159,-19.636487380535293,-17.582801287588673,-20.994443059168002,-28.28026803714106,-33.813613357509006,-40.834279126719466,-48.89339744247459,-49.330095792867894,-43.58863504765487,-40.432426509221116,-38.96610547023215,-36.82910598184508,-37.527095010989235,-37.47813854529471,-31.02997021073191,-24.622615103742056,-23.591640135027,-23.458590729429716,-24.346833507951004,-29.21140136912699,-32.70269957009313,-31.887068941406337,-31.74122063038775,-32.02121918443585,-29.766603285945806,-29.603711255124537,-33.71138326744764,-36.88620787968105,-39.0119001459379,-42.4347063163092,-42.66428317736802,-38.82033963561106,-37.22609160958195,-37.72728894006579,-36.52700840487531,-36.479739380398,-38.366503415687546,-37.883721162344116,-37.27199999570674,-40.225084782156884,-41.43705745407079,-37.950164865773225,-34.98323083918272,-33.07474873479974,-29.736313584897346,-29.471936936705042,-33.364530458673336,-33.66006369912003,-29.742664689007775,-27.0811215630196,-23.327963487262775,-17.726783460818655,-16.805689907052162,-19.37392111726037,-20.026464890525677,-22.389859518539957,-27.723416275745343,-28.38618741676981,-23.7185988316577,-19.53534596302303,-15.265664285676642,-11.560654792686883,-13.49864451213297,-16.677091912778145,-12.369794371577191,-1.374858966754657,13.173431154731867,31.412417316816104,51.84048024556968,76.62167458793138,114.12624642417097,163.49917976273466,207.5580123270536,229.4428344180081,225.7804206493966,204.23632882990702,181.16073891788452,170.4148137258249,164.32707858157733,145.2664256785822,112.63947402544014,76.05059771227191,39.99072497400137,8.695682885603985,-17.92956465959378,-49.05269233854821,-85.12994120293226,-115.2489190195842,-138.11987716545562,-159.69569628717164,-177.07963497031318,-186.92928814326763,-193.0174853695565,-194.67345649600114,-190.2568821866383,-188.26857315688756,-193.6229070658384,-199.20767384067148,-201.50396837636515,-201.42206556527617,-194.32176746042316,-180.6692510990073,-169.98390712547805,-163.85346145590324,-157.0459322586423,-150.72119406951984,-145.24808433768516,-135.682173823035,-123.48610780084323,-113.19062511221132,-102.41366077580155,-91.8336426474805,-88.0762501154071,-88.80161907285779,-86.45489429544823,-82.50794054376543,-79.26004722753012,-72.88320558046185,-64.54403901314062,-57.89256809960847,-49.272058219673035,-38.434106235388825,-32.1510254677079,-28.80159356830074,-22.343497945368796,-15.999639988305624,-12.252974358791993,-6.172198159775959,2.424580595234458,10.14140966558314,18.790245844389837,26.989109137200014,28.733889896336112,27.899822491085782,32.5714894910599,39.72432111959252,44.80115153736171,49.562340009405176,51.72227818770117,48.925816791522564,47.79593370816278,51.74724848983735,56.08129529310834,60.617154413596616,66.7624108048364,69.14316834861386,66.6807000651797,66.39458900447329,69.52500181949989,72.81188686536603,78.7227198760493,87.27815732160286,91.98462896647735,92.80087458154145,93.27717221678563,89.32572924921172,80.91378804137966,77.8418981612677,81.85295206845034,86.91220053721368,93.41422189643602,99.7277211666838,99.19420500670003,95.73657966934647,96.34492021264715,95.6216963746191,89.57602428023809,84.60602557371853,83.0973043650275,83.56021663442597,89.12084720858888,96.31538257572373,94.47202929098782,85.16278239943139,78.44677858586701,75.04668948350489,72.51377978077166,73.36334377552055,75.34178898060203,73.96037326523023,73.66430925628038,76.61943058853747,75.57548221593824,69.70386821839818,65.06523025457955,61.83090134725475,60.01536150816645,63.020568999086265,66.89357158717173,65.49483675189916,62.086609026803,59.2873868706627,53.92795852178559,48.96308475228956,48.374101501958634,46.8821097776173,42.18683290645616,39.36981032894222,36.946776745714374,30.607942608542494,25.481597117035385,25.711460540659544,26.543570498348714,26.9111927326259,28.6115281492152,25.59880229765875,15.547017294010463,7.09192209672104,3.566073806106457,1.4499633657387165,1.7355408508272325,3.5277624004937933,1.684500617659125,-1.6619170118097988,-1.8657059146518113,-1.905391176909712,-3.034965133195433,-0.5202886081467206,3.725451968285812,3.1859572608852504,-0.7762037179018033,-5.979172517658737,-14.589480598750805,-21.121926157975416,-18.106421523301275,-11.139000510140761,-7.004383803113961,-3.3334738703613898,-1.7045047918729619,-6.536165024721707,-12.763086310448482,-15.905268511907428,-19.116818540940322,-20.58188976841995,-16.76880962773057,-14.250014703991143,-17.815985161187427,-22.15590538177689,-25.17160662306618,-28.64557354864648,-28.636229888751107,-24.234205039060637,-22.628609509340652,-24.352105239459817,-23.721931119187804,-23.45309891100245,-27.261256874477745,-30.41270349413425,-31.577012434140354,-33.63581840725153,-32.69017884377766,-27.06760109309616,-24.176184685474478,-26.130222633482656,-28.365280685295055,-31.05831278522191,-33.792933375252446,-31.818734675089317,-26.98892005247818,-24.95085188600129,-24.307233163180435,-23.969619028506806,-27.72329988268825,-33.17860813638185,-34.66354667147027,-34.85351303255341,-36.67933169897643,-36.29411937931273,-33.96479904657684,-33.443635645947865,-31.54875863763106,-26.712345008351335,-25.365722758015597-28.094833173845853,-29.41308372206718,-30.670938423972334,-32.95938485802563,-30.682829728978582,-24.69085117282886,-21.45052948660904,-20.221766531005755,-19.683077588873157,-23.243870912091126,-27.93844676601192,-27.862445831730472,-26.24340746814125,-26.237801163763912,-23.814157315275768,-20.11553090496371,-20.147057809356802,-20.749822923685173,-18.69174496339337,-17.29365497370497,-15.597958866258509,-10.890962961718618,-9.043384622019556,-13.521192549464116,-17.651191686126737,-17.945705561276448,-16.625339799560635,-12.856090663393463,-8.419173189518958,-10.332829195264678,-17.503084486820498,-22.122763118733292,-24.148910916329136,-25.57606769316659,-23.002102830399675,-19.096853621976955,-20.06148960414275,-22.353396116980775,-22.220874753360114,-23.10439211329576,-23.331572405260538,-18.44893942501794,-13.590667417808131,-14.045133030084687,-16.04945188616376,-17.728401346504626,-20.145554895763425,-18.415186868919868,-10.95244994661512,-5.7755995897632655,-5.632864673062816,-6.121207750723418,-8.217342446723993,-11.680477655351776,-9.765843435447426,-3.866663980673692,-1.2104507816965195,-0.06869645370782398,1.4056748750717647,-1.502380307619772,-6.115912127142515,-5.624452966931939,-3.6801937039283783,-4.225132114591635,-2.763248933293345,0.2415391639437745,0.05683884354401603,0.79558916535575,5.722799461285436,8.30608514109555,7.099428283417355,6.57333292332113,3.840416722495728,-2.4783506512370512,-5.548251169686073,-4.8232571175946894,-5.4234355618157,-5.1229550791794844,-1.5366746443947326,0.3793583662165331,-0.37589555068110336,0.0657615804948144,-0.5232841143529297,-3.957619224346683,-4.639140496264302,-2.0334609607714285,-1.7432346125735738,-2.3199201388337274,-0.7249164175618271,-0.10492213940233927,0.3804635389103461,4.8257346629502305,9.02003743304989,8.220379981930254,6.528785215916304,6.328366337967824,5.820382235025697,8.617376346038427,16.42704573683928,23.035868339402143,28.33979770954648,38.83008406105509,54.71712596647474,76.06803041911621,107.28100803489133,144.04665563716995,176.37510847929076,202.52827396616476,222.00779853227175,230.14070501073982,229.87634209976048,228.03210767241032,222.80073996047565,213.18345231382338,204.6448019436287,195.0337749383839,176.47160262792175,150.36188915498667,121.24485044027813,88.2846893292064,54.820499178312716,25.981450479829977,-3.171102033030407,-36.56093634380786,-67.82531044516239,-94.64795892633983,-121.37149827536253,-147.10701675434532,-169.62769978278425,-190.44202606739935,-206.2917553899779,-212.4522199277098,-214.0672583492726,-217.1305864721673,-218.84242936972075,-218.15942965532375,-217.61199704230717,-214.3151138107,-207.68467529481867,-203.20820281846096,-199.12768686822443,-190.68981703632784,-182.75834041470895,-178.70399703626452,-173.54735525564115,-167.4930473728634,-164.76911392899018,-163.00228280435607,-161.57553306068638,-164.53617772773697,-166.6839321951569,-158.62651211828626,-143.14850918334957,-127.33294272336647,-112.04671151592238,-100.2422366339601,-95.0261429458254,-88.98925319637729,-76.12365714860182,-63.0269247363794,-53.40377726997404,-42.79616223412702,-31.987951178385984,-22.54676473068079,-10.160304076800664,2.5508329196987596,7.6460091124454745,8.902023510614928,14.234631851851953,21.336488874167475,27.53656922024957,33.84646839345349,36.24024016228079,34.327017317190105,36.97138418716219,45.8581282729146,53.29629410294032,57.84526073027783,61.81883090198549,63.407267583398074,65.50849268169732,73.17756171211924,80.9214153056154,84.02782898416629,88.55739571451606,96.35934760424729,102.87140537612024,109.1477478343662,115.12150646640521,114.74175246914356,109.44780850308481,106.24101741236784,103.97696982438461,100.44712166815805,99.90305016247665,101.76557939967049,100.62747917187903,98.5511580934422,98.42556199940651,96.26056136526579,92.57598509689214,91.86623036965337,91.31755618579304,89.10449664591559,90.23941411995304,93.92784836151412,94.93438483036171,95.43983818131181,97.4897791416289,96.43162427735606,92.71455234939107,91.0795622043538,88.43203791905383,82.30327424011705,78.45792178079151,77.68411011941383,75.95007853675341,76.2798458500045,79.36220067891549,77.24122424307352,69.1452148832764,61.53527789495132,54.63754487423438,49.56563421131905,52.65818382758558,61.12442405165898,66.20059263405278,67.9971767197459,67.83324192376449,62.35624331575929,55.01245075947896,51.16488498807158,46.89036348979013,40.40919526446313,37.980235002426895,39.8751673776866,40.227702043037354,39.03501664008333,37.27658060500032,31.934440476147238,26.57419905547758,27.565963668364734,29.29571335884819,24.544563674410327,18.0183003951727,13.509600135045659,8.743844347145274,7.022650220628167,10.562539779017111,12.236739763331917,10.121385158128067,9.796395681018423,9.496199644743397,6.170956500462429,4.8389910704257515,5.641889793126017,2.660669619484397,-1.801051271127992,-3.2195276359316893,-3.87669824281575,-3.406816341177824,0.23097560554477203,0.8432138043078642,-5.404433983607905,-12.062255753376023,-16.789566852207674,-22.68066579483694,-26.305403741482333,-25.51677519744729,-25.18741233594853,-24.302925639935864,-19.322310085313582,-16.93953526334899,-21.867974448140362,-27.121951478717484,-29.2959441056238,-31.281575421551885,-30.652075670649587,-27.443649528411832,-29.346180720109082,-35.7529021112191,-38.190213706031734,-36.5829655296337,-34.791907197365916,-31.69895378935076,-29.050178142597964,-30.860331744000156,-33.37681515234395,-32.68606763746887,-33.33841268130365,-36.925037240615424,-39.38965359152508,-42.23197773937367,-46.614323763123636,-46.76484413051576,-42.731331240232336,-40.81895818254996,-40.591105507695296,-40.43213921247485,-44.06233350851141,-49.04095558162508,-48.28994102526886,-44.60405381598308,-43.722304700123516,-43.581958184019,-43.57115276211651,-45.94268078069932,-46.68510678137005,-43.115291829448154,-40.54821388726852,-40.502201640362635,-38.786978722652925,-36.69245872740145,-36.80487986468794,-35.85012067324273,-34.07490505446341,-35.760304214805245,-37.93636833820929,-37.048600314273806,-37.12676291797219,-38.574340248898324,-37.30671978828733,-35.60778800078142,-35.73365522343453,-34.065502090791455,-31.401070855368886,-32.00431778948476,-33.164360335047036,-32.07920537463946,-32.701704458443224,-35.201026236445045,-35.688728644053484,-36.23984953041989,-37.702489599789295,-34.69403625536658,-28.723785386149682,-26.663334522937856,-26.586736588121777,-24.883381296787036,-25.15595084328777,-27.159386298353677,-26.535145692857387,-26.5536528339173,-29.506086124993928,-28.76875573355714,-23.338441342048675,-19.042569219839596,-15.165335461384846,-10.926581644794979,-11.762309290991865,-16.454116513150943,-18.325135027833845,-18.754516968270387,-19.95168641334203,-17.819958299508265,-14.141156443091955,-14.861862453674572,-16.42069487215614,-14.330369831535346,-12.696085953974704,-12.19790873197542,-9.055979919387937,-6.99887609743202,-8.85087663871926,-8.088455587044143,-3.2779736349823927,-0.2781053818256892,0.9178246901415384,1.2253865092920273,-2.819288102834073,-7.653550093271069,-6.334026593766808,-2.601885324428683,-1.6349276138301556,-0.7214219935730395,-0.5101088739749875,-4.365638745630916,-7.5248825006340585,-6.272619597019757,-5.3857968909952225,-5.294406688775597,-2.5893306797310744,-2.0434877891052126,-5.872417430636489,-5.694768060099365,0.3721187628842455,5.50919633565992,9.03896866327177,11.17688730151974,7.82948429605438,3.3427651691790388,5.614817348204959,10.458927376138593,12.072392890130446,13.753065201123542,15.149048356944814,11.883326200681232,8.24695867351459,8.169593777184188,6.8801046184491563.9119234575827875,3.732185268085426,4.017527080226197,2.614232874648697,4.567325999894741,9.644061160665705,11.798281488489396,12.956954194223055,17.0788858273036,20.941108445967433,25.092900026803495,35.27141316099408,49.88127326637572,65.21731094938528,85.13747188206585,112.65109894938607,145.98212488045587,185.421826073578,226.6718455302993,254.7307786080434,260.80973219281066,251.13360763823806,233.37114572078772,213.87721145804505,200.32510255346781,190.709291945176,175.7389915028619,153.92893166735124,126.58820677245077,91.29555651667482,53.22175701570072,21.820665342963196,-5.680401794685897,-36.430055353731014,-67.71329508118795,-96.31098888253395,-123.663286927679,-146.54859698012015,-163.75171174222675,-182.09161669820125,-200.51029509934196,-210.77891215171775,-215.667358574893,-221.42733090871704,-224.7734014135258,-223.47130578576696,-219.65506815704137,-211.09486559256396,-198.87225970053197,-191.7735732179324,-190.33411306426228,-186.56376046015438,-180.38335324740942,-174.47656925464898,-164.39064292954959,-150.48569002032227,-140.22502344357642,-133.37191310391722,-126.55813801272447,-122.88688558615507,-119.72912929362975,-108.62262001835249,-92.296334972305,-77.97480302868044,-64.74791288172125,-53.82714208484698,-49.519380886094424,-46.500992187317806,-38.77037623929345,-30.564803457590834,-23.129870344773728,-11.852476783108777,-0.27626543565114003,5.997505316320209,10.570115812345822,15.42232018671819,17.92213994037101,22.159896174248594,30.96683670446886,37.13502899017742,38.07674702110924,39.63212041767016,42.81004194904469,46.4250502812563,53.983015361498836,64.15277379929739,70.00501675403574,72.03348316130877,74.25777069088963,75.22100958593187,76.21253751577154,81.51166519024306,86.9082317169831,86.42942080240468,83.59367906275926,82.22152793842655,80.78566529087435,80.99564943345132,83.95911086682538,83.97043495866679,80.72040428897702,80.943826651661,83.49600080734183,83.88261250872866,85.17939203153888,88.73275866777307,91.3099402244938,94.64550203374455,99.28204896079777,98.58498423777232,92.36058724136961,88.80853452347775,88.9891722920476,88.583914332949,87.50247180221778,83.95398829668524,75.71682352489916,69.87287815709125,72.40400667343452,77.40807165572316,79.57482616558636,80.01916571821944,76.89445002877925,69.76902655761587,65.4246440772425,65.47602282333354,65.13311539630183,65.723284032584,68.4493306999401,66.85979946605313,60.02854199167186,54.372017240388836,49.96747273097867,45.508570385260775,45.87492753036688,49.82106278305719,49.94519864160352,47.35257000070993,45.5728985646393,41.80127411614094,38.06140371762055,40.02140380728784,43.213188208736796,41.62820423309643,38.50896725850041,35.09451527835618,28.44873989423146,22.741126602912352,21.63321190074577,19.49873433517205,15.497503881749301,15.338654747101437,15.777709982468583,11.768303227962864,7.800744476863826,5.606372981677795,1.9173327599385037,1.037598595888515,6.628500048902532,10.899706252260653,9.087366106847805,6.079156596118368,2.55707098315173,-2.9348799250532673,-4.873454285641924,-2.48395429608508,-3.181871449308784,-7.224132470217358,-10.74403959298351,-16.656263483746923,-24.898355632377573,-29.22744428713167,-30.28662491643105,-32.291813278016704,-32.95745538581713,-31.872398407537162,-33.35530962140745,-35.24008947921488,-33.51754588870763,-31.990879779264276,-32.6971807804016,-32.41771556249567,-33.12767682929173,-37.02197089783039,-38.46131542989376,-35.47460057285402,-33.246246868990745,-31.66151007754074,-28.851356330751596,-29.38525875554006,-32.937198096024744,-33.00482379933709,-31.9255234251316,-34.69476785993282,-37.31865792284682,-38.321453013045506,-41.484393547932044,-43.21988302041076,-39.97779958769857,-37.79292851538824,-38.91888845160041,-38.95056666357016,-39.18196651228418,-40.87295310100738,-38.62003365803775,-32.850098728250714,-30.07375768146447,-29.872046486818356,-30.3229989459923,-34.760307499867174,-40.8788961776973,-41.4929177036749,-38.236918688919836,-36.14336732858264,-33.45268221076006,-30.85289294912553,-33.01512148324411,-36.142629543080965,-35.11038805220274,-34.68159899471446,-37.35461037645896,-38.29257529040764,-37.82028794426012,-38.36890984553467,-35.714270396103714,-29.644538632411418,-26.90026480854852,-27.178448618537633,-26.97684862118492,-30.057118853472993,-36.39407395416025,-38.5369236663913,-35.724515534306775,-31.082087712696882,-22.977330169864143,-15.066360932391872,-15.31117774293454,-20.020864128610935,-21.39926455269951,-21.417405558441644,-21.629230031725648,-19.424733117943127,-18.246636577225964,-20.25004736698419,-19.112980683307015,-13.914323042427863,-11.050554901682718,-10.334936521361504,-8.82198428822368,-9.717017991335208,-13.618664944943879,-15.93694548787074,-17.314411052641486,-19.501677701294934,-17.969597350684232,-12.919112640284636,-11.35786610673609,-12.922299878067411,-12.980806693391523,-13.067616447878473,-12.890995994125461,-8.542666891719245,-4.260367302862774,-5.441159666852307,-7.115806371972754,-6.51882215163717
