-16.398480678007125,-94.58903429155076,-253.67226905397288,-441.09342862472755,-582.3336197454429,-623.8548022237887,-555.1086542269603,-441.1023913661238,-370.7101910167334,-361.27553169396015,-365.90705261390156,-349.49281458186874,-312.908807081271,-269.90020323858556,-234.36119368383163,-212.59956217093816,-194.7865800518463,-168.53105412906777,-137.21762066692594,-109.53542825555786,-84.6883574626256,-62.969945949760685,-51.11930805111428,-46.77493075103429,-37.281097459529505,-15.02206729713308,18.346702476680427,52.33796304789748,70.2534264446585,67.83944565788386,61.52305792066159,67.40206541976973,87.77484687949836,117.29364637455666,143.70596120532772,153.41152658857445,150.05212662810905,150.25941946186714,159.76692668152768,173.743733693514,188.8442228323068,199.82392065145484,200.7815497089773,195.199340766744,191.35591159627484,191.60939900381777,197.13695360174154,209.24874458440203,218.09264713234654,212.37723895740277,200.92250395493323,202.51300947751125,221.220223490815,246.23103285090633,262.0046278342296,254.83605045845957,229.72611937382965,212.3525530969735,217.70100735174947,236.41516608606452,252.92870753954148,253.11062320168458,229.8370404131444,198.50395573949407,183.8893457829367,190.3037983786155,207.1964876588848,224.42860404495644,227.49340183374034,210.61019785731366,190.4511664004007,180.0472112855117,175.41054744051377,176.01412835958428,183.04518611975374,187.4936988545141,184.02281497204902,176.9597801080353,168.0239685264587,158.52184619333352,155.3316243434067,157.11430161479754,151.60439642742205,138.23112804221486,128.0410642380058,122.64150934544489,118.96180834804194,118.26064818051607,117.32342256523872,112.7466816647541,110.43155629222554,113.77244822164897,115.95511754244312,113.20907671920725,107.47132582715874,98.41084672421897,91.88471971062637,98.28366861032016,114.2138005931262,132.10657958850808,154.94607676023753,184.65344108605873,219.8174773614684,259.21293073397544,294.76675786019234,322.62555358710597,356.316055917887,409.7209245118527,477.8994500178565,539.7862297306187,575.743559760874,584.1225597540251,572.947919127155,544.4243634986419,499.09039011479456,438.2723097280642,366.2713721096798,293.9138386703842,220.50114625561105,132.62600338862302,33.444924305793,-57.852093768757136,-130.5127937142491,-187.06820840266496,-239.00654502324556,-298.8033018592918,-362.9287429779356,-415.53692735100384,-453.0259749528908,-484.1619221232995,-512.4948794233109,-536.2190131286438,-553.7478474624629,-563.2039422732578,-567.1488516284405,-573.4757895642624,-583.0640724850189,-588.0849612460929,-586.5010977327977,-582.7062371142974,-577.3609640896219,-572.6756637917508,-575.3559199671442,-580.1247987343592,-572.5381442026846,-551.7540871298327,-525.1557981382432,-497.5373031430387,-477.08010485642245,-464.5881472771607,-448.19583196376607,-424.39692320961666,-400.70750639688805,-380.7824331814629,-366.0102939838605,-355.2753565245864,-338.8624508948932,-311.7959540485922,-283.0685159718384,-261.5922314139741,-248.3970077127844,-241.8792284710165,-235.8990772949766,-219.18887576988152,-190.73229755714968,-164.33787308056512,-148.53325309053034,-139.57784790154665,-133.83768403861043,-127.35129235058876,-113.36426397730037,-94.68431528892714,-80.40927305432089,-67.00956896336355,-47.71160281492402,-29.777805203423398,-19.58398742983219,-13.286410637773441,-8.84582341504723,-2.3773441000132505,14.651284215416394,36.68181234723135,45.00334549234455,34.81602666689463,19.52794828788643,13.876036598348621,29.151577980721452,65.41422355357919,100.71592474242242,111.35830190381274,98.65895148310842,80.45889975842704,71.1335594758483,77.87226007225061,97.10300221427116,112.91693823434794,116.97142197651529,118.94612022971572,125.60464541771765,132.67971623530525,137.41502803976482,136.31136718646786,124.36467492726487,109.2125303021439,105.95590558848035,117.76288517358432,137.87424075292662,156.753116337092,160.4176544397081,144.95760292387803,125.53754053330978,115.163275081152,114.94005160593773,124.09352557157877,137.67493562332504,146.41823779558015,148.21687226127406,144.51627983339603,132.6296273718402,117.28640493201439,112.94346793281038,122.80234552085045,134.55694598493557,138.77753899526184,133.54641385281428,120.92475557440147,111.3496072983067,113.48835568412836,118.48296528460853,114.89521498291546,107.66288488881352,105.22070837762763,106.64793516210392,108.99902617188661,109.81758499182644,105.6014863760808,98.8032789784192,96.49767089194604,98.74894934953258,100.27942314527958,100.74089809592641,101.59954705139319,100.66574586565241,96.89055182386855,89.74036897233334,78.77012794715074,70.90172840549685,71.26530454629508,71.80010385375697,67.22834218955846,64.49887455067659,65.801799287865,66.64599002113044,68.12355876042176,67.96468777727276,57.52627688347957,42.31421207534639,37.94422027467753,44.013818041609795,50.28516947023387,55.62395521994561,57.56482340308173,48.13914930326936,32.624082097209985,25.237818458026226,26.943810025306895,30.608828283734702,35.64054350607291,37.640703762995386,26.92670795898802,9.795375638368146,1.041937958110811,1.5801773790640263,9.018571517745942,23.1896367960994,32.17300122027667,25.5868091031505,11.302827991052006,-0.6370428894080313,-7.401901744572731,-4.835806761121693,5.859640051700357,13.475926012277926,13.3231472657515,9.635723844026714,1.7466940510305506,-10.970629619609669,-20.90358416013162,-23.588150934178763,-23.476815019501696,-23.48687636660086,-23.350711148983855,-25.312701707112623,-27.896088196558097,-25.7549450062246,-22.284276351919722,-24.740234439000876,-31.88424606976367,-39.33955094459921,-44.24898197052654,-43.097000610630445,-37.51799768712356,-33.75151056756917,-31.582662634360627,-28.246004299776963,-27.25581512479079,-31.339986846900022,-39.48660862666611,-51.218202148980055,-59.434928553147614,-52.16920436085903,-33.29083681634587,-22.118418856613584,-27.430224409216866,-40.74039247956753,-50.885238683944884,-48.854523061810106,-33.94768304105314,-23.564203620328207,-32.623796229692886,-50.89802467143279,-61.29167644830947,-59.40390774541849,-47.97544194147143,-33.90765113582549,-27.695424110203763,-32.387219142967695,-40.25165205282323,-45.48485966297548,-48.66985743981143,-50.15154812132275,-51.35865243664762,-53.75825036378231,-52.29474755308364,-45.183880437001754,-42.135541007096805,-46.34066376752701,-46.91933921751722,-37.72539249335185,-22.09488833557966,-7.637078268524581,-9.286173331595801,-32.16553237702704,-53.98264249136308,-53.7802576738175,-40.549022377915904,-31.590945912640734,-30.663156074584215,-37.575446681211396,-47.709317565590084,-47.42707847555104,-34.725088375439476,-22.92060892426315,-17.037242680324425,-16.342131765127732,-26.053200307434125,-40.921368731060866,-43.51554501282676,-29.51263801218045,-10.028107870932546,4.459412592001279,5.907123881926649,-8.67069158006189,-27.79089995120435,-35.78679553836405,-30.57243844207393,-17.158207438250095,0.5073483760052033,10.439560660180321,0.9083373121016365,-19.787231761941495,-33.78988292518772,-32.98234103353124,-17.573418334556745,3.789200381685786,12.732707438447825,1.0285153074773579,-17.670727288383034,-27.214458713627764,-22.31579741013296,-5.405252755519591,10.025994559980452,7.23676475047024,-10.930237830746643,-26.393790886356506,-28.934853463235115,-18.33400422094277,-1.1050777064801078,8.046005037531605,1.603763190427119,-9.809931508893499,-14.818603488328597,-13.99054714369141,-9.536103358171715,-2.2391781255247722,0.7447523704260648,-3.9841905926029573,-6.628557660967729,-1.840101268733703,5.05850589758926112.474216018560924,17.260734853042518,10.412127620323531,-5.4080973807763515,-17.764755366696463,-21.950615015944518,-18.24596601621153,-7.690487929782084,2.7074544114020638,7.45091824700971,9.116303330442648,8.712718673644664,3.832499798690801,-2.472041885106451,-3.575126958849574,2.8764272285168966,16.036664344144373,32.077769013888876,39.772025961471,32.21988690176174,19.739695824603146,13.820712528219623,11.632458279576689,7.444143053995591,1.1841026821279699,-6.761787613264541,-12.004418948198499,-6.512250538450351,6.02372702649149,14.793934135719137,19.187326139193267,22.043133620160855,22.636374741752014,23.785148257372498,26.289364783277936,24.110467083096285,18.170364935674062,16.190772948219067,16.943913879533174,17.581816708495563,23.231248924658065,31.193117416009237,30.796650081444454,24.438532377941783,21.272175320006543,18.794398820967984,14.240474858069678,13.499492334500896,14.963189445565472,13.197149568942466,14.535559481225205,21.39569502281757,22.196156442978214,13.377985647847963,5.1226827722237065,3.1321148747326033,7.4743907169412305,17.972115884208694,25.754164328882563,21.69220771985802,14.25191687640304,15.125312483995055,21.5821184332013,26.23379815941944,23.720310144433782,11.884502510695508,0.26266965663797537,1.1716228889303242,11.269319477675944,18.519933301247494,18.091760798763975,11.12727707700758,2.689334829820626,1.7025964433503298,7.626560583822423,8.440533359392878,1.922180205611626,-0.13707470036160696,8.926356907284774,25.62176870713986,42.87733119527411,48.24858343418975,32.57901126135161,7.4420631148607,-6.2418500663584435,-4.080528297242999,5.982990241780405,18.662522532987065,25.551406458491737,18.283587156048352,4.906781227589943,-1.6749088276590185,0.12762784404774608,11.053507027101135,29.765212842228305,42.15956640301528,38.8645768148082,28.931447885099715,22.943172621265916,24.393212451125812,35.00111309112508,49.390226322492076,59.760313166127226,69.44799071052081,87.84061536131149,120.63257309611981,167.76803943690683,223.2551469932035,275.70572318933495,318.27534990125304,365.1094689387813,440.5356758296483,549.8263110675654,676.0923613477271,790.4806055859565,863.731542358982,894.6186963598398,908.233964783639,909.1276446551442,872.4884023292216,779.5294792691693,633.3740093531028,460.21258256333067,300.24242716417257,171.46743286670863,53.97579413198288,-74.20466859703193,-208.55710190612305,-330.4893452298037,-424.6237690914724,-485.52579084919034,-524.739307499503,-562.3268266305374,-601.7606599401267,-629.6781250538056,-638.4751076414004,-629.7478639283479,-610.1676864851801,-596.3880783252256,-602.2305135319192,-621.0494217929042,-639.0259592494914,-650.1780031450024,-649.2369341279305,-634.8986651144713,-617.7391825193611,-605.6974552260463,-596.9503102466633,-592.1081961118414,-589.5168265963824,-577.4272308010719,-551.9493500104164,-523.4301529522561,-498.168300044533,-476.1688704913324,-459.13832790551714,-444.5691498443381,-426.0177328897644,-403.30906962103825,-379.77152939572073,-354.87538938678125,-329.36296283005555,-308.8099219117651,-293.0828992341527,-274.8468277685912,-253.7039285323399,-233.69810295366378,-214.11578504825331,-198.41109005405318,-190.5534354071033,-180.43753732575584,-158.25640162715922,-128.5179423670836,-95.12084960328626,-60.28032115388898,-35.988530286215926,-27.76745721259976,-25.47961214318068,-24.333599363356594,-23.932530465442333,-13.503962376018345,11.303398888124766,40.27948713615694,67.10915081166164,86.70346571995967,90.06015303839621,83.23330744608522,83.67307559398974,94.4372532101581,108.95180238570376,126.58093642240952,144.00484446147257,154.56715574876858,160.99483985477883,166.76290044652944,167.09009112490304,163.8490785093124,167.7733596370203,180.9866672638709,197.73354859886348,214.6215741264351,225.71530309567297,223.54119190574576,212.6174456168192,205.0982517690589,205.2006686775717,211.9021340433815,224.10632746816597,234.43919103998599,235.78827201392824,233.12785860670144,232.22806423363988,230.4386822590642,229.73799143289688,236.16255483649107,246.81578920118633,257.1995482436307,266.5355609846207,268.95607371483766,262.0901979434171,256.7807628207001,258.42631259120515,258.3380345536722,253.15035009166397,246.64271824122787,238.14251945788138,231.23395191722142,233.56856106559948,240.24482363631057,242.15199392131115,241.5813152911126,240.29252559917006,232.84125000047212,222.65726926117284,219.88755570469496,222.94497870512686,225.2294427807243,226.61864958243825,223.62530741778352,212.0244770481142,199.06085901305067,189.99563599235185,179.39362537616174,169.15484806476036,168.74920366833433,176.5301393823547,184.1671092078198,187.07724160024938,179.07642758979026,159.21139905150653,140.3059338870385,130.61608021309993,125.35401635249573,123.64388185479183,127.50196994319309,130.95740312588262,129.9895761660602,125.56585683363036,114.71924981600077,99.01248357590649,89.38922699933035,89.51506811530433,92.10233720353014,93.22525895810503,91.91095325703753,84.24240925864443,72.12512479935177,62.99729180226929,56.84574157349643,49.23875719864021,40.58348686268026,31.170012003185136,19.780244133728445,11.713875612144594,13.044021622012291,18.307488253546172,18.111286090895188,10.192406551186078,-4.12560721143665,-18.066230977498567,-19.35036230016037,-7.235745620432498,5.043161798857095,9.218714023967845,6.148648884006916,-1.873126128895392,-8.690805515481953,-9.095431182574835,-9.946069596692743,-17.939795382991665,-26.37993951665141,-29.871751151871276,-32.87662400087232,-37.13831114261689,-42.04475729609307,-52.22754222981456,-66.90184245701266,-76.1758892672836,-76.71164412373463,-71.69206678033979,-60.651692044830384,-49.07323663774453,-50.47171869145313,-66.00256747237879,-82.93061780393094,-91.71439862342092,-86.7154617730655,-67.5809796961593,-50.50080437665619,-53.70288218297412,-74.49552651845889,-96.76660959487013,-106.24836408725052,-97.07012207147605,-79.42416560516351,-73.33242794409097,-85.93328150974253,-104.82086753731616,-115.23117020828268,-112.71835666818912,-102.0635848688393,-92.78746946177468,-90.50994322935533,-90.9276266047354,-89.89343678492689,-92.34054236362931,-100.17972046130302,-105.72283043417615,-105.55023009139876,-102.98271306793922,-100.07356370264827,-101.79984330353182,-112.6880633832788,-123.40835486018882,-121.54450336015576,-110.58014682404185,-99.18987186436453,-88.34858432895236,-80.72858090168589,-80.55103508785047,-83.7061351431307,-85.83760265865517,-89.01960379424108,-90.97855863249453,-86.65532161275664,-80.60728670536498,-77.74687534043903,-73.70196830040369,-65.34796317297372,-50.58240154686991,-22.55877725877307,19.926559370924675,70.51885296671009,125.84813124263835,181.88274094107888,228.22031344322164,262.0256030786748,293.79330520712784,331.4161316076869,376.71206475241945,430.90800519702447,486.5649922126889,529.4933656550189,555.1943770139711,565.276052113478,553.4623196877637,513.6549563014153,448.33479522242953,362.11318579585213,267.1178220073674,183.10452419765275,115.83035026274048,53.9593608164792,-13.727777824817068,-91.87195943678147,-177.65552453107813,-258.3770055528728,-321.80463541365333,-370.87350611234336,-415.57856571501253,-458.0797637572972,-496.5405316538013,-528.7364065642523,-548.9293175908757,-557.8339730182672,-568.0075303325709,-585.8168017860987,-604.8221987285996,-620.2163674643461,-629.7228503788667,-628.2858028048545,-617.9392048761385,-607.6674710222483,-596.7783685140508,-579.8423530001141,-561.9627080277054,-547.5384339107551,-531.8887447495265,-514.2575151829951,-497.1637369210378-477.1476924654429,-452.6703450384276,-428.6827264070015,-406.682964091822,-385.299259077987,-368.5342225280501,-358.4551885875036,-347.95042998840114,-331.7249902557299,-310.7750294981431,-283.9022041844352,-253.20797508640754,-228.40101232902973,-210.9288272425613,-193.84810361640749,-177.4653726628507,-162.07718111561655,-141.2614390673853,-116.22643773278241,-94.25258699207976,-75.76572366224406,-60.90697466960248,-52.27443446790938,-41.87131364933691,-18.673905131874456,11.662404413465268,36.118107141174846,48.8907203601541,46.78047017088518,34.33143549589036,29.073994939406994,41.85061653030578,67.52824587886437,99.63446358213618,131.67631426642188,151.14194868895726,152.91767857728541,146.9900313281158,142.80165370190312,143.08514046542567,152.46042694386668,171.38776425570848,190.73168832623134,205.1951908206783,213.64413969474754,210.24756553936265,198.2418901257974,194.00581288085303,204.7297604261785,223.50805267893344,240.88312146325256,246.6080973633424,236.8214454051233,224.4778679068773,224.13286047920667,232.736431474308,242.29574052789866,252.3532217182147,258.6676685550633,256.9955227465112,256.03347077185384,261.2639168722917,265.54503308538824,266.8565496180733,265.6339107242108,254.79656681752024,238.24055273200128,232.77642818839396,242.0493958829815,256.0562841082085,266.3467961935694,265.6202051572549,253.23693340874252,242.75972195440514,244.7638962702017,251.830070167572,253.59249401514035,249.2553754105722,239.30091153791074,226.35066209400412,219.0802656869992,217.41387887858772,211.80846988941443,203.1621447958575,199.53699188763994,201.27538069711827,207.19332178825368,216.78947023625886,220.7203069302797,210.221121053928,191.03904816862237,172.46825148563104,157.64488558427618,151.61606287538117,156.6118361587918,163.49558667692475,165.23960484667515,162.59112448590332,153.80423450553482,139.56755884480896,128.98904543083074,125.38905153820868,121.42381610408391,116.05096881043102,115.2085556690351,116.51206434533688,115.66468357895022,114.04484028917088,107.34091934047174,92.05552011587064,80.14498884961972,81.40750274867338,88.33939232355786,92.13350360052074,89.27914055179745,75.58397623208673,56.65128126249162,48.31381964772597,53.871354225202644,62.65759268380873,67.75582096476711,64.6620904872896,50.48720481444992,35.64513703265222,32.19053865341463,35.33699389651138,36.3473371246484,33.702967038066085,24.333315144347857,8.896429380952377,-1.0276469584952408,0.8555620343554069,7.843688364448259,13.781236724529455,14.995390318751602,4.595410724147904,-17.0624638499017,-36.661043378407854,-44.09663801022151,-40.53074803795382,-29.322554971267,-17.233260125317358,-14.634771162993257,-20.70043817586708,-26.111909139328766,-29.479832232558124,-33.29048522366493,-36.89868829712652,-43.261472975447546,-54.77742084626863,-63.40986490446449,-62.69130447301688,-57.901080563720626,-52.022948617469794,-44.61039962949633,-43.997691514667174,-53.4923309995314,-62.37489949186837,-66.40190674385998,-69.57623747881931,-68.2570309932205,-60.395475362430965,-53.32326682153126,-46.99103666166451,-33.11911736225714,-9.427820878600414,25.629304230971986,78.39471055758739,146.38470006177042,218.91669630776286,297.21776461162784,391.5909395250295,510.6411647607958,666.0007696623373,856.8423249423467,1053.9389446670493,1223.6750478981733,1348.1518073182335,1416.164375879165,1421.2827150083685,1367.6067245744764,1262.8655160058936,1117.3697905869765,953.7402754430984,795.4214415371139,642.6132998176774,479.2498949894026,297.65391914858515,102.21794515674104,-94.01264848144584,-269.65630930380684,-410.26587026965404,-519.7790658446949,-607.9084674553144,-683.2110144985813,-759.8480183289404,-847.2533682033591,-938.5578250575692,-1023.1101109087039,-1092.7113516569157,-1137.214774873396,-1156.0146350868345,-1161.5958428159606,-1161.7138939480394,-1157.3601149981964,-1152.865958868854,-1149.3533287113141,-1142.006650730208,-1131.3162450162722,-1120.4042546426392,-1105.480559589656,-1084.1275464635569,-1062.4749283965325,-1045.6566114625195,-1034.2523782203484,-1028.1462561816895,-1021.7883463832076,-1005.3919845410514,-977.2685199586086,-942.1603015653599,-899.8819559572621,-851.1055229688519,-803.6228448859268,-762.1039197984937,-727.7099286852815,-704.0413223316091,-687.6990427419378,-666.5831446790647,-635.6776542822031,-599.2736150505895,-559.9542734708527,-521.8639088159198,-494.35340336494187,-477.88328401730985,-461.48171899513727,-438.0782572733641,-405.8773128861905,-363.9956402038921,-319.0743023136497,-279.725604787072,-244.440890757859,-210.85553900989373,-181.8536635107935,-154.42780591507426,-124.3641094644906,-96.47625518233035,-72.76786738106622,-47.68246776855641,-21.553896893360474,1.8941174534395122,24.727464269498565,45.900676752661525,60.158013364949845,72.51518716229356,92.91511522678677,118.81960700569795,143.06483932806884,167.0013718420406,191.15622985194466,211.97039704044542,230.7410057585035,247.2540964856596,256.97719431979857,265.85432675968457,284.7590647575562,309.31682492515125,329.51798205066166,344.79414289345965,355.1599921195796,363.27450724770546,381.0005067131769,410.04561598053135,436.79677286353296,454.6617948465145,465.61055584449025,467.7681394197688,462.48176370064095,458.6115108325056,461.0846283285878,469.3632212656439,483.9820243640466,503.0508601324678,518.3682169155937,524.302828530953,524.6745566662399,523.3125924556784,519.3215863340671,514.3346680711379,508.91907410160775,500.79342279702735,494.22840619054205,493.3464586658463,494.18178625212016,495.86191486148226,500.2751427157731,502.49636051912154,499.3752283500064,493.81755333230115,485.06754294975167,473.1289865575785,465.3578658084009,464.1571258833527,462.9078053197252,458.2085561756817,451.03403804314917,442.70877840025736,438.7194359569043,443.65791472291596,450.4914798597282,448.51326595702494,437.53700913027507,422.47579020330824,406.4632413192499,395.51224907019747,392.9084263460313,393.1526879393749,393.4185166859257,396.16424077705443,396.80369198521635,387.67786231087314,372.2441578317633,359.30323223323126,351.15240062106204,346.90823783530135,341.85702473170545,324.73887011339195,295.72911200763974,272.99475174441324,266.99804456124025,271.32640853587696,277.00432621893765,272.87787225504604,250.57778243393858,221.79642086229222,205.45423284419488,201.79703312811742,200.6841853000793,196.671858542775,184.1019962443728,162.5852575269791,145.66260105818023,141.5897854087882,140.44319404008297,132.70240372276524,118.73447544114258,101.82515784841225,90.80673342971645,93.73155744466405,100.98277107440406,94.95576055358332,72.5260712508621,44.41081441513984,23.02290253132106,16.169577725917467,20.03945574692241,19.183536370275462,5.0556286126185075,-13.900304093732737,-28.14571695022779,-37.03406400540828,-41.86934415540348,-46.022874797746056,-54.64512006629486,-64.61960711026204,-69.60304773505189,-72.69899198668129,-79.50713953547111,-89.61244757658392,-101.89340043157577,-115.39452433443458,-125.04271172106426,-127.77030038422029,-128.09443033065128,-130.23379395625307,-134.51901902968078,-142.78508323041177,-155.11382734410046,-166.36310760079397,-174.79894068188617,-183.28358812688887,-190.372276170953,-194.3608589527561,-198.72608641899845,-202.66597267884188,-201.96391577724984,-200.36927652172153,-201.38102977072913,-200.481046875579,-198.03937300960126,-199.9302022863647,-205.6612481229256,-213.4722692060535,-225.34944778993295,-237.8933762684517,-244.99472566566735,-248.9214847248942,-252.9665063448957,-253.22992923796954,-248.78072705487426,-244.66529615801917-242.30244424615913,-242.50441346091867,-249.51065811111357,-259.85253873517854,-264.08650428642744,-261.6097800181581,-255.22425583847908,-243.61978829665634,-232.52278516723675,-230.69835782787487,-233.69496761507907,-234.00629041591645,-232.87852451870765,-229.60179294500858,-222.56222007091907,-218.21207210223255,-218.86956829894729,-216.68025096386035,-207.86586817408158,-192.628042839915,-167.4997171365568,-134.1978560432165,-98.67980112264249,-57.50888705000557,-4.096910803099531,60.4153991860048,134.1998025537112,218.43085513930052,314.5504842590713,431.1594246206928,580.8595057578634,756.5552620438704,924.5895587618838,1047.7199627995717,1101.6121020176945,1078.0396819939826,994.485802986479,886.2278764657582,773.1460793732964,653.4965362981587,525.6694337774247,389.472699477614,241.76204534336307,89.46494592678032,-55.92097652136983,-199.17259495651675,-349.62986235521964,-499.0177670581476,-632.6260718654717,-741.7287479942698,-816.036841363023,-852.513176873706,-868.1415821502997,-882.0365141952939,-901.6049973819195,-931.5319552285872,-969.5866229371894,-1000.3902583335184,-1014.5180977247242,-1016.6871908801879,-1011.510562547689,-1003.9801626535532,-1001.290266302597,-999.8288982904568,-990.7481567393472,-976.0127684051147,-961.5661765963658,-949.250541113407,-940.9848654362424,-932.7773249257439,-912.3956180782043,-877.2278183747021,-840.3071211166267,-814.2374155393716,-801.8719629913771,-795.7136402587869,-778.8310026706765,-739.6790758281378,-687.2973006398882,-639.6066276665108,-603.0852890735199,-573.5182887326835,-544.3614814378448,-508.35851456152056,-464.36667841942267,-421.33677700494775,-384.8339092953304,-350.3255294024409,-316.0272005604042,-284.46408616506284,-252.19912571633566,-215.985910937687,-178.8702605555019,-140.6415350748099,-99.13677993542555,-58.86315226787905,-23.312411575514695,9.865480224884854,40.37053562855327,67.00986346405125,93.65646587998638,121.83572883407223,148.19825355982755,173.04342708164125,198.77231735691748,224.0353956378203,249.15025057900982,277.1105342981308,304.4027652149549,324.96603849264085,341.16028062551146,357.06948009512905,371.91146647228754,387.34506000800945,405.20742042538194,421.4130472281423,434.99146720344106,450.93906944272294,469.31271178605084,485.85289914907634,500.1788617011822,512.1143290391915,519.9035204134439,527.6180196044328,539.5373935107812,550.2549034969898,555.8837075970424,561.934567633343,570.0888834751961,576.4233753566707,581.0611830937955,582.2866501147871,575.5581522085829,567.0899229269776,566.5509323080692,569.7075977169721,569.5501678775202,568.155132686876,565.0623688458968,557.4003549040578,549.7656020396353,545.2140162463216,540.8935748843899,538.5897367885965,539.3575304278477,534.4099745636809,519.7680692086844,505.1279046347545,496.8013242881027,490.8213023132155,485.27445083439073,480.04879849087376,472.0605165519112,463.3511796056468,457.5516007640157,448.1890952768023,429.99723830260757,411.09749740727443,398.0118491101009,386.7239109587478,375.8095893546344,366.95750813872587,357.3279267051651,347.9581757734617,342.6264298843114,334.66419047865617,318.01315651260387,299.8974492729502,286.0056387016561,275.5620624131997,271.6672194221115,273.15806247348723,269.286701346008,255.31436769378774,235.84694900628818,214.67003503233227,197.4008654272161,192.258078102419,195.91452049227973,195.25592125773335,186.13324856482362,171.6654305757447,152.54687309301005,134.05204688207152,124.11442752424651,120.03257981916191,114.05033727126448,104.34136906836258,89.82342656320469,70.62226389667917,55.4668733076186,50.350891032600416,48.28217843398253,42.2034891861832,31.58544735453333,15.212475403950148,-3.058706057872092,-12.516585413116724,-12.572970584377009,-11.35304729925535,-11.046551679398238,-15.184838841073336,-31.10141254024679,-53.57708845967124,-70.3916316328106,-80.57490047853145,-86.82942728399952,-88.40448627753413,-91.94082190671293,-103.80652979140253,-114.97017527896568,-116.4399498398042,-113.49361836321589,-111.25970759072001,-111.12707411286851,-120.67856983678638,-140.69733979518628,-157.11480552404225,-163.02882629860403,-163.65950444908196,-159.11772941074898,-150.67996883705274,-149.1166354331005,-157.0835375764898,-166.800024870115,-176.1143957684514,-183.02519922916014,-180.9951230977138,-174.18630956671538,-172.52946047081457,-174.514653472811,-177.60045745384747,-186.39167267650168,-197.5016850829178,-201.99636436759522,-200.11570585917323,-193.09500256357222,-178.38031633387985,-161.90841312892104,-151.19725276998003,-139.53035636818836,-117.57434234261406,-86.32939073259233,-46.98655784333806,-0.8037374304263345,40.576058226161265,66.82196712707801,79.97970132787484,85.89509827996105,97.3294017940571,138.54618865585877,224.08215878682051,348.82813227707084,504.3000552473409,678.2099719290455,844.2159032766241,975.8440658551115,1057.139072003519,1074.0140441906135,1024.687431675708,933.7949478289671,824.9672283119601,699.6117414741607,559.1012793151303,409.4248957771664,247.52940425824715,79.26312901134676,-76.33513054109434,-216.69034822668306,-351.7001678603557,-481.11127548026246,-605.8882264983772,-732.6487981619277,-854.4223113815478,-957.9133627724253,-1042.6840185179117,-1110.1246955141235,-1155.0805725419896,-1180.0781975389432,-1192.306229150979,-1192.130183864148,-1185.7006572430917,-1188.258549719539,-1202.9232586636804,-1218.969346461381,-1227.965238161043,-1223.031863901404,-1200.1990586181862,-1170.7013357868734,-1148.9993295282497,-1133.0479303974914,-1114.9900741916435,-1094.519691223237,-1070.497229555484,-1040.409301773614,-1008.020598716827,-974.7577690537856,-936.9838445110107,-898.1830217484294,-864.2571177753834,-830.4147221914671,-789.9398715126226,-744.3122537126004,-694.056985541622,-638.889874483754,-586.9764770945972,-544.2224861411244,-506.8894860375476,-473.75197053970305,-443.2815876682065,-404.05889892547566,-351.198848411622,-295.2299207044285,-243.8583456431567,-199.48257323512297,-166.77731061810073,-141.2778595123707,-111.06629925322878,-76.06255510954716,-42.16971116790805,-7.709392022109136,26.30421876132652,53.75661190216128,76.81210534697742,101.00760428052652,126.77377454497069,159.4294233566507,205.73034216843126,255.8219898089945,293.1936795790575,316.0981776094503,330.78280874854784,341.3217677502564,355.77956985011963,379.50728703875313,404.2754029547925,423.80429978017565,443.0987931333877,462.777687107952,479.1669458488079,496.1819860887959,515.554833132343,529.8656070158949,538.2226588965202,547.3141386618661,557.1261077286601,566.2951442382218,576.2886648021492,582.4512920973661,582.1672731952763,584.0667456595135,592.939081166562,601.424764841817,604.3541624833103,603.7558640239815,600.229160034138,595.0808439667302,592.6508136462111,591.0515862794587,585.6810721286131,580.6329316167457,578.9511927927455,574.54382562812,566.1279998677934,558.9886641625852,552.6323031784333,546.5863275181897,544.962803081147,544.3180563203821,538.7740261993961,532.2361340878826,526.4442600339337,515.9480408186457,503.3979274749065,495.9336023600929,489.80725816015376,479.4638939861927,467.0062705016031,450.85582653458266,429.0295667837076,411.60320259422735,405.95661703537826,404.25357656655115,398.5777398965925,387.24590478996123,366.9681489972314,341.4261860581058,325.3603906167531,323.151191808242,324.38874657520546,322.66304368899216,315.7301177617232,300.49813787748235,281.94720661686114,267.7254971322375,255.00261295542848,239.53271259597733,224.6132237948287,212.15803398569483,201.85639357934244197.12123853295765,196.53339996954597,190.17968322615326,174.55678972673036,154.75998024441554,133.27947494673174,114.87617480116339,106.92633407057397,103.75888347337406,95.64109528244639,86.627775857563,79.12754882189121,66.27074015389375,50.74523437172281,39.302229861540226,27.475048997081522,14.09022352867856,6.781994041883146,2.8738139947474606,-5.685814468363286,-14.805212293041057,-22.073133320606146,-35.37295616975803,-52.37350389543643,-62.91485743887543,-69.54912401627423,-77.04597920757674,-81.07167603868665,-83.63943702412098,-90.75485309382455,-97.0566886454497,-99.33630467638115,-104.99690096077987,-113.99492438871711,-121.14405487694746,-131.85300668206685,-148.59137368679558,-160.57124587130232,-162.75849494117236,-159.1354666890173,-151.2043206360211,-146.75109791363644,-157.13363672253075,-175.9645078115122,-188.20257665983053,-191.3083583489687,-187.93876215904976,-179.76480390176397,-175.48099164185444,-181.80869670378104,-192.67177969216465,-201.5813228533911,-207.36539692036249,-205.6861222968662,-196.75257327206893,-192.60217074322674,-199.71871468690068,-210.60350845559046,-218.40420211385634,-221.11781537392403,-217.0685164134623,-212.06482313452122,-215.20878935924583,-221.13848877338765,-219.09336169543408,-212.22201918633638,-207.3488057101054,-204.93920585266787,-208.6677670762214,-220.12895677351207,-229.245369144816,-231.18492475405407,-232.9090481943594,-234.35512709850286,-231.16988502424633,-228.81335951404859,-229.74682188106402,-226.19033709062796,-218.12265395373447,-212.03918886971348,-204.68556926153119,-194.64182231577624,-190.24819740074796,-190.42024261945946,-187.8686840935738,-186.20704614101288,-186.87154436276154,-182.73780363578666,-177.20107804034618,-178.7908539936527,-182.41386103906723,-182.26295810927468,-182.06891798148644,-180.3180561081246,-174.35358788914502,-172.5145954677065,-177.77766459375437,-180.05403672821268,-175.55524388745192,-168.7401537443951,-158.15445586957202,-143.80685712177905,-134.96759252903666,-133.74615021856394,-132.8692731355929,-131.72225447642927,-130.28293049742157,-123.28644473112212,-114.8071733826033,-112.82536255791189,-112.40906817086247,-107.11466960448294,-100.03271615612327,-94.08282254602048,-92.34877707626109,-98.92600192686334,-105.43337995301464,-97.72463218110707,-78.54731842678241,-62.7476711537814,-57.29965251090165,-61.73607650370454,-72.44608142333728,-78.41521334003349,-73.03724065556803,-64.39409863084732,-56.79823573621842,-44.4213633554906,-30.69798188150913,-24.078649977756815,-21.849069457889428,-21.87906723908617,-28.535099489554746,-36.67345082104455,-37.0492536053824,-32.39609345448225,-25.907270161558966,-15.24159084423292,-7.484318348068292,-10.047338386343979,-14.03814414051952,-11.074163993809027,-5.940058847988459,-1.3092176685781571,5.148099805886867,10.245069514228714,11.966897871114224,13.661161231610462,13.554242149724008,10.335497151500132,12.749380269537465,24.417124795789316,36.1617646413655,43.54325348703911,49.58532301940669,52.6753479352832,54.67529988235094,64.98230426037325,83.06243180057646,103.8044362159917,134.91714818669826,180.90152030752037,232.61698330362194,289.7621648587339,362.845713400283,456.85385492247053,581.2113108539368,751.1266019921188,961.4348897211729,1186.3966247632268,1398.4143358789088,1564.1276539305711,1648.6757515709537,1639.801666982889,1547.842624382949,1393.6575597128303,1214.0216322242197,1050.4214032101625,913.5617851668347,782.2204192720701,635.7395221467376,462.9175764771105,264.3411176519104,65.06393826313592,-109.17374908528264,-263.26812774454214,-412.54576080414256,-558.0375236843525,-695.9009013711716,-820.2587127945521,-918.7138147690035,-987.9083133657078,-1037.4976462765142,-1071.337668607516,-1089.9701250281564,-1105.3933952578075,-1128.0169540303632,-1152.0444158895195,-1167.2443978459164,-1165.71184089808,-1140.7330426594829,-1102.1224462064743,-1073.882967361359,-1061.888207200423,-1051.0889891311738,-1032.5424006980818,-1005.2422632088528,-967.7674588692938,-928.7573898999619,-901.0931937073522,-880.7273739477091,-856.6380800805396,-827.4787587962993,-789.5320442566192,-737.2083045714712,-682.8397189386676,-643.7668258912645,-617.7660569444399,-592.3560647828999,-557.4332972916153,-506.32660190510285,-447.2731262827183,-400.9451489720516,-372.2274337591017,-345.1672479722005,-307.55151061344736,-258.64189070021513,-203.81077339473705,-156.49353387576355,-125.45833345504626,-100.71094616980396,-70.93305899298655,-37.528578846876016,-2.7939520612476105,31.711157491813925,58.880071290362245,78.10247637452542,99.89481297852669,127.57360828681684,155.09273634291392,182.79794682419876,212.3782275532892,238.59948926175582,262.48889367266906,290.6668655524835,318.39076957481154,338.41386029653177,354.7588519129622,369.3392027254296,378.90077611500493,388.4577884514887,402.7219958472306,417.526631345066,432.66407055230525,450.750277600751,466.34071767485904,475.2293200706419,480.21222255094267,481.3030959846025,479.75268564037276,484.8421089739313,500.49849671091795,520.0987101633207,539.8040124643397,558.0220167050559,566.5312168809985,561.2325334748016,550.0110687073181,539.5760003536426,533.2935680365086,538.1628134267085,552.9265247484839,562.9963416175477,559.1456481677022,544.7937187516982,526.1095157942526,510.91806724554283,508.1571472755145,515.6400895626495,520.9008501311117,517.5354332925666,505.64408949224116,485.9667224674186,466.8182719381654,457.71272486466125,454.5520890771965,450.615719958306,447.42017260277476,443.5937515659853,436.42526027459246,431.5389261498646,430.2793992982291,424.4464263619721,414.54674135842225,407.2681698878704,398.0187373991109,383.1249297000052,371.19670265483046,364.22786879342965,355.44690441847774,346.24897179839263,336.8635652555368,319.25390448722635,297.4637993158697,284.756754007614,279.94260670463825,274.38754716229914,266.8097168821313,255.8233874394814,240.77931329598533,229.64369626345922,224.99670971035107,216.79701671213462,201.54463331829533,185.6419290518284,169.97134597202526,154.3118268746083,144.4136319944656,138.68419150209712,129.85721111723595,121.0357156994636,114.0599497569072,99.9454532770158,79.8034825163661,64.99308255586493,55.3260561208489,45.30945404275488,36.133227913769936,26.296871278054766,12.993973910925751,2.0460516307557186,-4.241070175119031,-15.548406787465561,-34.322528145163254,-50.00176598422565,-58.43129538103598,-62.520927252149555,-63.31127251642387,-67.60900730835552,-81.6415698005516,-96.5122947316016,-104.60333769536162,-113.94621033868876,-128.71524405679838,-141.0079482956704,-147.19798857073764,-147.85083676214276,-142.71607394322854,-141.04965088876153,-153.7659963489003,-174.47761214373392,-190.9836985991182,-203.1130749564917,-212.70960773419955,-215.7577730609556,-213.99532504948826,-212.76729473385467,-211.2668949135908,-212.35550630777072,-222.04843083619932,-233.67241411137474,-237.70716880386217,-237.87478528447252,-239.55875396519355,-241.9589597925149,-246.5839983528428,-252.36242046158492,-251.87037866722974,-247.23678825520327,-249.91832180523747,-259.60147230298855,-266.1375434565042,-265.6041345340537,-256.76532314991607,-241.26360884708993,-232.34932599535279,-238.98051502902314,-251.1945381522524,-258.85456561626904,-263.72113456596384,-266.1439852770609,-264.53059038753526,-263.43982031508335,-263.34695743300153,-258.9154735572689,-253.89191371467146,-254.59443898002442,-256.3458910269975,-255.71128498287936,-257.5092101152377,-261.327009448036,-262.87752731189175,-263.5369972547776,-261.2623478651859,-249.3845581249376,-231.64620404300067,-216.82958942139808,-206.11726200611702,-201.89131818389882,-207.63606206016465-214.8953611090382,-215.19153337421764,-213.87172943609377,-214.8156233296554,-214.1521871020127,-212.69765949112147,-209.9000801538859,-198.15821481537924,-181.02981640120564,-172.44579687042508,-173.88090894439523,-177.84785006520536,-181.51311034521873,-180.50431050928086,-170.66145714012154,-159.04880786850583,-153.5817571218054,-150.5833607097058,-146.2312833917618,-143.42421651824904,-140.49479313564245,-133.06189260238102,-124.21898658640656,-114.96845241158948,-100.62575614545736,-84.96313145284171,-71.31186071941059,-48.68579295878355,-10.038065726113723,39.9643136320028,104.00107243422654,191.54861077262524,307.679518493506,461.0594865274473,656.0808475489345,871.5348601962706,1078.3554298321608,1263.7010808353032,1414.8200030840926,1507.830622715371,1527.1829420924296,1473.7546223414347,1358.2935643425778,1207.4477986323786,1053.3675651991277,901.2627255095382,737.2853077574476,561.1879792952484,379.6527424502867,190.86260306593078,-4.050341016295555,-195.37525691831618,-372.97591883291454,-524.3134673161014,-636.3985319352413,-714.5411639475408,-779.5447398287613,-842.7125844274374,-906.6594247017727,-974.229531686909,-1036.7435873315414,-1077.7453529594009,-1091.2805283187258,-1080.845990007122,-1057.7237459100643,-1043.1428088428127,-1047.8158359938477,-1058.1007457967878,-1057.9187201427067,-1044.5772215554368,-1021.7113426846511,-998.0498015854768,-983.57272796899,-974.6972650157517,-957.0018735283076,-924.9923665515637,-883.833700773077,-838.4957363401049,-798.425956449508,-775.2170482711908,-762.9566208543631,-744.7523082130873,-715.7376685313384,-678.0420528868704,-632.3717401511116,-586.7634674198335,-548.5198769820493,-510.77693252590575,-468.9666159627911,-431.4566977469915,-401.68393372658596,-375.2385156822296,-350.4935994085597,-321.80407241280494,-281.6997675318038,-236.42192274564516,-195.54224253583374,-156.57471364888573,-116.06307572681825,-76.37031678822977,-38.029776756788635,-2.983077987159514,23.95331634051638,48.289584843574225,81.68192814237058,122.18274856905695,159.7610386721624,192.00166942041795,217.67082803984076,233.396493674377,244.98358377228402,260.806949050186,279.1847786073184,299.92341070313984,327.9796766621392,356.71079428005544,374.36586668489474,382.73883251055787,388.085089048146,391.265974043776,397.3696411103313,411.6528814751361,427.2864671178005,437.79413827848987,447.4451423635942,456.7429012999668,461.88829077402244,468.20886750052244,479.2029579155836,488.18976384197504,494.50998972542556,501.78378433897956,504.1528803591409,499.640381539843,497.7738750788905,501.2362081981453,505.83175785585775,512.9633206036609,520.6770898385479,521.1074279127193,516.7012328042829,516.6768577705424,520.714986052283,525.0527197011248,530.0664925942534,532.0875426134701,527.5170391715569,522.0997978634007,520.0755014913179,518.0958037112349,516.0172810763756,515.6585928199459,513.6191434602581,508.828882389067,503.5280519785262,493.9788039785398,479.1230129454925,468.5756767808813,466.44238731436985,466.03201817310503,463.5565858450384,457.13811805847394,442.41627790871223,423.5010048923135,410.82763235564505,403.8954013701158,396.2530808507705,389.54169706147593,383.8862689512355,372.68190720307706,357.6695514645485,346.05404320726876,336.873995230397,328.84998902773566,323.08846293668546,313.068599293781,294.7365899287812,276.674347330607,263.8048542578225,251.4304795703343,240.34529263017825,233.7283628293451,227.53367213312328,220.5767489858824,214.55844712898525,202.80716591392863,182.92523606791875,168.2632416426849,167.23061444266855,172.33997265162213,176.59278157794915,175.42127185489062,161.789438711464,139.62474897848048,121.65581103729099,108.8000182876724,95.56303329581564,85.47976198384208,80.48342242562418,74.64123151691945,67.72586127820877,61.926250143292584,52.78270532809444,41.70542034889964,35.88507258483367,30.414978609002368,16.563256419300075,-1.1258623501913076,-15.3502590740809,-24.45936402446505,-25.52473689992081,-21.8607141145864,-27.129088779133436,-45.22242460654811,-65.03112265973428,-77.89294116614282,-81.4488407386097,-75.86218326410669,-70.55665820993485,-79.2942517688765,-100.39023339832562,-119.27816365400807,-128.45646459866452,-127.91423109630087,-121.28844595044077,-121.89553121893398,-138.54997649769797,-159.71501990550206,-173.00413080673152,-180.0119108121806,-182.63162517766742,-181.7825634256165,-183.66460333821237,-188.1056807782907,-189.0422221470967,-190.0610789967085,-197.0045030117173,-204.2584359427566,-206.61378319408027,-207.4216920468083,-207.65198734179614,-208.18457865417105,-215.46102257814968,-227.5653802358006,-233.26273274202828,-231.09602329315547,-227.441887031316,-223.01309456355483,-220.2775264073237,-225.28363494738764,-233.6907065504936,-237.87918457344455,-240.74529344999004,-244.20285310119414,-242.63978475258335,-236.29568985987567,-230.4181124070716,-225.41676033084786,-224.05115504458934,-232.12627045632166,-244.36984635688364,-250.47571347335693,-250.46762673820945,-247.7741914845276,-242.84739062084435,-239.7461112266098,-240.67383327667588,-239.21986270207174,-232.27318570051972,-225.0782640335654,-219.19623598741518,-213.64185442334627,-213.3630498005308,-218.50041542809842,-220.5915514581377,-218.38790026328337,-216.1245118768352,-212.64530610385557,-209.4980529283732,-210.30995121803898,-208.69884377637126,-200.51835234479495,-194.33894299339104,-193.62850962461988,-192.43768382342046,-189.636596522256,-185.4704394114413,-176.24070651803925,-165.5122217754955,-161.5253428636804,-161.0843951200699,-158.13741040656242,-158.1889252574878,-163.64826783543444,-166.51010605136315,-165.36494397292793,-163.32974649578287,-156.29555523647485,-144.83677242539082,-137.58184100858443,-134.74283970951896,-132.87569999491345,-136.63254088832184,-144.5813734631626,-144.98558484177082,-135.34947095607404,-122.2764071013599,-108.39377188504396,-98.35419407872318,-99.1615802702154,-105.16889789607471,-105.85495159499791,-103.741037733213,-102.68801139277544,-96.533524649202,-83.84572055083217,-70.10800775390004,-55.94564085183872,-44.64344902503503,-45.05222767961221,-54.54059260149438,-60.9218545132298,-60.4345761451622,-55.55292915126111,-46.60460895996968,-37.01295548422179,-31.995836900601496,-29.97869966364598,-28.196209761815634,-28.405292962454077,-27.875933972893183,-20.50545165173756,-9.565984735857526,-1.3960026400618233,5.2203259415295555,10.278035647903048,12.682574267439772,19.687460069251753,34.369278886343125,47.22341457740583,54.230972929923865,65.23608681927254,90.59782474540631,132.0023906409877,187.47514099092837,261.2715465656399,369.4669371536386,537.2727542867189,783.2814307039646,1098.0821163735739,1434.3422173076488,1717.0262540733715,1879.167879630188,1905.9117647448652,1842.925318655338,1760.9158899869044,1715.6567233961907,1717.1562592137493,1716.89268398291,1652.4552860740712,1512.1570408307948,1331.4354234938205,1140.718958320808,946.8519706634286,743.851053439822,511.0513216682971,224.9521171493108,-112.2938022433486,-479.3643766445211,-856.1080689500244,-1219.3138033908847,-1548.2389360478041,-1835.7964172132934,-2066.9892818548756,-2207.2303387143015,-2235.6253093617315,-2169.6789272894034,-2054.8354225860203,-1943.883020431927,-1866.0575251008888,-1806.8059556067496,-1739.4563991843092,-1664.5112155597772,-1596.4170968157998,-1537.9647136410954,-1483.8088542772139,-1427.1365648457672,-1362.2111810788356,-1293.5325364734633,-1230.7442885255343,-1170.6517729699476,-1102.6057635445263,-1026.5917586091073,-949.032939506768,-874.238451613799,-807.7695067045297,-751.2902085418574,-696.2720751676366,-636.557297781742,-577.3209988620961-522.81022043774,-472.23374851741863,-428.21001572793523,-388.02436542597184,-339.3547090293723,-280.36706397810616,-221.01800577221297,-164.33448430175008,-110.37689364815267,-62.86453037425623,-16.67647443381552,36.919874613970414,93.03881739404451,143.70976453988663,189.85502803540763,230.68112471480396,264.0642659945683,295.91800837249,330.53460722817476,365.820795310373,404.4853084790855,449.34177540293183,492.5828503448456,525.9237140059184,550.0996882331235,567.8994773186514,583.2973556135535,604.3277598006755,630.0683347026377,648.7106105723581,658.314018836638,666.694417871512,673.6800013042432,677.3985148999293,684.0471303695924,694.2755070937516,701.8119975670953,708.7984455375781,716.6826481870544,717.2778418689501,711.7924356509434,709.5101294733511,707.0995777693815,698.9740862526935,690.3236642096529,682.5296651463352,672.3066995363972,664.4679264603977,660.9407502459519,653.2056982573976,640.4094528503053,631.12826420026,625.9191791581235,623.317516964554,629.2931178723265,640.7981056689639,643.6644101504314,633.3953438443266,614.932143949955,591.3183667168572,569.8667905909892,559.6570930067095,555.5030942897977,546.4281157359275,532.7835381268859,518.1150680991584,502.55315162755323,490.4626991312259,484.0884679842391,476.2693546512796,463.6943561510798,450.3584006929635,435.67757589216217,419.29414229878284,406.918770256065,397.68725269198956,384.7327159125231,369.4308818994524,356.35446371038125,344.82176483287316,335.8998972865427,329.80080362907535,317.7143916822792,295.74953355931575,273.83069021583174,257.95230136231885,245.5408521391078,237.60689655893424,232.5378561636714,221.6536979243289,204.2069039282869,186.85506103056576,170.79294130597856,157.2482283892777,150.58073712204094,146.12651123577518,134.35206097048268,116.69148041641155,100.58239217009996,88.34220955969423,81.27967159269026,79.29103863472548,75.21894361935011,65.1999148364508,53.51643076050355,38.08333284080647,12.245915328458347,-19.261980272661916,-47.4616332934367,-70.65522091329663,-84.7481460475101,-84.62633054344454,-79.37508212047796,-81.15763467516754,-89.34228424633088,-101.16706350592688,-113.65771582705011,-115.9961409238374,-106.29320847252357,-99.30039898729491,-103.922247291933,-116.45344798059158,-131.55213384613393,-140.89409210363323,-137.87686191885163,-130.95309639257917,-131.70239320801812,-136.8013609745391,-140.6861102587705,-147.27247602104512,-157.24832198647093,-166.29235650665646,-175.68697322962817,-184.68464578213334,-185.29536383343873,-179.95969676974815,-181.7420535621348,-190.83966804741007,-197.64845687463648,-201.56283344374282,-203.99204398220127,-202.64898671904615,-203.51273990537706,-212.26060632436725,-220.67984295622273,-223.88496486062894,-228.01604378098517,-233.56797963323578,-237.88657830764345,-243.89601914328404,-249.85979726930503,-250.35636676252932,-249.0189982630714,-251.25600463897493,-254.844118014292,-259.398315151637,-267.5408006961108,-274.8454741941048,-276.5541187462441,-276.25764211251163,-276.4608604069416,-276.4345805397529,-279.83661354914074,-286.8135955468955,-289.74360825033665,-287.3804827643304,-285.35491578250634,-284.0470153048021,-283.18156847746417,-286.2753374574014,-289.88979537244313,-287.34071330840777,-282.4294034345104,-279.33963292525743,-273.9135124622316,-268.17506940209137,-268.0925315536463,-268.7125548162719,-265.0230314373247,-260.99702618730385,-256.2824705380692,-247.82879901459015,-242.81465351221476,-246.22911274234136,-248.95145434009737,-244.37638277397838,-235.39069558272655,-222.5722936385613,-208.80172935085437,-203.32768738551738,-204.57690496156772,-199.52670943278628,-183.75124667551432,-162.60723204544166,-139.51724567433735,-112.90165451423829,-73.93727737340544,-1.4973790118829022,130.39363215959716,331.35993398181745,587.6776880528786,872.8206582772505,1157.4175231850213,1426.6685519202865,1693.3109725989627,1972.4987775331908,2249.3914720465855,2486.7164755963727,2644.2086159628557,2691.068443233041,2630.625782474096,2502.575854567648,2343.84686536925,2168.275869479698,1974.4080159026962,1735.8975033646748,1402.7933729327676,943.8740288882374,374.7245685843372,-253.02191747433568,-870.3378186655574,-1417.8579357148649,-1872.838767083194,-2241.829337494749,-2535.021731921042,-2760.017784476842,-2923.0798441854586,-3024.931107842056,-3072.978901950464,-3087.9718334140107,-3077.2929404359325,-3029.942470086465,-2944.1577679697116,-2827.330697332105,-2687.8743489194626,-2548.355945914533,-2431.7126012301187,-2331.2145130963327,-2227.3047333640434,-2116.7378122944388,-2003.0186419554716,-1886.8453090397893,-1772.9357853245906,-1662.468066853886,-1548.45058574968,-1431.365039818317,-1320.4035850985867,-1217.6292522134693,-1119.233253078816,-1024.0060929469346,-928.4020269554574,-830.3718110405813,-739.7251864434929,-662.4485408166988,-587.1788053221801,-504.3741114659034,-416.7809989937217,-329.6173298577558,-251.39128112475936,-189.35628386109678,-133.30811784119197,-66.62708205027896,9.948328503847915,84.65581722377019,150.1272458795933,202.9577929354281,244.24091399939851,283.1982971413858,328.70842935325965,380.03499670024746,433.5253571641579,486.9519250450855,533.8882394710383,571.19315758975,605.5749080175046,639.1540121462501,666.8887311803883,690.5248732696747,712.7315687651303,728.8914059562244,740.1305295569175,751.9380118322241,760.1195704804294,763.6027323371607,771.8037669408187,783.9036051124313,792.8971523948156,806.1802227757157,830.6719317366865,857.8451530624462,880.4716329506566,896.1557643404294,897.4847892292005,886.0067101982781,878.0926150205281,880.4733695262838,884.4013318366586,884.7566141044274,880.380161126714,867.2575674694594,850.6527949532983,845.352526551465,854.5426578708702,869.4479001131001,884.6965004496697,894.8829438034775,894.4900300569576,890.0178980147678,889.4586522846156,888.4252975698469,883.9818189060996,880.9347087508212,879.2077102095991,877.0179685983098,876.2815314738517,871.4610910321841,855.4850868936354,836.3678278988591,823.8464699865099,814.8536619739348,806.7543346103837,800.2081485325692,789.2258195456784,771.3393713750194,754.5735065358299,741.2800277401566,724.9750102671693,705.4429157015553,686.3200815043803,665.4388984591938,643.5394123844072,625.71264623604,608.2247350276001,584.9845190702965,560.2220807219876,538.0390052293228,516.7943858487688,498.0590050616188,481.11111467907534,459.43320836030983,434.6088614777017,415.0029631509371,400.86702364071425,387.47782612662377,373.8927676259701,356.9083940882912,332.16153502856616,305.3994637309049,283.6096360136142,263.4173214923437,243.5116104491869,228.40261312495633,214.52900375776738,196.05622413029093,177.30454371946058,161.79343966436278,146.30048928740865,132.08192787805305,119.77908218673576,101.26194436952346,76.4430928191648,56.33782952006632,41.82534124563184,26.581805945536978,11.178693893448862,-5.18110333481753,-25.45950651220967,-43.76526625326832,-56.05019301705826,-70.09138188323784,-88.6283330351949,-103.90177676595411,-115.1248627271099,-127.43756980335937,-139.26112652080676,-150.14716041204372,-164.4993982499491,-179.1440496000934,-189.34859677851398,-200.4707222743564,-215.0395492634908,-227.3325915727578,-237.83722541310024,-250.65365705124105,-262.58960565080764,-271.48793046620943,-279.92445726689624,-285.75859279566686,-288.22514330295144,-295.4067456094805,-310.5343884097812,-326.6270418697141,-339.44434352594055,-348.40883992455855,-350.34336377159116,-346.96042357564977,-345.9333940978298,-348.3976052103725,-352.00718906404757,-360.35847655372186-373.5170962680461,-384.2004150920401,-390.3910530600253,-393.18052765972436,-389.38472680161675,-381.4662452868823,-376.93874300900455,-375.4631308704978,-375.24732985922975,-380.26617674297694,-388.955198859451,-393.46453205425496,-392.4175803158696,-388.4649240831601,-381.50802135745215,-376.161897699741,-378.6400741861333,-381.9129300961333,-376.0825915807825,-364.8348029658897,-353.87543757037054,-344.48134852049503,-342.13628088166246,-348.054559363693,-353.00153619357667,-353.67406975801657,-355.10010269869673,-355.1833076726413,-350.01069304413676,-344.4890233249324,-341.33576410677676,-338.0116590708715,-337.63670248260655,-342.46089055025294,-345.3206422626528,-342.5086023766048,-338.1113206984113,-332.42717508979,-325.51969935100675,-322.53423350518017,-321.98659379676224,-316.2284323734017,-306.23965723235415,-297.9155663767047,-291.4124443205004,-286.8408248696235,-285.4708336997536,-281.90665631357706,-271.95143644415214,-261.11107325503804,-252.5683493397031,-242.4216408951294,-231.7432386230646,-223.83497645123845,-214.84368671934038,-203.8974438152859,-196.6642941135165,-191.72352058997964,-184.43445564517867,-177.93969491361642,-173.02920220785407,-164.80426046944862,-156.35303510209508,-153.03194352600352,-149.25320891060943,-140.532927469686,-130.81561210651435,-120.1889837422967,-108.51377545250165,-102.83287007247243,-103.50762517808977,-102.47255923962274,-98.6133752040857,-94.04259814358055,-85.96879341111793,-76.02601191175253,-70.17194956828772,-66.94067650568971,-61.66050155051569,-54.837907677026294,-46.3826963015824,-34.884553299459554,-25.798778504564403,-24.931838658161254,-28.091145434762893,-30.367129869744186,-33.726987294504596,-38.2484709222969,-42.02777253725301,-46.22734187986583,-46.83319633932889,-36.9880604901826,-22.23115276405271,-13.396591890136303,-10.343237928191476,-8.563773809950149,-5.825657821807466,3.7670510108017927,21.337733828655498,37.38113566976059,49.81215750569142,67.17513873242558,91.7141625735724,122.12066495703371,162.63627880090925,212.71643170360858,265.8958395638738,327.3133086787734,413.61544763844086,536.1468135956773,698.5511936155611,899.5977565962189,1123.749403275488,1350.5199614893204,1580.8492812634545,1822.2727716518805,2058.8512946876886,2262.589993258034,2408.827007180649,2475.552043898634,2456.4099718984808,2365.025298358594,2211.799329601685,1997.6498499887439,1732.349498693588,1431.2327443358063,1098.3426444775694,733.6478625670493,343.35388856250967,-63.40699117487007,-468.26694322796266,-844.2059916370825,-1175.9626427502858,-1456.5257740577563,-1667.7661313407818,-1795.339174700031,-1847.973594035672,-1847.8936135551078,-1825.162064939947,-1809.8607383773694,-1805.9236661077744,-1793.332946613054,-1761.989660371548,-1718.4853499587093,-1668.9935478369505,-1619.7286850697506,-1578.242958727482,-1542.0234810814236,-1504.1306502645962,-1464.366129645996,-1420.625594960284,-1368.9768284620582,-1317.0419179063708,-1274.4344858558957,-1236.9883325342253,-1196.6270902068302,-1149.4141301207967,-1090.0964492749595,-1020.8095361761889,-955.5045892813563,-899.3905891469221,-844.3835971965308,-787.4283065844784,-730.0790322875766,-670.4452909775127,-612.3881210800436,-564.8776868033626,-524.6226567256376,-480.9259072486346,-434.0440432629006,-388.2767004583274,-344.1955748347561,-305.1278963392767,-268.47106065921105,-221.73814429176423,-162.64333812912065,-103.31793601261573,-50.97718557762463,-3.4839665871659786,41.181635432822326,86.95712718417657,137.88788041791264,187.24196990028543,228.9671454013505,271.85081788179014,321.8592584589189,371.25898789707435,414.550103742175,450.0418102496667,473.07935753648434,487.49135168083944,505.02485050884417,528.267899168814,553.7155769284096,581.6385361498812,608.6392733727984,628.0686177106594,643.2565494538181,661.6692148307279,681.7248125907473,699.6504633245734,713.8293656726319,719.5744408867027,719.212360609159,724.8515388337103,738.2973794964978,750.2624897066372,757.3178272238988,759.3350262603651,754.2771531424642,747.9177939471695,749.4342202858085,754.8223907244752,755.295081319486,752.5716136287882,749.477723191872,745.4442007918732,746.0172339155008,752.8019160466135,753.5545281713461,741.6102804002905,725.3919703234658,711.8569198311994,703.3231669146844,702.7988290078332,704.5565694351287,697.7717161471464,684.3541313577136,671.4299545925135,656.6724129529663,638.5985881829419,622.2572435087425,607.4701980718335,591.8372251351134,579.7728859255463,571.0172769474277,557.0781698264732,537.7395467562051,519.5896448216948,503.33618605021667,489.58343330547774,481.83142026864107,475.5828312800413,461.91851800354834,440.9395127584776,416.7322122850262,391.7150640861763,374.331452324384,370.0083452360536,368.28947612498575,358.08219778444777,339.11389798061015,313.35848590871376,286.9218371502494,270.3029542722738,261.46226647248125,248.38400248509862,230.52103030354382,215.50503335003978,202.8420836380802,189.3478819300296,176.29860461980707,161.56517482913773,144.02456107082662,129.6604406578647,114.35303561592755,84.50199359739838,42.631337713091284,3.176577465495061,-26.543514495967308,-42.29918754358745,-45.07763823163783,-49.466761274706954,-64.30156498419198,-80.23238057867749,-91.41758032219727,-102.10511417741569,-109.93059403426673,-111.16715490542293,-112.82987213213198,-119.65394087704868,-128.17841553606414,-140.2540990112714,-157.65682345372443,-169.83743695457346,-170.35012576724088,-168.55648846267601,-171.2726382727586,-176.60357888125947,-185.23757466207712,-194.82463713737633,-198.28774585127863,-199.31470375998757,-206.03737424850817,-214.52606855145604,-219.14967045608103,-221.7512857079366,-222.2575756336513,-221.0033108356952,-224.12410815247785,-230.85201541788734,-232.91699666672906,-231.10414881599286,-231.34130143429417,-232.89477594841117,-236.19686347179353,-244.9089155958984,-255.19100109418738,-262.35652147392716,-270.83897668113116,-282.1715327510028,-290.567680536588,-296.0197485208603,-301.4173543392237,-304.18316094931004,-305.6558648894528,-311.6338184711467,-318.5601968995463,-319.23254694515384,-315.8155271877864,-310.824775647702,-302.5504604084851,-296.34153212424377,-298.65352987108963,-303.93917567625954,-304.85477417721165,-302.12356846369596,-295.0763121176151,-283.2046429336463,-276.16082118520194,-279.5380319256165,-284.5256567165632,-285.6862829159395,-284.38578419489966,-276.73728488596055,-263.13463667317205,-253.05323624417107,-248.4338467478991,-245.66637545581906,-247.08594565862296,-250.2804907704132,-246.78860770934108,-239.37307967216051,-235.59881302531483,-232.23215747312537,-225.52604346236475,-217.4207800119235,-206.00398300053993,-193.35723606647946,-191.63753892343482,-201.3813788099822,-207.62131553614324,-204.54418849568455,-195.8706455725135,-182.85826017617578,-172.94370388797466,-175.41873024822112,-183.90046689208506,-187.49531072539025,-186.78490598265853,-182.46894288648997,-171.51509653105418,-160.08682866314015,-155.32634357851612,-152.64265158648985,-148.09036128120235,-143.7323106251566,-137.65918944554835,-129.19195360702938,-124.97389224044841,-125.72898438370827,-123.9960278360507,-119.6558262840161,-115.8350774251063,-108.26428179100962,-97.2326363002747,-90.02794377490544,-86.59881283349831,-84.47978531590303,-86.92046424238593,-91.42753742568439,-90.27843711587546,-85.07002339980897,-80.24535364630509,-72.08618199127429,-60.484229995645435,-52.80951165878618,-49.298759584439125,-46.57813993880923,-47.27016970358178,-49.448358275238895,-46.482506863547826,-41.00547245792458,-37.58176862341838,-32.576189846147436,-26.939454545766694,-28.229784765095683,-35.06574634014115,-41.16892205934187,-46.55097181177534-49.681913750802984,-45.99741790088821,-38.744360330461966,-32.547104085729345,-24.241096014598682,-14.8802644240441,-11.776220941974898,-11.917665678815863,-6.385052229624444,4.516174950328793,18.088908878973083,34.75645272418214,51.124656654360145,66.38033323450684,89.9911012014726,129.06017846213936,180.51550390356155,242.75976667341274,320.97849958988127,420.5938473297437,546.5167845326272,701.0634908568325,872.2872163566058,1038.047626876677,1184.3536990195694,1301.4656004559151,1374.1000740265083,1390.9064548279289,1348.5254982956462,1252.8989141907693,1128.6115956622687,1003.9825793423986,883.0725612851686,753.5274101187024,611.1928884594579,460.60626814796234,307.4701289313573,158.86767184630372,17.31330571877445,-120.94170401298109,-251.531710000988,-362.97806002713384,-456.3218054589738,-540.5672131982093,-614.6105213021668,-673.5907329656213,-719.0929085240228,-752.1815477896757,-772.4190731550839,-785.8093398341036,-798.187384271957,-809.4811699822887,-825.9433994727286,-855.0256929365761,-887.1275686458218,-908.4730762943705,-916.9853734534963,-911.5115908019172,-891.9970517016411,-868.0525463902845,-843.8561247031687,-813.7782501780594,-781.6254016440197,-754.8204138357089,-728.6924729301496,-700.3256812259665,-674.4742180465936,-646.9081519077099,-611.120414017022,-573.9598465070388,-539.8314127042938,-501.8975017055768,-462.1138382058888,-430.6220062560602,-406.76847736472365,-384.9268483916704,-362.8087444556552,-332.880555038048,-290.93427722989065,-249.24477565250186,-219.3932454722708,-198.62404782987716,-182.87747673232732,-170.47331045881538,-154.07568428869865,-129.5809423366946,-102.63233319345318,-75.90786250581104,-50.307141511875706,-34.23274339204243,-27.9406546451348,-17.760985898753045,0.8863674277959008,22.105266241804195,46.448368041854025,73.83002524821316,96.54109227474457,112.05262415291804,121.67611760643787,121.3577582858569,114.69256743841193,116.5328236326188,129.51729354408536,143.15570471893153,156.88736248636732,176.77444954658483,202.7064613533036,235.10264179846664,270.16511515023046,292.41520540468974,296.86227897127884,298.2025453067972,306.0383935471049,317.90056911314525,332.572712274623,347.3343817955069,356.8346139917154,364.90435720425626,377.53385501106385,389.88223757025736,398.6580876494802,408.3068872309793,416.4444229707739,417.4833695834242,415.3502614094824,415.09660356335746,417.19538603934075,423.5466907741731,431.69097830818276,431.7167504265899,422.1353294494276,412.9484167297721,407.6949568650724,402.5859481018057,399.83928149910696,402.2344313916761,406.16778644052135,411.73449595724236,420.08153110578525,422.4638163201644,414.94406692577536,407.0480754384512,400.88189506002357,390.3580079940634,379.38378743388796,372.8427070543395,366.4310452252941,359.298602712617,353.6377155204399,345.9763308092506,337.92922593957326,337.3206165604091,340.85770960942733,338.83607603006465,331.56202094893524,323.4304425420777,315.37970118670313,310.05342442123083,307.5322883711259,300.65535099898574,288.574776516934,280.2284440779827,277.1646818705609,272.74847097703685,265.71168247416824,256.6426211600889,243.0856427085484,227.99481315600207,215.67304499523803,201.65833788725914,184.45235483179943,172.45890578345703,167.77699460192463,164.3641826998233,160.3922738137735,153.95467594900146,141.4722076113937,127.79596310715038,118.74582141780695,110.7294287466366,101.80841727253573,95.42910160465186,88.93352368020166,78.62508717928276,69.54034721522031,64.74939054168621,60.39451167457639,56.22801022607945,52.591266464379075,44.42939152763766,33.17651743319739,27.000837091133537,23.33664493980006,14.205868978965091,2.87824968672685,-5.599968469871437,-13.897701610037643,-21.768594422244455,-26.987299246115654,-34.09060802975842,-43.40659797385602,-46.809050146209415,-45.731752209264634,-49.40772996010018,-56.41979389976627,-61.721797377974426,-67.77834747163874,-74.83247852147318,-80.01095689614999,-86.56686651472492,-95.56348649244428,-100.18028116528855,-100.32790846906082,-102.48549567407201,-105.6300837582195,-108.6874421302941,-116.6865464072327,-127.37505635358315,-134.2459613006535,-138.53993472655978,-140.46004036905043,-136.8655213313279,-133.17530243552335,-135.90961199169692,-140.49223220187233,-142.8123713203056,-146.29838430449587,-150.19340266034672,-151.86152444337066,-156.44978028878154,-166.30474980779601,-174.9030493954224,-178.92856042377645,-178.97182179953214,-173.20973655082412,-165.42610299646992,-165.56320118895385,-173.88061527197664,-181.639226612484,-185.85234982431209,-187.111694648932,-184.49619002536198,-182.800225389209,-187.1098737332938,-191.74049782415324,-191.2125007427606,-189.02073649293874,-186.47402873847568,-182.35420240829052,-182.751785341593,-191.2599025860776,-200.20514021817735,-204.29448556980776,-204.1323298858172,-198.16537275155798,-190.67268290034826,-191.26202871236208,-196.87783502984922,-197.49469983929458,-192.84645534718007,-184.5944513878035,-172.3758192860264,-163.8215645780259,-164.63109089792164,-166.8242748820613,-164.205107755581
