0.4948435629493987,6.980841129714272,29.82723245600784,64.59016064688099,88.8756303961848,94.58982004556975,87.69466797485822,68.08306020540411,50.77220381760011,56.354032374729066,66.50569567033486,58.6093207386822,50.45771300106135,51.208198918804726,42.514452412911595,31.35921772724837,32.755130151770736,28.902302968200573,16.328811090277565,18.44490873008558,25.566057951730393,15.920643495989438,6.601571383235822,7.949458837824167,1.1002507426310348,-8.414567586938999,-4.734608131899161,-4.949404586221597,-15.44728411041607,-14.551902324006,-8.196327339010864,-14.477423232855427,-17.716166900074132,-11.645571754757626,-17.336865400959365,-27.907676407240462,-25.255850549794452,-25.602502674667356,-34.89878012236041,-31.493405390832937,-22.07916554177676,-25.144494043452166,-25.33864746727486,-16.600171114276797,-19.181930164675457,-25.9967274350833,-20.188882157298657,-19.05568091434624,-29.043895145972705,-28.29605920695601,-22.42619956219562,-28.693718960873984,-30.57173304607856,-21.822940964697466,-24.222009578413928,-31.750918682052998,-27.251034564217534,-27.512623937657622,-38.18403939903322,-36.72785496219815,-29.35993496389726,-34.914355663459126,-37.97328286091608,-31.669918082828374,-35.712545078234186,-42.27540741882407,-33.91145909630838,-28.974713084619168,-35.82573307006473,-33.6996545055175,-27.756007887648238,-33.9377145943172,-35.32016805633452,-26.192039198714124,-28.444366280078604,-35.67426965342415,-30.089501074591173,-27.9611652688233,-35.940286228627414,-33.696420391232735,-27.554070896833856,-33.64209103014864,-34.95084971988301,-25.812450308797967,-27.884469349575195,-34.922261788471225,-29.21983960514747,-25.959478533935865,-30.746402388830354,-23.812621152146065,-13.337067107869558,-16.964200480632805,-17.877425920163102,-9.799278606770732,-13.316414336897486,-21.089123317085114,-15.545623313564452,-13.006833472301283,-19.53977162012439,-15.164781194053244,-7.869932373196555,-14.45996138576129,-16.64761699920088,-7.149133141335592,-7.128596485428332,-11.508731915345006,-4.533602533207735,-2.2671341249062884,-9.256340642602972,-3.9691640844358016,5.676979260413295,0.5435208298154097,-3.0950218573589163,2.9765606482315543,-0.1550762079514465,-5.828974401845194,1.4258874491176892,3.322841450960353,-5.814025838495732,-3.21985867818987,4.695592794394916,-0.48205353232118453,-3.1484498863171,3.0310858305652673,-1.3891743873803,-8.21583316732758,-0.31431267207382607,4.334862747376867,-1.5420986839102553,3.0120914598398434,11.806520146734897,7.700104837689311,6.846378372338368,15.27587898173526,12.532089024175534,5.936886056813991,13.261052431731276,17.84789212338015,12.372755020794926,16.717073501333438,24.217974572246113,17.85883143762947,13.997454878424993,19.135975474488397,13.496016777899989,4.807058364692431,10.817881747990171,14.838444944113892,9.765006666086384,15.468805979768755,24.75946662143783,20.0284705794869,17.494877733409357,24.082488632738354,20.42514046783715,13.852740394864389,20.764409697422607,23.10610046324518,13.90785433780617,14.972543722164824,21.284706050450914,15.941888905776358,14.181215487075775,21.435692362982252,17.574756871218586,10.334438015032122,17.130651302040715,20.57027889673083,13.479763726071589,16.93431835469361,25.292343157442563,21.263523251741503,20.138485794177342,27.468309888621015,22.759003533706064,13.662497464229386,18.407052459798006,20.646216524407716,13.161587360705585,15.840994169483798,22.5617848904551,16.924526635970192,15.146662032978368,23.360397832870845,21.129047057619847,14.735618645970561,20.736914503520865,22.507614268769984,14.118309630564877,17.107560236884137,25.21081483333473,20.69883835612769,19.175753829834534,26.08578834692552,20.83207776091826,11.514675703163988,16.168597165849683,17.6974742000419,9.020763233554536,11.087838602349796,18.347015647035125,13.830555282092417,12.84147058932852,20.520574054911712,15.583587341678168,5.189769808905892,8.17391243813274,8.963799498026901,0.6090614308699651,3.336103706337746,11.207581525992378,7.802366942487129,9.406977255868892,21.091230163462082,20.409960059300772,13.712403924743706,19.643490398765234,22.507832183603096,15.411932432435984,18.286004229157776,24.06598468772671,15.922398617139308,11.428987139721755,17.54359479218764,13.15775326446187,4.665629197827247,9.744714335454544,12.129624614958551,5.092549346387532,8.639905192457595,15.438176828310933,8.317725756138739,4.273899302901458,9.808585358816133,4.63813916047061,-3.770511423572187,1.927540514702832,4.67482769861906,-2.643101481782862,0.19039358656762007,6.86431288262585,0.9994963890837103,-0.600630940348883,7.375304240980244,2.891079714134328,-7.189003704735774,-4.36780775584492,-3.7983552483796936,-11.3032596846989,-7.53102825669769,-0.7521763475928029,-8.325197970964231,-13.16369964309028,-7.769127602576317,-11.357357211611436,-16.79016726584244,-8.030789842611178,-3.4605031375505884,-10.551941177663414,-8.612783290659042,-3.19414445379155,-9.77864911866899,-10.978424874659119,-1.0396057147057718,-1.894167836574615,-7.760272970092889,-2.117772959649693,-1.9067865528734451,-12.788953769563642,-12.532352144696098,-6.6799050810046765,-12.227595613677039,-13.21222547108139,-4.113606014522674,-5.852359187448787,-11.687606741707276,-4.840481045624407,-2.1544891921716656,-10.298351217746342,-8.859090874552873,-3.608661494487842,-10.65661590486055,-13.660913741076593,-6.945175428823038,-11.354025871314867,-19.78117372101961,-14.391729588116744,-11.105423045517696,-16.609219527862123,-11.78410190262798,-4.2462962103995485,-10.97659676832046,-15.236394810673398,-10.330930948339265,-16.37435897038635,-26.054717236150108,-21.004440760088187,-16.971998378569648,-21.45228802861416,-15.829565926076796,-7.603308086583791,-13.162280804907395,-15.213709562932612,-7.542101606000291,-10.848872286213792,-18.361705039926264,-12.986413319997249,-10.655506630296617,-17.530780433414737,-13.98906046541553,-6.738735514469774,-11.58581130365091,-11.536058768183008,-1.387014026020445,-3.317093475637968,-11.144596994049172,-7.076129331313263,-6.602726780699174,-15.262195655970531,-12.337293462291024,-5.069132667228914,-10.773960264402259,-12.29684961679525,-3.0339766529709093,-4.3197620794555975,-10.289345832670929,-4.045364591569473,-1.7989758429201785,-9.549371785459252,-6.311155789834515,1.5778196178281947,-3.2003166348127525,-4.592435885351983,3.406635103142344,-0.11634494874371981,-8.647208287824423,-4.739818318549064,-4.088637991999206,-12.453811075690776,-9.172861481156051,-0.9659442835785983,-4.920975984545111,-5.027500250769739,3.841538769863381,0.4785823644675484,-8.098072554704785,-4.042709089558853,-2.7599595638067673,-10.482721299542568,-7.491256918596114,-0.3522619950817871,-5.59698004769582,-6.69313418698971,2.6118502714359666,1.155344298886276,-5.262278944313444,0.5924736232141177,2.9847740547186703,-4.135344683551818,-0.24654919449008927,7.746873284432887,2.4692850628621392,0.06758024509471082,6.543310830479744,2.1599174921886615,-5.309019778358875,0.6161157339520584,2.906091486524913,-4.264503249893076,-0.409895251003785,7.917711756670283,4.094864408073239,3.4719468109965863,11.02718882737725,6.8880585908920935,-0.8209442823425133,5.514488066909474,9.259758106547748,3.730402755814313,8.666412445135775,16.32638060252024,9.631936688002947,5.818255715154335,11.339658318278206,6.011751295396143,-2.5843833442729505,2.5719165072906565,4.66550936523287,-1.7130853527328234,4.758225026076557,16.084698738421725,5.422546083650054,-27.457026524950603,-66.29206706704599,-96.19467727612393,-105.24010216566089,-87.11182497746799,-53.67435460106945,-37.789392609097845,-47.592919184779625,-47.087094430987435,-18.833718226802556,15.434794165001849,47.54806867032537,77.25850937159959,81.57645312345927,60.910353089139676,49.67877318666303,50.009680980433735,43.03737393074757,40.64091854493583,48.14494865493483,45.05782912054434,37.509738113183644,42.96746768218475,44.98335953940362,35.543324905084916,34.43426382616543,37.41014202311498,30.24019025652413,28.7184773666232,36.53897667298855,32.453412694309115,23.810116247203688,27.556166309224317,27.05569864842151,16.749251871790175,17.890566233191574,23.83626766773099,17.120169030389192,13.345696498659308,18.318578322985566,12.685671928187507,4.28573028473299,9.290377753634733,10.616894247550473,2.6884882432556063,5.816106130041854,12.411541760764738,5.296840072995837,0.9127693564577647,5.826595861378663,0.8577051530329629,-6.5398984767948605,-0.1608132006960088,2.6134282340566295,-4.70175255086342,-1.4190687868483307,6.25293323489749,1.5641126550504025,0.08240975609624418,6.906782203849449,1.63694513641271,-8.132614498269172,-4.483969999412055,-3.0206440795363063,-9.924058999254813,-5.771303700426861,1.9158818522631038,-3.6883403838417297,-6.392228430722467,-0.5161576809750099,-6.099694239539884,-15.760368929185926,-12.210023799445235,-11.243670995715505,-18.874579690507996,-15.591215246309758,-8.777822330092519,-15.132364418494063,-17.849841395786452,-10.348104466002063,-12.894294725140792,-19.308354844673573,-13.386920555599268,-11.777458613163244,-20.683137777102573,-19.259341021315464,-13.042137658295193,-18.226936474940306,-18.953306656113156,-10.048838698925582,-12.510357629387768,-19.661094216015986,-14.515179156323411,-13.070230261358144,-20.97630650226615,-18.20185133852566,-11.704193702291345,-17.248801325449687,-17.749993142871162,-8.033053661585637,-9.393034700640706,-15.05359133053048,-8.36733219016562,-6.1571006476841745,-14.436976209105124,-12.370117607565744,-5.833288004885263,-10.629308966900242,-10.34376530421381,-0.3056167796944287,-2.5974940154258612,-10.883107304269078,-6.915486345067217,-5.250563695507025,-11.887951078875203,-8.061806174306412,-1.8002626232564496,-9.377242565538854,-12.727996634747633,-4.8493902615286055,-6.451376233596788,-12.015433852610736,-5.998987018334576,-4.334716120625009,-11.260461117043052,-5.626595474063362,5.019271761732245,2.788080072739217,3.238843424260902,11.904535062276151,8.676371188351865,0.8207600010602332,4.705318730189564,3.778272882541824,-6.70043033086133,-5.315411365163038,0.9449802932173275,-5.055285596587963,-7.307679782057587,-0.4377934304616442,-4.55587784581615,-11.988213288205012,-6.130926006530947,-3.7642628327848056,-10.407403864330599,-5.778070589991917,2.6035811131670945,-1.9274851614651558,-2.5148863713397778,6.795513503389665,5.515296162485218,-0.2313463194538996,4.8735575841676795,4.645618673366374,-4.668909581845897,-1.4903736258420195,6.468230955089783,0.6841359244935483,-3.3634143825496015,1.4254038178759187,-3.137613470469057,-9.059679565200819,-0.17622960941807442,5.415591017336224,0.5045440343751659,5.716848466233536,15.0218926541183,11.650761287036401,11.611787848502532,20.984337528432466,19.613846949571325,14.019776582311893,20.441658948645703,22.0883504927556,12.948147166634165,14.149289880036543,19.86240948784167,13.341653732316058,10.023333804481092,14.87587738113307,7.782018997835604,-2.7966922610248557,1.3171823024323333,4.024589915501145,-1.454931707413797,3.656431688236523,11.290028274409147,4.553626420736921,0.49562130800687404,5.86835855457585,1.0887734594022036,-6.498562659911825,-0.33300950463512624,2.6472972681208686,-4.115449961266259,-0.7411950854324068,6.175244289276955,0.5138520887959399,-1.2768243247032776,5.9394597253321795,0.9501300211994903,-9.325855317601787,-7.041095703816248,-6.766843066816217,-13.22110075130148,-6.8530757304040595,3.5394209836020534,-0.20329806325754385,-2.1396168992587588,4.047085282289287,-0.7950596479505561,-8.749703055833015,-3.0452766803780857,0.04532887988038378,-10.071665390388958,-27.347238340978826,-60.145485180513425,-100.18608401615809,-115.53978281808344,-104.56610736970055,-85.88422881405128,-61.262734323803485,-34.02790428491429,-15.094265757652478,0.12070655426597554,16.436581556252484,16.819270473772118,-0.6585417975207273,-8.418569554886027,-4.477371575554074,-5.497279158817748,0.21369959448236076,15.806981188952102,22.01420361214532,23.64459056581094,27.717046625360215,20.437930856963767,10.451047480866276,15.772536256866871,21.132067378729225,16.996741494906832,19.57506190435011,24.20742288605229,19.006605411627795,19.762414421715988,27.97682934075821,22.856361265661384,14.396020018872303,19.77668391567073,20.401909064031734,9.877931319191035,10.27997013807289,16.232183466713128,11.070828896037302,10.278596294913848,19.014730979562156,16.860193065850677,10.587433043892126,16.533004952108286,18.43913468852339,11.142806230474328,15.069299936197522,22.697098728347772,17.316977235055557,15.858071278941424,24.129982461366396,21.273947023588754,13.841999404642557,18.33046143218052,18.335415750671793,8.543847655033657,9.97164607771284,15.853972744903322,9.545779548063061,8.050924907456112,17.44001842740521,16.298146308908628,10.2382382244759,15.515504778976778,16.2602649343589,7.65658331967062,10.313934211091087,16.798362345126556,10.293776103324277,7.342471418943427,13.096859780356361,5.717770857783185,-8.271155192845303,-9.647183873106787,-11.04870744709418,-16.729277425197136,-7.9184787399658525,3.804742731596657,-3.446158696310739,-12.900360572042784,-12.9086003112251,-19.07066080167712,-23.234532600911145,-10.101762453064657,0.1760211142376058,-2.279969244320319,1.7314719226305764,6.735646505078964,-2.4840571906728774,-8.181295406537915,-2.7301207035679806,-5.483005915327471,-10.683012808370961,-4.175886856801828,-3.5759957761432024,-13.530989380167167,-12.094552749427656,-5.565524552891746,-10.948194465211776,-12.961934709680385,-5.890631339884457,-7.812383465935003,-10.240982712168284,1.4091415162137748,7.236429921181093,0.22195338047627633,2.194355154088306,8.656391110852692,4.503438986238749,5.5352139172706885,15.608414666023526,13.573618482776215,7.119990064659266,13.15033420049511,14.604200019054211,5.9571288388041825,8.691423041333572,16.486366915926034,12.358107080842125,11.456442873935252,18.39812541948969,13.575247255639885,6.101975344465985,13.555419474479717,18.2863924665035,12.752086870491693,16.18529497737844,21.77955632516202,14.582567816407721,12.599533409690952,21.378773638663862,19.587759971862756,13.745764056313577,19.707942826885255,20.2567432076659,10.827844914153546,13.482710488887111,21.180973889242928,16.17198105930569,13.452101270085123,17.935969979243602,10.672592687919893,1.1626271148964404,6.86623937935174,9.865542070410582,2.404020374551866,4.306507784016972,10.261961817841192,5.753308216533824,6.936103496476691,16.7776692399187,13.105430095688643,4.071603534256525,8.319931231177188,10.215895692310024,3.593823824391883,7.072139143226304,12.177532873635204,3.293914341063321,-1.5086568139411072,3.2457959748355605,-2.7736674969299897,-10.248998291403925,-0.7831294921205423,7.6839970921795775,6.540050913152859,13.646813077472835,20.661267234402448,12.994139080757659,10.61293650801413,19.12101696267527,15.729325857055882,6.664881088712628,8.934405997481207,6.945745878451504,-3.530480413442807,-1.6251215700303678,4.831069773473153,-1.51443812227975,-4.905331389485949,-0.5936352306366381,-8.635702875271605,-20.29342625983023,-17.651575162928154,-16.627775541532827,-22.972162881815823,-17.405483184875795,-8.157278549240505,-12.496283269587671,-14.452251203386282,-8.474885167520428,-14.115993486701452,-22.71842504880064,-16.881295331616293,-14.099266892431267,-21.372235068139158,-18.942448864212707,-13.93124429459694,-22.07707385878224,-25.88323238610189,-19.997886764177796,-25.1467102858487,-33.62673065897092,-28.820053874428766,-27.399931076634385,-34.21436598010356,-28.955165321274194,-19.797951616127023,-23.720901035253604,-24.765600389862705,-18.183205669551942,-23.458550655471186,-31.616997443818153,-25.83078435395111,-23.28376758124537,-29.63522735742628,-24.771014015625767,-16.443152114889475,-21.37766309285195,-23.30175621493608,-17.302840587836698,-23.39929452595787,-32.9034315329446,-28.422987982049385,-26.878972491415908,-34.3131307826746,-30.2960146626996,-21.798034686649288,-25.38428260374431,-24.795083569907685,-15.427530210055483,-18.186666301064335,-24.840691672168134,-18.20554240397515,-15.899435906793352,-24.163596053098907,-22.14674769284995,-16.310324412049944,-21.814979139101293,-20.930664399070004,-9.500544330785404,-10.345175660484186,-16.570740411782992,-10.671243305252768,-9.042368348180386,-17.146033520824542,-14.177714546289845,-7.2777913762808835,-12.83039798400753,-13.842893811291066,-5.181219790464213,-8.027880560227306,-14.970591033595198,-8.903314510531413,-6.499459646303622,-13.420483933913319,-9.385040142613544,-1.7932257970640495,-6.690424698730233,-6.900382010951093,2.585042801575171,0.7385938541958406,-4.771585722337511,2.7600814191401724,5.891282359400932,-1.131726728883824,2.465405436027422,9.764127978305622,5.465622343592699,7.083517536819744,18.34234581788732,16.74532027801525,9.658911868374517,14.105485711273339,13.990353356629951,5.195574312795232,8.350811430265647,15.301816449144747,9.889016195902428,9.454100999604607,18.788422718971766,16.45123995837725,9.01395148923203,12.600616572200336,11.487282268313626,1.701501513157614,3.8420363081870623,10.156075056980598,4.192423379375192,2.562580199819852,10.343762761354938,7.355814135492659,1.5755501061840493,9.095969519615805,12.269945255328981,5.718609030809461,9.605924717736665,15.542344928242127,7.681230608270831,4.372358009482208,11.097956317981993,6.7905310212749015,-1.292868791447769,3.465093986651412,4.736549726023974,-2.580997380041729,1.512732180908554,8.713631624117022,2.048712618407605,-1.0596338876008953,6.071609432841206,3.5391315590178913,-1.8815607096258145,4.928239943145828,6.35324465955121,-2.126571623234086,1.4466647304870541,10.209732427656235,7.147057309277887,7.721159601593184,15.858307834506682,10.848195917819645,1.5970374633318234,6.065211057312925,7.638925987708974,0.6016766506703775,5.209341396738242,13.643151272836507,8.634622687667402,6.245604133913851,11.922410127049249,6.530222104165556,-1.0270810967154103,5.562273263803684,8.166143185601385,0.5066294109060636,3.289219168643478,10.29964944428489,6.110189440850978,6.850913252581335,15.970503841447739,12.726291072064916,6.190695114442594,13.408510203989279,17.532371027494776,14.4262130618079,25.3202602453073,42.65893707223749,50.26930648426009,63.84903989411317,86.17373730275872,95.2628127337664,97.18392202106152,106.31111683673511,105.11189234872693,90.01699246318266,84.926175453105,84.86262568891257,73.87327538821903,68.1595950704663,70.81766357200588,59.69264382757085,44.07316190705113,42.69739263396879,38.94491436949208,27.146995445696312,26.792194090227134,28.87009233505271,17.19643781124943,10.687492561602973,15.421870340173113,8.92409525028787,-3.6452066809470742,-6.1867231413605595,-13.400068816525222,-27.157923534987955,-25.792262687268988,-19.092316422109466,-26.00565502363472,-30.419102346623944,-26.982899604878877,-35.46877517017823,-47.15686258935591,-45.54704447951636,-47.84391845741597,-58.39570603296016,-56.084140601523515,-49.644400423709115,-56.83186843119367,-60.46505239883031,-54.34452068013931,-59.09425316112103,-68.00766614355587,-64.68422330167044,-65.39342322601678,-75.24292023926746,-73.16158147473786,-65.97127390228216,-70.78636899388341,-71.29646617824123,-61.97199279143841,-63.2140634552348,-67.3231050329656,-58.199984556825996,-53.302796054957426,-58.02107712316278,-52.269635458529294,-43.97982361872641,-48.94754120147109,-49.005812001662946,-38.51624904147207,-39.19300564616183,-45.01232826545686,-40.04402302012279,-40.18702129956412,-48.84651894608558,-44.50209497645319,-35.105908110698735,-37.79999309672915,-36.22937906323258,-25.48711469589636,-26.093931662800124,-30.530179749699293,-22.526134872370484,-18.7408336943639,-23.93267923545172,-17.911571511936785,-9.33735021634928,-14.83005386855348,-16.258073582929384,-7.501774473138115,-9.41947091081231,-14.96329062129373,-8.466285821887194,-7.151291666063888,-14.96161501655546,-9.951700093097205,1.1142424460096532,1.397600293332347,5.0064731671549465,14.621224317709675,10.570919877670924,3.2540235813947103,10.604430929820385,15.638305821031782,11.755691484797017,16.760680970662033,22.59586386369153,15.379086226420869,13.275666500962934,20.812976047026307,16.992158717557057,9.45910997373656,14.124070876376495,13.247993610751738,2.1125946366648534,2.303593640288784,6.667307693402401,-0.4746687471409361,-1.8147488222890735,6.935990089176658,4.8994739330188946,-0.06847827604245826,7.448516537195112,9.596995973758617,1.6230008079120828,5.25109241544206,14.145942031441017,11.519513756640379,12.069691101258103,19.63103182366072,14.491169511940225,6.487635938935622,14.021477202031306,19.73989712605242,15.685204227696502,19.674995794472743,23.899501211492424,14.835362275763925,11.983273790688642,20.36387366218912,18.32236253781213,12.255766870094487,17.69291191889652,18.81424135939061,12.014680712724351,17.06437766437668,24.872227943840947,19.378045288095237,18.353443983899776,27.071849930890753,24.919392117055384,19.022382840887605,24.84420923855468,25.32648745398587,16.196585987141106,18.499486131500536,24.26899694331073,16.8894899103623,13.423897134829707,18.732788768838716,12.021403523533465,1.7069916352196026,4.846612711063722,4.686090451468427,-3.02250879218133,2.4238193790859297,11.925484861321898,8.163822207848785,7.880260205723726,15.919552848424528,12.375251573664851,6.177269845362153,14.024377964143879,18.5740100563588,13.937854523229781,19.213759030020515,26.398520983013324,20.62303115901141,19.903711461903576,29.516912929420187,28.46697347751432,22.69351754543082,27.638934773194357,28.214106399840716,21.362372060042595,27.220710464665547,36.625165764112154,32.3477492839238,31.254823635276345,39.50037793305033,38.10493546145738,34.44255209293041,42.51312557618706,44.27617632249989,36.13792509682299,40.142536019901705,48.85359655552352,45.68123745860909,46.621383318324874,55.3760896791142,51.35765122356905,43.145242237858184,46.99131191278151,45.64491827152318,34.84953445090371,35.746441215387996,40.51967974498423,33.13053298477741,30.92288372256546,38.898173059670945,36.582895678034724,31.41247864734789,38.33692548027916,39.13974712061339,29.29967185353854,30.864350979659896,37.14443567941905,32.05538074054975,31.387213292870012,38.0573880355249,31.231742814450943,20.345077267101097,22.647001847994144,21.268354876622325,11.516045016043275,13.632349914891908,19.63527396502489,13.578852867644965,11.761533466508926,18.194589535421432,12.47066646633288,2.5293916572696444,5.175346538871002,4.784171922193452,-2.9386801489675554,2.2992895244523117,12.0465542354252,8.292720387854157,6.268155319729317,11.280230205086315,4.682475492046377,-4.856570988459652,-1.657019735336144,-3.145324659570108,-13.706610196382453,-11.634974481534117,-4.339881444701508,-9.47677002360039,-11.50103367225559,-5.436093691193667,-10.575364885688845,-17.7389529631759,-11.267364114772288,-10.266131582440954,-19.94955689735787,-18.379431445990537,-12.607926041309586,-19.177735945934412,-21.885982076717486,-16.22095292779319,-21.950858004913282,-30.344134719468254,-25.40547269371796,-25.227766891695055,-35.34772983898818,-34.60570811539628,-29.67354599479133,-36.29690898249857,-37.60384162128496,-29.078244281109313,-31.520274529757753,-37.232433268216866,-30.451406824075622,-28.445720626749782,-35.44256241606786,-30.569236427593076,-21.995528879224917,-25.888445506585562,-25.663906121627683,-17.306495699332988,-20.813602087016996,-27.613317524972505,-22.075217901809623,-21.950904760698243,-31.79146073582557,-29.824981068458406,-22.984281856084774,-27.69704687439083,-28.35914226027043,-22.441214758019324,-30.96812235065023,-43.38648171169777,-40.63660397983279,-38.75864864892063,-43.46945598867653,-36.39312020441776,-26.696158688299576,-30.281224336178397,-29.977436369808892,-21.89662438547535,-27.506636321412728,-38.36652728574947,-36.05097811275365,-35.24872073028397,-40.29639871450338,-32.5929498365809,-22.76448757839808,-28.2931885177056,-31.547280863404936,-26.659784549187577,-33.116652101369255,-42.038717342970685,-37.34566429055523,-36.5251268720818,-44.130430179332734,-39.892969709422545,-32.002810661386945,-35.87129505614808,-34.59161332976734,-25.165343141746902,-28.800896437349003,-36.25673062224552,-30.26801947933886,-27.76247963418054,-33.89333628956496,-29.536798139083857,-23.778080516476102,-31.482233422277094,-33.46769751622895,-24.861494174188365,-27.11623890266481,-32.764830954732226,-26.1648188124412,-24.443188848942523,-31.82878249897267,-27.953155259831647,-20.998462843300032,-26.55984913542643,-27.366015819105122,-19.04480465694262,-22.06284520715234,-28.28029610728665,-21.41782216221837,-17.852929294332505,-22.26370043147646,-15.76080373351317,-7.503604173705571,-12.809839514370147,-13.275699620924481,-3.8059215296673656,-5.136249651632032,-10.004546758012253,-3.6676708961361006,-3.2701586967582736,-11.791466080449602,-7.851406507227007,0.41270237948220645,-3.0334413412798726,-1.556411539320874,8.486779152855641,6.407584229691351,0.94194276226394,8.482861624469868,11.687643571435883,5.52132936160311,9.884631303521305,16.70176870500411,11.050695387012992,10.97762084572975,20.411379995684882,17.701344882225314,10.435786953012073,14.39910515645579,13.216597388484915,3.8971246476583574,7.147162191482988,14.289394560113017,9.569053110774304,10.202351408790355,20.26235126760893,19.052561162963073,13.945157816045354,19.734058854513933,19.553062243679264,10.684758176740058,15.093588314554033,24.6243884603725,22.111598149183067,23.47305236165768,32.72216147192241,29.83444988546307,23.51536819574013,29.284946259876264,29.34262202495795,19.727960334180196,21.676785708623566,26.940466109350908,19.264578697277333,15.794490565721848,22.253878752510246,20.583358658379623,19.178105453248854,31.0887930403656,36.56721720797345,31.08672605282928,36.795985181601026,47.432247871778976,47.68469432959188,53.166385208910874,67.11698193371052,70.86417546224123,74.90189431580615,94.89796754624727,110.75230843333077,113.76444970578598,121.46864263424278,125.7451114624273,112.93750639229734,102.84625808864863,101.27448808963231,88.14931118485003,71.79529639510953,67.73972674648526,59.3163407602365,43.74474004164624,41.6711030006203,43.82199803257482,33.451226065093856,26.59843041105551,26.777835562886867,14.75697392999168,1.4156114922576082,3.093031870456989,0.9160258323315851,-10.274626465266287,-10.937101448022357,-10.378023736725243,-23.030671358244867,-29.404096639875945,-24.45105386863401,-28.98943823868775,-35.900636398095195,-31.373937398293172,-34.061345564358824,-47.35420974079213,-48.38544556011243,-43.94322461722815,-50.491360997898774,-53.11817272444716,-49.28532133374918,-58.77235630329797,-70.99721037951946,-67.96195478378527,-65.86532811758212,-70.21185134520039,-63.34328111180537,-55.06630304840585,-60.57150672569384,-61.83065314718725,-54.33784963709599,-58.567376064352786,-66.69791319170801,-62.79573066417338,-62.55029720063129,-69.23581936743989,-63.512374151339046,-55.690170437077846,-62.494958445620554,-65.7039115026638,-58.930238826870536,-61.43918350609001,-65.59904204577361,-57.09375950217581,-53.631412264272896,-58.40983348888619,-50.38295741490783,-38.59079197438965,-39.65132277036013,-37.38010717525745,-28.25162261274702,-31.48774635900224,-36.76208583506325,-27.920745069264825,-23.002195505913114,-26.773874126711824,-19.748178338216327,-11.191989289722866,-15.63370445853614,-14.312927187235061,-4.113461732321228,-6.889045328457574,-14.059664185299136,-9.645677417385683,-10.542548929030938,-19.644753601768432,-15.638321329759155,-7.010655021313919,-9.410887190868065,-5.454954565464268,7.350358666654534,6.039502982891163,-0.9736868195038673,4.237023125590802,5.661580590688732,-0.9926964695474605,3.7968741927424117,10.258408384642957,3.1037002927660655,2.0999037718267326,12.115776523888458,10.908482579789435,5.2623257099663245,10.496385219006228,10.678135362615553,3.629997400128986,9.723445851372842,19.0647258672966,15.023436278478066,14.697754765351295,22.625368739331986,19.300125291097075,13.626657734584807,20.530704806134445,22.290189313042653,15.28813180511586,19.633243918064437,26.818169987148863,21.925941938202094,21.777282103274025,29.76606005957386,25.814259822424365,18.589770116641503,24.010101920119908,25.50663776417007,18.667197552766186,22.449712651257165,27.857259631499566,19.83193633371488,16.82070983153587,24.206912173963268,21.440928578843117,15.033357970271952,18.984953146251303,16.681766704830515,6.247288176847977,9.123934181130931,15.945167517818962,9.609190510686108,6.622975767307587,11.634235468502583,6.375781362212926,0.6920450150365645,8.44404924974335,10.02011431518558,1.2571941073162498,3.1986237683331105,8.624696558934767,4.133989580141934,7.135393094291599,18.871556252236314,16.691593157237058,8.842012846686998,12.114408241011123,11.421778104778422,3.864225776920466,8.415596895192818,14.869910674216825,7.896004085862045,6.446197780589102,15.763093877441523,15.279502289064737,12.150801046565569,20.55927107750513,22.86551663642667,15.529800141843964,18.57887650512174,22.43456317838329,12.272278842180686,8.505385098864501,17.228419603607996,17.191950205508114,14.865600877230884,23.559740331023193,24.659240608706572,16.27255522190322,21.15811864596872,29.517607223913856,24.142700790076326,22.56897261151623,29.141648302033996,24.47610083491216,18.030764864201217,24.351945198193075,24.979557744115795,16.091069545539966,18.44417546370477,23.852587767409158,17.48702764261946,17.323951791290405,27.146633475910466,26.112648089723308,22.189578728491128,29.969177386304303,32.156792070627205,25.54650556245882,30.315736727810354,37.986644715596846,34.04954586323931,35.87484900177829,46.21436188306804,43.9809026816455,37.652354483543135,42.837822566253685,43.132028893912924,35.3493482934073,38.78218738149796,44.06539505566324,36.95119946568227,35.764482320516464,43.6110032189379,39.31465854003646,31.380834265963856,35.28652408609892,34.61133743544234,26.950740890745564,31.768950824009313,38.29130845090701,31.260281142344873,29.095720241563498,35.249094039554805,29.180420730243668,19.875863312686022,22.629878803463825,20.77416801904218,11.846057858006446,15.401750834403982,20.768729643379448,12.166962258808246,7.9486397512198215,12.990505965467923,7.9280127279042905,1.4340964790627337,7.47456813872256,7.915607247419635,-0.15027372035361486,3.6506102788994905,9.584051537019901,2.0054571994136765,-1.2233341063217789,4.189313325401455,-1.4124631423541016,-9.169797528840942,-4.669254417266063,-5.890906029550665,-15.62365824008672,-12.631391410772544,-5.85208613073316,-11.646963168944508,-13.847751574221816,-8.784875222466114,-15.140665730367475,-22.827377484948435,-17.106119407592665,-16.869627729447835,-26.083594174332944,-23.588091482292896,-17.247992788080104,-21.872761424944358,-20.9413295113565,-13.22937924558131,-19.771654472714523,-29.47176878581068,-25.599157865275618,-25.862513934259226,-33.40071062248423,-28.24826566205629,-20.84459388355331,-26.80300781336109,-28.55322573138448,-23.29052848882695,-30.720885945765424,-39.566825493254115,-33.60643339483089,-31.322585765404863,-37.26407481327886,-32.26884901614479,-26.214399630121065,-33.76475700318432,-36.21438002171788,-29.61446970168293,-34.15015621874083,-40.69025792720692,-34.45782785779438,-33.65665972301613,-41.41504327333195,-37.178730889270156,-30.431839790713198,-36.341022274671104,-37.4945407576392,-30.831400943377872,-35.76216360689756,-42.47118063408485,-36.47929075564522,-36.030398780922425,-43.96757412829209,-39.16614882894546,-30.873354876005642,-34.88331474987392,-34.185844905696364,-25.90703249381312,-29.66091113869409,-35.18665340727427,-27.657509757531148,-25.93754157191942,-33.82088270402587,-30.540845707317388,-24.479962282689264,-30.270514226503185,-30.846432105552672,-23.81735228633689,-29.09975000331247,-36.36248058192819,-30.094079671592045,-28.245226561562973,-34.46167060535359,-29.162049565265782,-21.967222506801445,-27.183456316593976,-26.612202466050405,-17.655943030769656,-20.77851401540985,-26.208919307130294,-19.132713759743794,-18.013643291400783,-26.407078521904268,-23.86385764717813,-18.596351628348827,-24.11242592768845,-22.200076814519868,-10.825089595584995,-12.258983291423531,-18.292310174251792,-13.259108502769097,-13.531856856778221,-21.415544735903648,-16.64381492688496,-9.14422698666791,-14.404457032126535,-14.226955040030823,-4.778586879071566,-6.392229486001888,-10.347210328596983,-2.9790331952612816,-2.8872496925765265,-11.796902987658136,-7.509536247598197,0.9124668039433548,-2.2629402167473613,-0.5837633245765534,7.724488035208184,2.658878516159361,-5.2536415060490445,-0.7632915477851565,-1.6782035943013849,-10.578279001251245,-6.520960245898163,1.247462674332867,-2.7914596051252563,-1.5378082153232417,7.849348218155676,5.516101982725285,1.487547132927726,10.299502561610065,12.788145634282376,5.398456448755627,9.295106984964464,16.188626398825715,11.871268075626624,13.945567840765568,24.14689392477493,21.397508654381497,15.292621970444245,20.951477508526757,21.211183313242252,13.55529722347153,17.455650335263346,23.099616137292287,16.26423604283287,14.543744852536378,20.64161990099148,15.419339665716464,8.815218211562435,14.749969958909917,15.450043666713917,8.813145310103561,14.70360484290106,23.051303580071675,18.88661619572316,18.62712868639971,23.644683623794663,15.206955367817375,5.8298656343140625,11.166416381583069,12.625499991165476,5.861444861065763,8.887977337052696,12.120991859047356,3.6453222502792717,3.097334758151912,12.742806712896549,11.898245124704783,10.023348132725886,21.259513921441478,28.36996799804648,30.85377582890728,50.659438666974864,82.3724141341096,117.30008561415576,169.50951821369458,227.2749575253763,245.2874376640331,207.4273227931003,143.262107788939,80.37445136862432,37.844959385888984,39.63555668304187,69.5549884623487,75.05929685750165,51.971622930048426,37.13303077371884,31.35369934035488,20.901918728269216,17.704579422854533,17.89601057674636,2.9462977649333784,-11.02125749694472,-7.989754822688884,-10.241605483342479,-24.202151208745,-28.131400216044607,-27.519130207855135,-36.57935245036599,-40.35915998306479,-37.673631688326125,-47.93667366600676,-60.56925679428642,-60.63617545503419,-64.5502068884299,-72.5008926079667,-64.89530196464021,-55.65521560426199,-62.824203320783326,-68.34692781684194,-66.61767404438828,-74.01525651969732,-78.80583213841999,-68.37815922858181,-64.40487054234278,-70.4783471985929,-65.1972285514792,-57.233819737865424,-60.688128004328384,-59.50516515854714,-54.126878417372936,-64.12959812474824,-76.28760140502466,-73.49171622656897,-72.28871804039485,-75.40446628096984,-65.56649543848651,-55.143365638037125,-58.13058005906251,-55.69671958623893,-45.18422055464129,-45.52947488622484,-47.061232237202994,-37.60633961822263,-35.85385357105608,-43.30938082103984,-39.286967991340376,-32.979811402845264,-37.72011443674373,-35.596496046045445,-25.59961938309209,-28.241157474750885,-33.14883817642212,-26.44158846539505,-26.070612826481703,-32.71029055706671,-25.638425197739252,-15.748975818964393,-18.224754884359456,-15.901933904681531,-6.658386474498185,-9.11601236904633,-12.31436699109616,-2.9761411293660305,-0.5750936051802678,-7.861768924368654,-4.160556788886008,2.050872078350416,-2.371004311941283,-0.12659326874837173,9.302431407627438,5.35074918992389,-1.2628234638101052,4.6094388993221,6.111347515800331,1.6713690637526746,10.053253105444918,18.94814288427207,13.089138541371167,11.309283516551327,17.461988175336348,13.470276143541613,10.228384446286947,20.056100383939885,22.459727225613904,12.055644855751908,9.524084620597712,22.233450902196015,43.22494928472015,63.96323591682458,77.52771026034014,76.09665014490342,56.144273771792854,39.854465238986045,48.45593859192375,59.96681286738189,54.32787091003695,50.306598156239616,52.2115585346224,44.13031730121851,38.79428391757972,45.980669541233624,42.951275284861715,30.500731710750298,32.288830177300504,36.6183082910315,27.654963415224742,24.51987896114411,30.782502389052713,27.007720880827975,21.67567162067824,25.947563082094256,21.90913837251711,10.873975804468515,14.314212019185028,20.773606397788427,14.810605407616434,13.535551668592937,18.644424993939406,11.864250530598177,5.400901306079957,12.014801197902363,10.686398306677887,-0.4818987490372013,0.6444772029869177,5.499191288535455,1.2242380444592507,5.154545152231677,16.224012019011084,13.367051999653903,8.263108813698837,14.83333521563995,13.818038114263302,4.287320350453304,7.828793497054,14.794751464547714,11.594709551254159,14.840654903236057,23.021105487986418,15.823366538197705,6.256577942128846,9.57587768687519,7.856808755314743,-0.5845454103383689,2.7396683063027822,6.6701601975001426,-0.999097053557739,-1.3170251513581757,6.111540431121854,0.899005603870763,-5.932290337837137,-0.6033303152823355,-1.2100456250358427,-8.830263380681787,-3.836933259560473,2.5127577723376886,-3.674585517614689,-3.631351320431621,4.565311415257506,0.9517463461352902,-3.872638627957732,3.4022655512979245,3.8889204360975205,-3.099391201808795,3.287069182004147,11.872062785201457,8.25599221824412,10.345547880391878,19.101365279172818,15.259073079635243,10.669698942304178,18.502969735075148,19.59657323514065,13.458462698707777,20.830980826140458,30.50441343761279,28.02309453611636,30.614310111224693,38.69551424799979,33.282889577926824,26.593336509047884,32.108139342181666,30.937420434638824,21.959813088301686,25.47061857951121,30.254248714644785,20.17919311844054,11.273336680810212,6.085386920943151,-10.359105324606583,-21.264807136044208,-11.272008604805627,-3.330716493158447,-4.704427423940987,1.8781845110716664,7.470170242363065,2.2071001902545353,5.155101621385498,14.798205281960524,9.469269844263351,1.2373698404305613,5.866180870960577,5.740074828790414,-1.5562265560300368,1.995076826682828,5.283542818429778,-3.3428049062916334,-4.00288738450687,3.556860635173903,-2.278276704678073,-10.549543993893364,-6.450836969453517,-7.665359983681248,-15.135268067996998,-9.49459644405447,-2.085796667892332,-5.624147842801081,-1.7092498192739072,9.124762682078215,6.020539942473087,0.06049909959156108,5.08581251670036,3.5239200734721337,-5.159321049644497,-1.5355082340366362,3.869398873501922,-1.3137396069890928,0.945023560251774,10.119690972596098,5.023272847135347,-3.2977437613953358,0.09188191906612708,-1.6020046028661201,-8.722261297328714,-2.134939029484525,6.049549362288289,1.7590924480346102,2.8371408486052094,10.371071628857676,5.345434304881771,-1.3257634828625922,3.0976339048952855,0.6074782521238298,-8.79369624581346,-4.7555674843366855,1.8259548655492377,-3.020160790944376,-2.562432406153932,2.9836850774002555,-4.334792456689705,-10.546246524209216,-2.4721573100835355,-0.5610941882223557,-6.914293240298781,-2.556820665103191,2.034531237706753,-4.198223135216029,-2.702520327870948,3.367550649264774,-14.70241174951204,-52.72748760296511,-83.40359024292205,-101.53327171685675,-107.56049654154555,-89.81243219201983,-62.2617931361595,-59.19004616016005,-72.11417405193664,-64.91784146767961,-38.974384717401406,-17.81490674448058,-3.5425953447705965,5.322780779054987,-2.6579349758070676,-16.709169932720567,-9.234103710468197,13.848942712946073,34.90776309531235,55.719631848918155,67.83830996461079,61.3812171836271,45.86642229677896,30.017154896598363,24.235161816566144,34.633817034298936,40.51272136992035,30.95203835112365,26.315709496155197,28.1194223528812,20.596081101996006,15.974641114324108,22.500629926600595,19.41817414862154,9.599790574999458,14.087841097259384,18.10922301386694,7.269811638751796,3.001822177232474,7.697725256180615,0.8603873428348989,-11.153880098329925,-21.877328272242362,-40.351990270863034,-50.761252851802865,-40.56820360252699,-29.707453971844856,-24.749462674672245,-20.00777421888743,-25.75240894608972,-35.750217251324955,-30.928195039223912,-24.048595888578802,-28.21328852939109,-26.01715251683453,-17.795012493098955,-22.55930150363956,-26.91098525986362,-6.2368095798254,36.19112490119313,83.60646921928402,119.3309099139525,127.18837955331028,101.34899977264857,63.32695919467466,51.30860984396047,65.78553605002733,69.21815407866328,56.247022811053824,49.21088448285715,42.69957705343509,30.634448582034665,30.419557649468366,34.76989937648515,22.57690182002038,10.773534183225102,14.038189397957886,10.144237934491166,-3.3330019443546233,-5.155081190666602,-5.20455560036201,-16.599294128420524,-21.540003014656463,-19.22427980629827,-27.172206683092703,-33.094306175463295,-26.71268925918571,-28.821753595503043,-38.789940925818236,-35.43952680121808,-29.691702168495304,-37.66874728999658,-51.094485895461204,-74.9851121981151,-117.78449902875424,-151.4225838871962,-152.77184919077493,-140.50885275781212,-129.06627114321017,-114.83605795439567,-109.64142031016105,-115.50300910233977,-108.13171574151481,-90.78803163822258,-88.54603994998584,-91.69438327166422,-85.49768905426923,-84.65066910532468,-87.36772799294965,-76.46569572157688,-66.40635776764591,-69.22166235786656,-64.45876706561147,-51.925812325215745,-51.03702076230361,-49.65801978008492,-36.865581259864385,-33.355491580193835,-38.55625141579262,-30.97455112198508,-20.23217170576626,-16.49419155711016,-0.552801265259423,25.052169535805838,39.28786827642999,54.84080147518451,83.27310674609548,101.79111152860361,105.83243716440275,111.72596553569144,108.5303242627807,89.70434482165255,80.63095152803561,83.02672753842204,74.47664211090526,63.246377473709785,60.7032804049359,50.26029702951827,34.489018826692785,32.03688558450861,29.052440750844962,13.972938175375756,8.451701905438995,13.498804137762885,8.246740478496552,1.9678760192138216,4.788631714217381,-0.9057516253514533,-11.52372261772638,-7.308802834378046,-2.106142829029289,-9.086891631858709,-9.912901927587594,-5.0989553598019075,-13.612430203554942,-23.221966836260417,-21.31119633435433,-25.684936741105403,-35.44676525427613,-31.965271238637314,-28.01208632970713,-35.178467187427486,-33.76829366684136,-24.459835780739223,-27.85140823078523,-33.07721349302852,-27.974494582865816,-29.713704250184833,-36.15299101326238,-28.581481312874566,-21.114305640774887,-26.82957936718379,-26.74004371088721,-20.404124057401596,-25.6108609678178,-30.035314708267048,-22.974552909952486,-23.439614230475115,-29.492585507887053,-21.45237383647464,-12.483828006707377,-15.429615557134817,-12.117795778209754,-3.6553018481036794,-8.38775173286208,-13.043822688173657,-6.367404780144999,-7.859665769649285,-15.824427474817586,-10.439231372875565,-4.428958901811303,-9.585099988070574,-7.13657052821741,1.672674471585852,-1.3305969060016993,-2.7698218774815397,7.804284130131806,9.682925179274115,3.5614624803150474,9.101588861538183,14.971606630695703,10.944063556539113,15.753559692524444,26.98898765988156,24.87943964908992,21.97444834139866,30.000916999410336,29.90343361788745,22.820163469614783,28.450753099394024,35.10177649924667,31.725322663853515,36.670955205154634,47.47187190924468,44.49423374755969,40.71587565559512,47.9382633735071,46.966001482175784,38.66763081912457,42.00944606149331,44.75122583067362,36.19202797768229,36.04678867188619,43.33422973467928,38.522478694041155,33.581503123290744,39.65252469399813,37.46481520626912,28.333326514668222,31.47628122520471,33.65867818045889,23.152554274777888,19.443689057008857,21.869067569585063,12.43049588428829,4.559410544822131,8.862443542238111,5.491934082311481,-3.6110803632587207,0.45419182542687775,0.8093316649110881,-27.807010158637578,-78.62279387596283,-130.2870055791359,-164.58401213837556,-168.5174888661403,-140.45954442523194,-103.81539822784006,-94.60470749892536,-108.81518049356896,-108.23285075590552,-90.68122211546437,-79.89911984219555,-70.645465613086,-58.09596396202146,-58.72540906847409,-62.15055999866157,-46.77519464998687,-30.7814387625235,-28.50780835935312,-18.315671830123424,-0.5923572439366902,2.947087696572218,4.118107721637736,16.076472543554896,20.797202664035282,18.869578693207398,27.884594859856932,35.11579819760571,31.630122910156963,38.46402004538456,53.198234126998344,54.63613529369104,54.64320041788649,64.39056857739544,65.31312302014797,60.43018910896356,69.85204925607638,80.36128358241814,79.7719401982124,86.14657007235235,96.76315742666087,92.62925353049776,88.13302677619045,95.36148182706398,95.13119190238729,88.94917151920114,95.05268558340885,99.77217994947878,92.7248823028161,98.00787178906022,124.52510721927817,157.19588296701403,196.3727118751732,235.1816896351772,241.73795787678853,216.4016689380967,194.01860691406804,181.5933057694001,171.93468754405234,173.29071394853892,174.61724535335867,157.959544395918,142.24540004980952,141.0777948272108,133.8634785976472,119.75221892118562,115.99762207901435,111.38577363767703,97.99390418747289,94.28093079499914,95.4252913233264,82.46711293676208,71.26844463209703,73.6017064662827,68.16961816532823,55.15548317429935,53.43437549919358,51.101686414619635,39.161045594222585,37.422170854181395,42.480494333538246,33.79658193198635,23.807816778571762,23.522519328401636,15.254388492891039,2.86019433980443,4.825742652423422,6.080135719007807,-4.972119716596156,-9.19161974337427,-8.352556464408575,-19.527080677393926,-28.086432927083067,-24.484482246680265,-29.751531153590662,-42.188034680983684,-42.75200854415249,-43.79415634755347,-53.986982911319934,-53.338894658662,-45.99885017737243,-52.58207849766153,-59.93689777233382,-57.44660435476608,-63.61296010141074,-74.17459190182562,-69.80734394530455,-65.25942717915127,-72.0983889951927,-71.74788676236356,-67.17390598549623,-76.02024495242416,-83.07030585749713,-77.95564473794624,-81.30920423976008,-91.4537960419041,-89.53046171160958,-88.00842787021725,-95.77389757615484,-92.71995415273477,-82.62808081840681,-86.5250222642204,-91.7426933676037,-87.25603497389592,-91.19687732633005,-99.59218515032546,-93.39226406433335,-87.2809983037354,-92.457527363084,-89.37591781363759,-80.51215244343445,-84.82506769577427,-88.76670669663167,-82.43757469415503,-85.5299474337174,-94.01549678181219,-87.94101478936915,-82.01607623492212,-87.77777790455104,-85.92792353584942,-79.30745688679472,-86.03817368458502,-90.71995263774106,-82.46742988340417,-81.64190939682427,-86.3693764413429,-78.64918136469578,-73.05803878654092,-79.79343548367439,-78.66822081582752,-71.52039745860144,-75.74927543426674,-77.46724526136818,-67.87177286478004,-67.24611972654668,-73.11945315854877,-67.49898878212059,-63.40548867868131,-69.07878124024488,-64.70327803191314,-53.711856534777134,-54.94737598206179,-55.50000966253824,-46.24171339015025,-46.32276485977416,-52.686149725120174,-47.457255523064305,-44.46581726882742,-52.24919074981656,-49.44490481137683,-38.46368934964693,-39.060608919008644,-39.216190706128685,-30.617339435709297,-32.775473192693326,-40.46055080437043,-33.35066585611688,-25.944935939515915,-29.38385890945387,-24.52716876192425,-14.554517269056547,-18.093575383494247,-20.867270466536148,-13.104696828279543,-15.096611221802846,-23.69133599019654,-19.23152672831698,-14.645372342599106,-19.321373506718523,-14.070470270961126,-3.3681201061178134,-6.8561727838244995,-10.34458353951976,-3.195495420918264,-4.240021425609993,-10.009566103822426,-2.8022775081268447,2.3177786192875214,-3.4922373159799234,1.1779746266583544,13.188632685643546,12.833709297939453,12.652662748830643,20.83246894993623,17.889542075516403,8.777011881342172,12.958956910682698,16.649519796066517,10.713306870491149,14.402555312747632,23.284934896816875,18.818709571130526,15.445354063941547,22.340394494065933,20.35786209847224,14.118204986602159,21.308703319127712,26.200508264902172,19.618927446222354,22.080322706403162,30.12731192242069,25.838549866973853,23.999089558433106,33.199117200847965,32.7851258741718,26.39489549752154,32.40156281267635,36.11564087938843,28.255743412765533,29.22126531852473,35.99937944138743,30.036561039269685,25.0475503924568,30.336424759903714,27.15816595050528,20.671059285704903,29.448744942575573,37.14104709520087,32.162158181351465,33.83863990157665,40.34565007082227,35.59085725054281,34.018299081677284,43.24567303160758,42.226065498862695,34.52048654807707,39.474621813559025,43.68809828081726,37.658462009344056,40.700081809675666,49.47664865799727,45.64016197479724,42.354452638555955,47.92437249184606,43.35999079150957,34.08581025252057,39.364185596800596,44.35757621990143,38.600897036251254,40.80597351360295,47.46965516545903,41.635651943347,38.24110442482786,45.49685039664144,42.78953761072348,34.22443900914204,38.59318869626831,41.24411647294486,32.71902139761768,32.365736626180315,35.789843552836906,25.648132045397418,18.194412113035064,22.78586362584793,19.33046469953377,12.022806786615135,18.665164467890342,23.67598742404671,17.691398425433647,20.637683178297898,28.625099756169988,23.88668338226493,21.387422019162248,29.03409575367283,25.527611154248607,15.119166482075148,17.49583625896627,19.544085051412047,12.5090423547576,14.668950486321204,20.785601528878853,13.01156900914297,6.809043901590813,11.87982172919061,9.019684785956063,1.9311292939195086,7.4695760239676785,10.403698570050512,2.4471973557206037,4.189168632992009,12.17959968948565,8.849504358448238,8.162970820910422,16.50259780830432,12.4930581927809,1.551478934167363,4.236589188011469,7.498093950479758,2.2459756693425157,6.394066929012109,13.918840834323282,6.17886299904097,-0.9645562181682583,2.977159768169184,-1.1994090805426998,-9.552664635471592,-4.173197839637168,0.5354987127066907,-3.7431084352494937,2.9566519277774366,17.147755779103967,22.334479114785836,33.80398304273234,58.95519210180838,75.58685105241759,85.80752775293354,106.46756965685975,121.49009669976556,120.25587945167017,120.81926942565893,118.41365758643764,98.19164989371636,80.22057137201503,75.6816097783646,64.02116055075368,47.364324810103575,42.36715499892629,36.01255289241434,21.59393672686393,17.806003618579492,18.588552509117616,5.926312844867112,-4.808235370419006,-4.489459966535072,-12.669628271429342,-25.803580785338514,-26.705066790422915,-29.144505174968074,-40.274090608571115,-40.90911742221884,-37.44172578926058,-48.760596017026465,-58.90404173231483,-57.48648387948629,-63.93024463345928,-75.00901999133976,-73.83293291908431,-74.62700048364778,-84.12232846218433,-81.65645920184566,-72.6691848903333,-76.91017888800445,-80.84969953959543,-75.61379040139943,-79.37189056984683,-86.94813530550427,-80.66914895994731,-75.32114584334028,-79.7644835771019,-75.15386660143395,-66.41956803270173,-71.24242732376213,-73.78531338408736,-64.53221441487577,-63.94139257628615,-69.44612547690949,-64.47950143618252,-63.37174818511203,-72.17602443594186,-69.3207948948594,-59.419021388759,-61.30955502753488,-62.02197028832056,-54.729831639595545,-57.90277409960206,-64.28586140929264,-55.53293944886246,-47.59757675854617,-49.82650630387974,-44.21936558565281,-36.16879613103779,-40.83628733513156,-40.9667193826641,-29.588899106138022,-28.285283184921163,-32.84253870036941,-26.09129923775715,-22.58836838193536,-28.791135631372534,-24.262934636739196,-14.470644294959694,-17.477429042107183,-18.082496482628358,-8.719339396064383,-9.826643211004546,-16.01989220994167,-9.010423679095323,-3.675802015943841,-8.0157483730895,-2.8769182307332404,6.391440330598666,2.702990332488932,1.9066544080778591,12.874837688266126,15.624208873714963,12.607276233682507,19.483963888938433,22.111272421298633,14.47759096067579,17.489446565210336,26.53708562225371,22.99831537961054,19.967687429729324,25.145885211837406,20.772725506468145,13.137643805636156,19.003794238273258,22.439503662645585,15.493065159025365,17.22545852687108,22.40742521386825,15.088211148300449,11.495434095654396,18.76514690066227,16.279437637247263,8.100119544124658,10.158754733746683,7.9137431859299046,-3.183993239488868,-1.2296896273923865,7.67908433556157,3.605230485209115,0.04421508988800249,4.148662230947739,-2.504873446120051,-11.761747320513438,-5.557979604499042,-1.057831474119312,-6.969883352179713,-3.763156299686161,3.0232293128834504,-3.2516284196590726,-6.146121098625896,1.636114777829508,-0.2229125895663464,-5.994417878261445,1.0131122719265386,4.241212628719923,-3.4330627961748283,-1.4359596951478042,4.919228173999292,-1.1167471002585696,-3.3475413694662457,5.185863614325029,3.797773475033157,-2.1100218048842097,3.995151256925487,5.9815601100877185,-2.2477656032970845,0.5381076844140913,9.05275988076263,6.0718964618755225,6.4672498994509295,16.290777032054788,15.395379710553033,9.893471769122336,16.87796480934792,20.656357291002493,14.724409093133858,20.101747763120873,31.91364792252378,32.46260371730394,35.42443145935899,45.852310232300624,43.221385078187495,35.27494383840947,41.75012454831444,47.180568631377334,43.0555437730166,48.505817162866265,57.77266166439428,54.26414035876287,54.07935239267393,63.3558186348604,61.02480795177931,53.170466141000276,57.54262682927357,58.93311664268683,50.70947728921523,52.95617128789618,60.097227409181826,54.85519460551028,52.072517536329585,58.0721078819446,52.93565562161438,43.42660925867301,47.27771758054578,48.48284516183156,40.83016387642241,45.709577236843955,56.11550703327009,52.32673029289134,48.64327155951631,51.61869229388272,43.08622677355664,32.78130215191022,38.6681186213136,42.06365741681212,34.03057172034694,35.074414447981496,40.39621832713835,33.78681995540123,31.115922599101506,37.68826191166109,32.07857587794011,21.48329603290191,24.700632649576125,25.89541467368263,17.733616057650234,19.864994080269884,25.841149173540124,18.979251468050787,15.997820441676659,23.801844779078415,21.093308238364813,12.273499951713422,13.87345840558777,11.012539055004371,-0.8227086861173207,0.6451487477855338,9.192107735499771,5.60632288038932,3.4200898824692265,7.892769353643046,-0.019764357720171155,-11.273413938051155,-7.6354981339578325,-5.604940256673762,-12.387268537976519,-8.874269500494282,-1.822746921885955,-7.06230319908426,-7.9767849190324345,0.6694963256338005,-2.8817804620754734,-12.981640712082992,-11.859961739006565,-13.291494958374301,-22.09056592483941,-18.865101864577063,-12.112003116157137,-19.679174162641555,-24.614036724321533,-19.247183088188777,-22.802045134370736,-28.883131786425412,-22.22411929409398,-20.12057288933524,-28.233391494208657,-25.688848121048046,-19.173947875139383,-25.31885584155721,-27.787650784068294,-21.097272139207643,-25.53500619719308,-33.63060782410995,-28.61263958904562,-27.293717161576016,-35.889354526909955,-33.990387810191834,-27.80950502968765,-33.674933570833836,-35.4978818949387,-27.597470516840716,-30.284196861229024,-36.30301425737628,-28.500168745855827,-23.97601996598219,-29.764326027103866,-25.48229176035244,-17.436030538653686,-21.756156661791728,-21.490050516568296,-11.75651308812919,-14.610489599627332,-23.13831296096877,-19.70040939620016,-19.70685268333213,-27.75738161015602,-23.723503356721345,-16.35742733556802,-23.372925560099524,-27.95447444032099,-23.022431390040218,-27.180103871635595,-32.96849743712149,-25.3247589380028,-22.433352602318582,-30.633527285815784,-29.334567265530513,-24.379726009244738,-31.19858943272682,-33.51806797755515,-26.145854243765598,-29.13307291035061,-35.54801387211993,-29.39246843127356,-27.164247176786397,-34.57196788316162,-31.15986655575112,-23.099413779319065,-26.850677385160882,-27.371808364187263,-20.570605917791838,-26.52312854834152,-36.03866249349712,-30.981941916467136,-27.86356608702247,-33.3564488967455,-28.803693447095696,-21.852886337446428,-27.411262568722968,-27.86238570712702,-18.923757715332762,-22.219035724530862,-30.318246697909597,-25.918233190929435,-24.289269934388017,-29.824425230729677,-23.038498167797982,-13.085897335093769,-17.165450721027785,-18.301195554013628,-10.761595658536557,-14.636316729751286,-22.1754023700412,-16.839386613984704,-15.331995890190132,-22.759092100981913,-18.42584564608913,-9.56175294851953,-12.721157061373493,-11.921792059018491,-2.9990380324449397,-6.836425095539861,-15.239605805609614,-10.591219935795769,-8.760850549307172,-15.099345833092478,-10.191547779583367,-2.316018365696192,-7.867161688933004,-9.726164299615071,-2.4432102248788587,-6.121930223866728,-12.62282455345903,-5.537616804333632,-2.28239005478163,-8.347323558007385,-3.635245113374006,4.067298912699227,-0.8183824699607025,-1.3448481324083916,6.622161771928646,2.957058026441162,-4.259252121816159,0.2027331592494277,-0.21580152397560337,-8.772523397669822,-4.286951695636908,5.893342037157984,4.783507858316921,6.327567744866634,13.661271704595947,7.695691027271948,-1.501297930812163,3.7357384017909374,6.618150821707004,1.0440298281196934,6.304832568256302,14.952072058416574,11.3917942381252,11.482113948750634,18.597396541621908,12.602527834828038,2.7752841489498206,6.706884296366615,8.593797921562345,3.0610424730601595,8.401772896427241,15.802245396766178,10.015454628906895,8.980349859777197,17.591278309767038,14.825816085076077,7.920214110130443,12.982115791575566,14.010489349179608,7.203221915323141,12.596267540398427,21.487291442878615,17.593572352036986,17.590217400179075,25.88857920628066,22.29105450669873,14.786168346943079,19.11282068589833,18.60159899718338,9.934122890948313,14.065623693781173,21.617063807402978,15.654012374493714,13.417322026110746,19.576659616238487,15.029913841288707,9.315424331357303,17.274449029906695,20.062666841500416,12.717156970023387,15.840674532023302,22.17555448324215,16.704700113207373,16.329467214864533,24.921910389202054,22.15148646611935,16.216518237164948,22.098697498673527,22.319760525823355,13.442377453614636,16.063846342344164,21.419479794453423,14.018597073347827,11.526253247839772,18.62181580189343,16.361371993832233,14.610150473787161,29.12437165482961,42.95320068394404,52.99671009673074,78.41073842556969,107.60955276177603,122.04307435432933,135.9072208300134,151.14859344841955,147.63864629117123,134.79937523204774,129.9803030359286,119.80325593489414,102.8364593104321,98.56084711844625,97.7713665953086,84.83893986477491,76.29380342444284,76.29746851740124,64.91476870361598,49.79015196579461,46.087060994149795,38.206671228064266,23.726610682079254,21.336101992374957,19.57851390404602,2.7879325226094007,-9.280753554531078,-10.414261920138507,-20.251402614608427,-31.330531857343143,-29.97379990589554,-33.951179047877474,-46.2520359885436,-46.08488296781952,-43.065671183361545,-54.23190189038041,-61.77490300484257,-59.19199703979773,-65.2262287051537,-72.83761878940132,-69.52251962914504,-73.28843325375138,-86.39946560180627,-87.13519859773766,-82.68377173096862,-87.89760041373067,-87.59366450398132,-79.95930649897507,-84.67880288613675,-92.60713861378463,-88.97023066059741,-89.80807131413985,-96.38260546389215,-88.77498477141393,-77.9001809545318,-80.2375489100501,-79.18178470752268,-71.08737324256583,-74.02243235588969,-77.53289572951469,-67.99764838121158,-65.0020602335804,-72.38567950418508,-69.29233641278131,-63.22858558703943,-67.87225917691282,-65.88121160417234,-55.24857906849492,-56.9631307594846,-61.29454953869839,-52.536325047041146,-48.48049099499412,-52.73713684820673,-45.88721428089245,-37.672055099775875,-41.669416099992404,-39.10852247183871,-28.378522110592193,-31.0257706384385,-36.78956454377999,-29.261985853483623,-25.685841378503337,-30.223169640598016,-24.740969930856473,-19.46240382010218,-27.4403274671386,-28.019981940289618,-17.499284134840217,-18.15992274805921,-22.380172907436357,-14.827074535853423,-11.84402651286185,-15.963688110137117,-7.81991953672029,1.9559036821914995,-1.6674230306068418,0.07287775321524959,10.750583146125088,9.639195244957058,5.029196872791237,10.706886522428839,9.23298462983006,-1.0812366626227048,0.6480791721854819,5.629801899551835,-0.513837581547596,-0.8307750791089359,6.545062085281785,1.0276022398919453,-7.746377149706246,-4.1591159082312545,-4.544402819167504,-10.75624021965152,-3.4065831655779437,6.100262209047507,2.060430812728058,2.279631252035051,10.013349744286582,6.428967183535665,1.88408295350689,10.211007708808076,13.10684110905872,8.192555085954492,15.604040506821956,25.621228710779146,23.382883423823195,26.064347505616706,35.7661053057237,32.20346765236033,25.193640850590054,29.15008218824325,26.35435987814141,15.862322608600184,19.21237504358613,26.453386136700757,22.589290831217173,24.92449569126711,34.89698231937365,32.53131186482851,28.33364197904296,35.27952754301437,33.9942829934865,23.383053985436703,25.318608867402,31.099294666907696,27.194583531131272,30.15631474234771,39.42100674256197,34.50427329784846,26.997011816852005,31.91174201453141,32.07976802249368,26.206232523334155,33.24549748330232,42.275689914671744,39.70647756701245,43.08226953722957,53.38147199442953,50.89201934378548,46.38295348483982,53.96285285074477,55.82638714041494,50.313906192500085,56.84730795003857,64.71108940242327,60.448192592944444,62.66420754356424,72.66567171230415,69.30875766120148,61.81058836923062,64.04150748339313,59.31656548108212,48.16299432945472,52.19923532055166,60.84891423993007,58.460405294809334,61.22884389134026,69.61072823405158,63.87173069792829,55.66489715059014,59.53431118005467,57.67952160813181,49.08086204298345,53.4489657983579,59.91075591556124,55.10078276482959,56.89367425874757,65.54161982346739,60.7315497314844,53.20660228070952,56.52694883484355,52.807103014140445,41.79006840494897,44.15620376537418,48.734274572298446,40.90997178035297,38.79751235186619,43.85228441853921,36.559432085892155,28.666970551710673,33.77314478751965,32.056961199307764,21.462706952446894,22.572108072671483,25.530289704874924,17.376233723103944,16.788786758475073,24.189469381683764,18.24162477461833,9.676087180269986,12.678040417542412,8.938846446137692,-2.3441814218853794,-0.9691995257150956,1.9275343063122512,-6.452135848187732,-6.683542807706626,1.5569794562416805,-3.214852057421852,-11.005686183946585,-8.733062417440255,-13.916585763623964,-25.567722692465278,-23.115056551427763,-18.12879024455054,-23.948037738928196,-22.32961918986055,-13.482288943970307,-17.547179696787722,-23.10709732368401,-17.449347307916934,-19.48264084017906,-29.636841499862857,-28.192737365740804,-26.154813238953537,-35.6077739889822,-37.21624767542125,-30.354791125126997,-35.1713987831418,-40.58820060806772,-34.06854119862882,-35.238403008652504,-44.823220319535245,-42.37223611362556,-38.26282961921144,-44.34099280292726,-42.33156240906694,-33.375274149203605,-37.919900234665114,-44.362171461366884,-38.85669247888039,-39.080820306087666,-46.139486445150716,-41.665919239238185,-37.068643249013164,-44.67043227444324,-45.39153109757655,-37.70883141734934,-40.86202794081407,-44.7553973522548,-37.69619250944477,-38.727643225337275,-48.35381266476427,-45.64087078662642,-40.03192997225437,-44.04162447599517,-40.65607308195355,-31.456545422186693,-36.5932739270659,-43.337693930268536,-37.80311878404156,-38.466708394848226,-45.3689807474606,-39.34059370344082,-33.18344960377255,-40.07075092837301,-40.793343264248875,-34.21833322753098,-38.7195576300074,-41.90847363431483,-32.428024455743,-31.566249410915287,-40.15135896363166,-37.151685549516294,-32.44976734798183,-37.815356221580295,-35.14861727222821,-25.443663000603223,-28.58402663403445,-32.79244235627693,-25.434226550701435,-24.84849158150482,-31.05494392203927,-25.463043851859187,-20.26205047162601,-27.497250111067896,-27.94625478123137,-21.10254296244726,-25.8866474844818,-30.767267963634637,-24.173747545068487,-24.531896508894448,-30.299621863447726,-22.01008990017167,-13.027164035181027,-16.989311065415134,-15.835156298842254,-9.420754903840038,-15.211448888818607,-19.753430651701024,-11.717297208316074,-11.57549014279773,-19.159908949859535,-14.449155599573203,-8.463709842270653,-12.457007046573196,-8.735131650398682,-0.09214673821507091,-6.304813008024796,-13.524314612935582,-7.763480228931245,-7.366308486584956,-12.965343263395221,-6.958898717718505,-1.9849047563669198,-8.693520167557976,-6.502945040482832,3.977605456898096,2.0927518829831477,-1.0457040985405373,6.185897569910114,5.436612990491589,-1.7733435172568988,3.7875412849557475,8.938824949169108,1.2143345307528257,0.20253284173907193,6.14845442754862,0.4493698497241434,-4.355778503240416,2.565027568470354,1.3639328623916778,-6.375466139100497,-0.7369790701506682,5.654371596136277,0.8519799789600584,3.549065476921964,12.654321942117047,9.570649154075413,6.96730551690978,15.382695836875687,14.944359389653684,7.432600598655224,13.200957308163444,20.309760765600842,16.99607953964204,20.919001998148037,29.31309820636418,22.782084642754757,15.03795454907901,19.253882358755092,17.83483570775263,12.0202560206932,19.35386354541338,25.599255717652603,18.83808313670479,18.574338538191554,24.430110724726408,18.132442663529297,12.49717675990976,18.925226636312736,18.553210111511667,12.196229923765234,17.93883399763724,22.504094577953058,14.642433404116526,14.316495512236882,20.944411551014486,15.118752347873976,8.835522715844501,13.440855889444236,10.470098224613348,1.9240149001178195,7.038755605979298,12.447987855710727,6.168602751466028,7.540196752696221,15.627568611033965,11.438850645005319,7.379210852906116,13.962115831853286,11.724319742040326,2.6432667612876974,6.642326751365374,11.586457939008152,6.24504688241975,9.220141797698336,18.11659576312063,13.012272834823488,6.79112853931179,11.12213004158065,7.248061586650079,-2.365816725852861,1.7875833908970664,6.358962976210883,-0.08620782545138095,1.5192266351236283,9.500614189273739,5.689684652921061,3.4449611193482568,11.973949268255272,10.469769411334187,1.4828055189931835,5.16540324356562,9.565733143145694,4.647707474825824,8.256059692128057,16.243545435372177,10.00704130989336,4.387292780821793,10.117172768680874,6.9481500594274355,-2.5740367348769224,1.724143136788118,7.529571914930424,4.713269280328882,12.186948443373359,26.811813624885232,30.447828487156293,38.1366080457303,60.12775036050893,75.50368949535691,85.61249798292528,107.55110836941066,125.10604121833222,125.3101696547761,125.40215673701637,122.80386891768629,103.10218048502352,84.94465400049859,80.15634318204981,69.122031357835,53.823003087222524,52.038656795210414,50.071026643438614,37.00041353464224,31.334191851480757,31.015964477395922,18.323540224169655,7.853049547134823,10.103002709335566,4.269926032388099,-7.847892853084722,-7.4217139072121885,-8.532186400804372,-21.50787852530752,-25.57711356555552,-22.037058486080333,-29.45861590202843,-35.16637222294238,-31.01945653331252,-37.78696545379575,-50.91747995498713,-49.318144610897384,-46.841105348857255,-55.64807031056722,-58.14248751588994,-56.426250070504096,-65.87411935177565,-65.77106804841203,-33.7787656359263,9.697506989838011,40.517888101364925,58.04269524241879,53.81333746675069,21.2951746115994,-6.805375521550898,-4.15838852013337,2.55445051405913,-6.4353050791543325,-11.99912973493745,-13.148475838669464,-24.064601157703283,-30.760801233624118,-27.79951522316532,-37.056308129256365,-52.07357382381146,-49.97414734009588,-45.469978212505005,-52.76161741223092,-53.55757096465966,-47.82002376787716,-52.28557164346654,-55.40825741136625,-50.025782742823644,-54.64182549713767,-63.11155201764295,-56.37432881624039,-50.39276509733768,-56.493491317101814,-55.32310590743283,-49.05749784942999,-55.27803366685894,-64.16782470534865,-76.09917444664943,-113.25926116235736,-161.0897009091661,-180.60301379964181,-158.81435142048497,-108.3276292721611,-56.543706104020785,-30.013054441817097,-37.379024249595204,-63.88927611022387,-73.5918259918729,-52.510152569871046,-33.22028440030069,-33.56280989855229,-25.62758062891341,13.340094712041244,74.20732960801506,131.9761831114444,161.57162532347428,149.79341704033027,107.62699564633172,74.96888297390248,79.68715250061038,93.34082289379027,82.363438379295,63.956228600842806,54.5748402273634,40.6804543583942,28.64075732443555,31.228175776683678,26.91381345700418,8.904336236396023,3.861623504571461,8.290756568963085,-0.3929679591104511,-9.675811879095118,-8.918874265336768,-15.610647257612888,-26.130264926517377,-24.593995813177045,-25.64208300584034,-36.08470031863922,-35.73722509737598,-29.429481540676775,-34.8107846061804,-37.71633765932056,-31.338576928066885,-35.69994554353055,-45.475878074908024,-42.40537566934372,-41.01209310552327,-49.58660387121162,-48.446204078313556,-41.54476862136286,-46.45867819178919,-49.44126475455246,-43.374781700688416,-48.12043879460028,-58.068306362629585,-54.262504342382684,-50.87768167007064,-55.640854629542446,-48.83722522026394,-36.28117063382672,-37.325183783447734,-37.87249393653207,-29.180234679394438,-29.87714851894816,-34.43451403150954,-25.033585929521692,-17.47701292842274,-20.82149769446591,-14.849765716645376,-3.3709302532608687,-4.372098736984233,-3.6589064322072153,6.875341361607364,7.618057670591857,2.939025371260493,9.809307362723763,13.45375238968679,6.9893998759939855,11.009573175859515,20.968576451362363,18.786800160956528,18.122483269807354,26.393304427578954,24.877653025459377,19.18846708252817,25.983304089543946,29.608028346241966,23.122178764688506,27.02935396064947,36.114625505952624,32.4714570980215,30.395797652318112,36.95465791626687,33.340056135187666,26.326132874005566,33.40485767196865,38.42155882641497,33.39139376067935,37.80969053628095,45.92709478526257,40.62383338145729,37.577730253355355,44.05944975021666,40.27755479799736,32.02913459872044,36.76815547146898,39.48713521269562,33.213726949298845,36.96344875676728,44.00312597686897,37.01561134107121,31.881851730817313,36.58750613904506,32.646032862711266,26.162437238298093,33.6222556322458,38.78849188999314,33.60979906340478,37.134793410876206,43.45890530131381,35.751498623280995,30.52630368427355,35.89900405301583,32.30179176537369,25.03852856254919,30.517928423631993,32.88544367212057,25.207285073356047,27.316235709000825,33.289421374402906,26.103110959651236,21.596641890167945,27.222369870640517,23.774966217720337,17.10970351915641,23.136053700792104,25.343859214214604,17.400192042005045,20.056475093489937,27.470652508394018,22.25228431904597,19.11987091371362,24.16945388089834,18.494682988315404,9.259513700429093,13.123565880287762,13.702226805209387,4.312709351257453,5.580801069460597,12.317854533102134,7.986496552710429,7.034728129461499,13.48296206599981,7.312629910667859,-2.581947042261042,2.168067078239426,5.581019834727195,0.43405953062189484,5.1539054065193035,12.686363930179924,7.295430056780733,6.089230133791258,15.153455099870776,13.061456079215228,5.255476240832584,8.83515564754065,8.463117554407436,-1.3079047154064094,1.0298943754110854,9.421933653784434,5.516389876883647,3.4843419117353767,8.88300497695011,2.3560677707700517,-7.976176049168254,-4.058515044193836,-1.7248230723167264,-7.8331691918657995,-3.342165703849711,4.717672123276541,-0.28936141898641976,-2.875347884980778,2.650520152361654,-2.6761316226876546,-11.269370153265935,-6.810361996748771,-5.716517534826055,-14.160642344641172,-12.513384301426747,-7.1461920555612455,-13.868090723205142,-16.59287955806552,-16.99267285282509,-54.39802378132727,-129.6524236230458,-204.49229918935276,-263.29804702594447,-287.24457109510945,-252.93091272037793,-197.45885961667585,-173.57356663438088,-170.3806549770439,-162.27803048915752,-153.93674994673708,-140.7359462406268,-117.23907116234868,-105.97179137047834,-109.30709102958815,-99.30837544812991,-79.28733875345233,-69.32965009487961,-58.613749950975716,-42.592957649506204,-38.693514561630806,-38.656559917203765,-27.525165089916598,-21.37880039209702,-22.890526778617136,-11.118726793485681,4.523503749892345,5.946251203262971,10.006029568458821,23.12985425757329,25.260304140071298,23.17297324128867,32.95465507987207,38.44281825111641,34.9000222000975,42.86418286031039,55.106852655196704,54.644000158231265,56.79712643877705,66.91577568628612,65.82281358626244,60.793613025820434,67.33209088211079,69.28545863368934,62.56003807765869,68.13677725028481,79.00298934310248,78.02367465718179,79.41382074904863,87.03041198389224,82.29555062481538,75.11397023247102,82.08631358762138,85.86893365258373,80.64247975406268,85.45122233364387,92.3343453455243,85.81913583844477,82.86960821366264,88.60293933447258,83.73611642885504,76.66426789430835,82.79144198214982,84.30886520707149,76.1699222123116,79.04074622873009,85.6970825162473,80.31026093677625,79.11467200754254,86.1754743102333,81.62237283345667,73.97480646092176,78.6849848186498,78.03554167710644,67.20805406991482,66.92628634108942,70.54451028112621,63.412877751059895,61.94119091140442,69.181170161482,64.41480966511384,55.635199269575885,58.3414197913972,56.244142081551935,46.2017493164286,48.748926927124046,55.2394740439675,49.24957476762812,46.94994356149368,52.34609675967262,46.01595111039879,37.05271909327713,41.14232511351928,40.84168020522137,31.922958472158804,34.82771183130507,40.63845114250023,32.47717497528485,27.06068216468708,29.92737060963927,23.086663849234863,15.526550697973807,21.45464883892021,22.203070687090168,12.755044839599428,13.75540995066345,18.60686816686152,12.404846234086152,10.781012353113212,16.245142181862025,8.709587761774053,-2.0299216398847713,0.8273152035149738,1.0747023397578013,-5.6310376423750315,-1.4835263700709376,3.7274036836384576,-4.385082367700486,-7.893674469728403,-2.8650859955562114,-9.379475469504417,-19.167680100129832,-16.590756258654963,-17.390483543655694,-25.050788372329997,-21.203418638679935,-15.656142087296736,-22.8608693442152,-24.13667020316623,-15.234203312956502,-17.221376517918166,-23.31489194903428,-19.387059633078746,-21.52157520400575,-31.006884979879167,-26.924429164257788,-18.834107399182198,-22.484059305868954,-21.41963455527589,-13.525902545096312,-19.137581852085354,-28.50498654142097,-25.663348370817772,-27.11149372642891,-35.82922044863448,-32.10673627715941,-25.570267199650303,-31.631241067309297,-33.04409639769025,-26.86472521327206,-33.22238418574162,-42.37005402889956,-38.82969671313995,-39.913114227276225,-48.75349422869429,-45.19796813633067,-38.211352047292536,-43.212267078787704,-43.970652094936995,-37.654921352392634,-42.563422229595844,-45.837618360638004,-29.287643546624025,-10.324484892673066,5.467963837962811,34.57365854238436,63.31739345014576,72.94608974293388,78.82993890307276,84.23472345910879,71.95617586106624,54.886992854622015,50.11919981538492,40.72609914301441,22.67815879451322,14.974583240288487,9.647631626821298,-6.3018398806249944,-15.241094405734524,-14.495705986241058,-24.824430976465425,-38.14112403698609,-39.75710541804104,-45.91838352635373,-58.25225259162205,-56.990564026184714,-53.17458435717355,-62.47249040099582,-66.98057829626177,-63.13548933975305,-69.87678710221746,-77.42731757327526,-72.65933567453754,-74.65745834637995,-86.1166798372168,-86.71105916194352,-85.25726094110115,-94.19489532955343,-94.6571785714389,-85.3111695760528,-87.46801282539673,-92.38020242115196,-86.66843088011689,-87.33590754356706,-94.85725248009577,-88.85199009072015,-80.0033478923,-83.37771173057283,-81.87244675403105,-73.7172266237359,-78.43868992128131,-85.2030435708696,-79.03151129534237,-77.69153558536313,-84.11556090523518,-78.6447776463356,-70.57911344930162,-74.0267130590158,-72.04342055585579,-63.4070800785857,-68.10134295042818,-75.30129880459282,-69.46108320536207,-66.88008158492964,-70.02600246286575,-61.67114518327136,-52.96236671983483,-56.75804918844064,-54.3842691887386,-43.78882302014233,-44.700726192683234,-47.75417835326543,-39.869284162683456,-37.60530228163812,-41.4652333825306,-33.022449452671395,-23.46791454546046,-26.140209364936265,-23.625415976978214,-14.609759631308478,-18.277086814458027,-24.634304841762017,-19.78402239842743,-19.776712144266213,-25.224675299343758,-17.646253045215026,-8.929457167052787,-12.901564622944443,-11.060832856335377,-1.6021729687387292,-3.637683122544562,-6.24121631295529,3.5911587467441533,7.187881731765334,3.0104919951687537,9.932728379609145,16.770809176104144,11.076454290001985,12.122012302837819,21.036068817920274,17.730291673680334,12.670998024517623,19.052266470029537,19.61542205381201,14.536265190081295,22.978117500444373,32.90419093581052,30.380645465061704,32.36571394882026,38.5908758201706,30.421546261177614,21.20140354337777,25.959404353183906,27.143635954140038,22.4650769804624,28.06238819081378,31.51400221113474,21.802540557639375,19.629292920300983,27.009871102061034,23.636041559626854,17.985502014551553,22.009250156654584,18.67893665990196,8.771425673751192,12.644784013869007,19.425746107536032,15.538325066687896,18.0860344536675,26.764926506866743,22.56628601336416,18.31247393346356,27.69163939895889,31.61322546162026,28.02808449653291,35.137364837917474,42.21972235512382,38.09571787793435,41.73771237320571,52.69520998269142,50.069942415976,44.79410802134215,50.5402759947893,49.855289841927245,43.00987441181117,49.40507618349366,57.29594843488011,53.69777771242185,55.96108512542831,63.1750722193657,56.193935702186295,47.81510892724569,51.67568818219009,49.52720302464357,41.04080520478354,45.030866899739095,49.50663544508886,42.49967605964962,43.140039560505606,51.00759501746159,45.967878006841,39.34952474583966,43.93892738533559,42.04787908304086,33.85005283527913,38.22936753447096,43.16981275893116,35.577750587591424,34.53290431495833,41.918946822212014,38.76904901521472,35.515674058513426,43.49322419072487,43.52011006027654,35.79722357949128,40.86295518984827,47.955918613092074,43.69847209907996,45.19990242010724,52.62873689343647,47.60710805902032,42.482179728854945,49.81959907470642,50.15573210921416,42.8120985287355,47.65028874832624,53.56430650606606,47.94084644184173,48.75054735445685,55.47739530874789,49.09292517416799,42.38829074963318,47.987040264550934,46.41828281298019,37.738711365305804,41.84733475453382,47.01427830651399,40.9479331140619,41.99262155498365,49.25663073006437,43.65255097286703,37.54712963812247,42.885283528276794,40.70193387846168,31.19027593784881,33.67442644589163,36.96301592652492,29.31950002442857,29.02906212396978,35.457634378656934,29.078301652448097,21.330687050270242,24.499027178202134,21.138866428145327,12.649618633724089,17.731048214795543,23.14989883694894,15.705639744349039,13.569450387067391,17.30036558130271,9.654754553707,3.388769007890907,9.439225659279632,8.08585343705832,-0.20053879302372346,11.34858427065609,48.798797094380056,95.25336476873485,131.7848746232878,144.27465680774185,124.60462024328123,82.78782800388805,55.55430165173001,62.09605323363661,71.80433883253123,63.020357343199166,54.28833055694375,49.35347217468435,35.71583696913774,23.606197520727413,9.374890994875507,-33.43417163017393,-88.98408033774624,-118.2033270355181,-124.0017306079118,-120.70802336550794,-103.96877973185465,-89.42614740384698,-97.3967901531112,-107.14759454473909,-101.25987309016173,-99.55999492900686,-105.04343008510234,-100.87924787988916,-97.79287706704216,-103.25710193144175,-96.31068240866648,-80.8250757874322,-80.07451209873699,-82.3310475668131,-74.35422806432955,-73.90453413698866,-79.79813486830223,-73.19604693516423,-66.33490593331827,-71.21892966467706,-70.38577171054061,-64.30812194257928,-69.13746923262907,-71.11251187511597,-60.40417304900785,-57.786984154638226,-62.8688487907867,-56.960798181875475,-51.68527456330793,-57.061948350634765,-54.5220694304757,-45.964742236853354,-49.75022490995105,-53.29227388548785,-45.957086151093776,-46.50013622507088,-53.20817251373393,-46.89997354024812,-39.82250221021428,-43.62647780876777,-40.51201211513087,-32.42473255056299,-37.61330514124795,-42.1743815125818,-34.383281660668445,-33.46143091945331,-38.38592690542105,-31.20940665191938,-25.323211665141287,-31.43010433936608,-30.276529296903952,-22.771663143878413,-25.680044642724404,-25.6430476734955,-14.290080088280394,-12.749819111062793,-19.279643474672724,-14.572867949624388,-9.84336394958068,-14.148343817231115,-9.860667993964743,-1.0300224584603295,-5.64057130205213,-9.307694470499445,-1.5724624264722915,-2.280502604187708,-10.03371046194508,-6.430433393530699,-3.969458694728494,-11.906426500720722,-10.32797546433228,-1.8346426812866286,-5.893868798210368,-9.914277376793082,-3.837017413579322,-6.496036381369147,-14.579414485851233,-8.67720769350509,-2.0910601788498293,-6.214663880136167,-3.1268479193550935,4.953534604128503,0.8416336819234487,-1.490717002547908,7.505358852688298,7.749606253702292,1.0689692455345634,5.206304644550367,7.1685112715382155,-1.5973187780797464,-1.5314670843875966,4.578834745413201,-0.6905033105988689,-3.3903076986712364,5.537235269909196,5.792036764185555,-0.6722005862402227,4.182415164359062,7.235392565791019,-0.40945669917214467,1.3531481448861329,9.807600925719859,6.161956459047744,3.7851033922009285,12.583718443773103,13.022808291179736,7.2586762795244075,13.060577733204605,17.02017376387608,10.025187870726736,11.189100250100605,17.333525337520623,11.156338415133538,6.8740297623512205,13.786656457189263,12.866491596515779,6.9662551284510075,13.243044200661034,18.0196396292788,12.270566214226488,14.53965594303603,21.104456149581647,14.71095368986851,10.215181563657987,17.347807246739848,16.520906642428105,10.225329895119295,16.120600074964013,20.748645787716963,14.874872783620026,17.068572074963214,23.7363959694661,17.51928707022481,13.20421474852813,20.546668017279778,19.510106069117022,12.046041869450242,16.111380982743448,19.128762981281888,12.611860321743045,15.416736544803044,23.59143617943461,18.863973210084723,14.722459933343458,20.156109006505783,16.254234384269587,7.002745350818924,11.224169084446077,15.924501922250142,11.66232817093035,16.06460802371534,24.26854960611588,18.51932765698112,13.746860469271482,19.536385417450663,16.81985694108894,9.024267166855008,13.735948488654698,17.38608090613788,11.28483194578764,14.109872118624477,21.735105007928173,16.054777203990135,10.78357337925215,15.319809001590478,11.323601334682088,2.543025378864301,6.536460108495889,9.464053210987933,2.477541313331725,4.676318598307822,12.390350052496414,7.863770199243379,5.3190369116868474,13.92799159232312,14.234801505614248,8.897650825327228,14.016441778519894,14.96298308039787,5.164235164512385,7.238305553687979,19.066078718103952,22.34773842754776,28.990067761178082,46.3846307605008,57.37018819522726,68.13640758000273,94.44022813741691,116.7782161512564,120.8618242806096,123.65531240270234,124.07185803172501,109.45076143810566,96.7703762305462,94.37059009852891,82.83192775183707,67.58817733139789,66.7943773812447,65.2250083488538,53.15282133014418,48.59754000467456,47.3151269270715,33.46312396304615,22.10272861729154,20.27838177822805,8.554676906271997,-7.35288326198362,-9.618307649113143,-12.90076695910404,-25.0852259015455,-27.3100609019063,-24.180972295249845,-31.68030082248643,-35.801415276899135,-31.2118023068777,-37.851565743389884,-49.7373982165376,-48.05927646895928,-46.22045398952731,-52.692522359549955,-50.310467963450556,-44.994349886231106,-53.226770057238014,-58.67538073424137,-52.74321672532572,-55.64529527085181,-63.879953389937334,-60.354892685656964,-58.69244233897802,-65.5378459396267,-61.64272650431508,-53.314002877118924,-59.01431552829705,-63.94947879948265,-59.69275592806512,-64.61516266160855,-73.5556052033324,-70.6336780780585,-70.93479588660134,-80.04074471765102,-76.95043268644885,-66.92447305706108,-68.46054515249813,-68.82540776320734,-61.84365271240358,-65.31115085823158,-71.14945910430612,-61.55870446001421,-53.28818706920149,-56.07471085005165,-51.72117167181456,-44.7041248563823,-50.373338428612385,-52.877572719929205,-44.9116156983795,-46.44789173276886,-52.99943330265754,-47.44191926701802,-44.10484406751405,-50.41369482265546,-46.87134609806523,-37.54634808136438,-38.87766659283565,-37.28480683406655,-27.042190551711535,-27.730432511995037,-33.721614385922074,-27.028245951114734,-21.04438811485572,-23.161444068783073,-15.722701367215716,-5.188054381052557,-8.681629644922886,-10.837840672575323,-3.719907010340067,-5.951651682985797,-12.19339880674993,-6.362724135810846,-3.7232800141360163,-10.786303418313846,-7.345817375430466,1.920631497121469,-0.06496792393738415,-0.14711977826847444,7.225239329608372,3.9185779840147172,-2.385123888413104,5.9545726166072095,13.119650192437765,10.001605053625482,14.646769815019193,22.395342661741736,17.494787505482876,15.128121411529674,21.556965277386087,16.588398377193517,6.65819565612559,10.16746687581243,11.952098906266652,4.099957816698052,5.73300816996654,11.922298925988391,6.705195036285685,4.658439077907823,11.015349957271232,6.441233521979481,-1.7661470622441784,4.051161038562753,9.397948103022424,7.012954907371154,13.825403987128885,23.357244331602793,20.114867890921815,18.75280501919774,25.026093779447905,20.53777093831623,12.121608167337186,16.72806495738522,19.892834377373628,14.961481743932355,20.022148380552956,28.734626340169136,24.92313867213771,23.578148373751578,30.442728394477122,26.352222354385894,18.6573039887624,24.881998759009978,29.68276436967155,25.753543168475904,30.909722576699345,38.018798851342716,31.133832494672653,26.770933066790285,31.478784975286036,25.817872237011873,16.15754400305041,18.71160660451974,18.484455500152347,10.490860205317695,14.428290122590502,23.670249699352258,21.406199067495706,21.713974316456742,29.00672019862569,24.403646215678844,16.512004121965646,22.292960905960506,25.792710476452914,21.11679099953343,27.006988735906397,36.22522119095212,32.58967025200521,31.26558326032683,38.096056965084735,35.49330318056653,31.79645969221547,42.67115617180664,49.967148943402606,45.2488354894062,47.55698008785242,52.606559496444866,46.559250056865665,45.49932330654278,54.222170814734135,51.892968512880884,44.447750478719826,48.38584431394739,48.65131859579273,40.12852423997177,43.18073969010581,51.75132677149881,48.8217901123912,48.45592247029151,55.67702599006736,51.45204124646406,43.19343325213323,47.36515930141002,48.351602571343136,40.64567796307017,43.55515523829749,50.19091162934209,44.21592517532288,40.49417738935209,44.629708268291935,38.954941652074105,31.430259186718047,37.13083480420646,39.00406063313426,30.945426181625947,32.13688674945326,36.767499250510824,30.48894832465112,29.028474443396284,36.805092886286936,33.979259366893146,26.945081372293743,30.838026468544705,30.30344225167508,21.238676557945787,23.088493089288765,28.349867335274705,21.579803383752353,19.211128170198997,26.448794106171356,23.615174674385553,16.81453753731708,19.88899241597398,15.983584735642328,1.4205570213098166,-1.7015633890877213,1.4138371320884702,-4.488960016276019,-4.678223889477339,3.1033389752408262,-2.2068504404354403,-12.152421704984167,-9.171155828771287,-7.9157224919023665,-13.312542895034161,-8.414892549017228,-2.5212048795809077,-10.286213557677614,-14.429261177181516,-9.949256043131818,-16.022292799959004,-25.201746514903252,-22.283022261855706,-22.861534684687854,-30.840411707423325,-27.41416437895,-21.031133599909644,-26.69224834186619,-27.54816425657792,-19.389407862876737,-22.815381942733566,-30.884786320059835,-27.905542934366586,-29.533801875573022,-39.19583763459986,-36.41985236269074,-29.453705300427636,-34.74630519524313,-36.307252104751576,-30.117301953052284,-35.906854618588234,-44.474090430462226,-38.883298315306746,-35.74557164315574,-40.662768711034886,-35.61046356556604,-29.633091326421212,-37.523020038251076,-41.34486737908351,-36.30857556659394,-41.901721195661764,-49.38383815953456,-43.029108321363346,-39.67307405202395,-44.430034273407166,-39.2960555300632,-32.81757571204467,-39.01071290852357,-40.24763317193728,-32.5691957284389,-36.36852130787742,-43.80071167698408,-38.977853525255576,-37.58255704305205,-43.57069622976219,-38.61998654883852,-32.366535204578426,-40.05963564152715,-44.1265156841675,-39.40064463893715,-44.61534277238454,-51.84455283928844,-46.56415900663519,-45.10922028644808,-51.06506195336269,-45.222486897178655,-36.38065448926472,-40.04519233129816,-39.81279036701003,-31.32289678470161,-32.971293747246506,-36.17187513603539,-27.13656202315775,-23.97529041874459,-31.068018229608604,-28.469623380117817,-23.47993318114709,-30.12049798004579,-31.63484727411237,-24.989329085732642,-29.86318934081033,-37.1774200283709,-31.854346888411975,-30.985911731598875,-38.278608291705005,-34.15179164908826,-26.580866653517628,-29.510808727947584,-26.756466774044608,-16.89112333292404,-20.405168729591203,-27.34235478434161,-20.90156462463489,-17.09968856676889,-20.09401997881555,-12.223849352645816,-3.7852719451275463,-9.087949717377045,-9.283459933582794,-0.08810304328188545,-2.3215010856816294,-9.002188270162309,-5.433502577157212,-6.782163591534237,-14.738073342808987,-9.374134958927028,-0.08040596928510935,-2.9251453351794905,-2.220764349954149,5.617082968334822,2.4263146915250293,-2.4884901347392168,4.809866706306293,6.754329560178724,-0.009616578586999491,3.9466493341852695,10.11493054246604,4.983961164105331,5.938983854014474,15.159572275694828,12.42987497629715,6.671524858260838,11.998363409347785,11.261361523458314,2.1964656802076834,4.770715633647256,10.244981580679188,4.945622634846892,6.104682325034559,15.954322738739311,14.383187433839225,9.685588595787646,15.142736909546116,13.653693314648251,3.953110830377046,7.238693894130991,14.98969137683627,12.319439697474955,14.912647874852256,24.151881134304908,20.36601791700148,13.471219077623351,18.035906163682736,16.939027861421646,8.117637248939078,11.532492426086097,17.939024129639225,13.144785024664873,13.515202065994785,20.633025190369793,15.873067930283394,10.192077075620986,17.997128733534204,21.24213589760799,16.22761604263639,21.20915186439721,26.647628943310416,19.8906042973154,19.216802776839106,26.290836654082845,21.192853548089055,14.083762129930715,19.529522022751337,20.762376871077947,15.241699167661753,20.629939004894307,26.27501125229783,19.03130008385366,17.15096928009411,23.50303245828899,19.515576932548072,14.268677175626044,20.053769442274053,19.389553802877234,10.889498236059904,14.302074586900458,20.124117391209438,14.46988374438922,13.914120501522728,19.477297687608626,12.408769278208576,4.332611918342563,9.521240271287246,10.333827479494303,4.970110555491428,11.893502630154568,19.511290697577813,13.07872614624008,9.955348020278851,13.48028095150896,6.675398098499844,0.5012603681256109,7.39768241548844,7.574599928736216,-1.7357989082934626,0.25586646413128467,5.652675742608535,1.492803250523381,4.098672434259381,13.598776546108368,10.244071125723401,4.616786202357287,10.42120888272002,9.871076973032547,1.4682444650744122,5.241964404159263,11.738838814363447,7.4247765892394035,9.101739006450511,17.3428514723848,12.557190293457516,5.493535468552551,9.867180022241193,8.684070428438275,2.3802135952193364,12.519295044053003,30.30312373617172,41.36791918576975,59.70725218206272,83.77995254977907,93.79150134959221,100.08377143304959,115.30898967636288,120.67512504907928,113.23414785211179,111.50721317859791,107.06213472111011,89.65480822538902,78.46078481731516,75.39635191612172,61.99380258422232,48.464667452514135,47.09376560385487,40.19050118485064,26.392368548396277,23.678206307248008,21.20761003419963,6.413550078516236,-2.455615969243102,-3.170245328020609,-13.7413636547391,-23.840377454930408,-21.69424793322007,-25.286721535158698,-34.803993735271774,-31.530453942746753,-27.928908710566986,-38.083700706572756,-43.55067744416206,-41.67314886706503,-50.069318299160926,-57.85732937714586,-53.40524756063644,-55.97570400346458,-66.539892718401,-64.93952451565904,-61.45100419115161,-69.62259950536391,-71.92909202951381,-66.57575063807371,-71.90463503148644,-77.53738460425716,-71.36785847423616,-71.85086376489326,-79.62703250796449,-74.91184626309322,-68.5185281058682,-73.5798371165128,-72.59706709431865,-65.0075955835825,-68.75184364944631,-71.93854004061808,-62.80111346727979,-60.74611023085385,-67.1337765391132,-62.81955339425527,-57.26080050647166,-61.70734652190268,-59.07734468316639,-50.59717525183351,-55.85417877967562,-62.6230181396364,-55.775504945219026,-51.710336877824716,-52.62111316942169,-43.1698623509438,-36.66423800547123,-44.783895797588585,-46.27337083349501,-37.92228366444967,-38.64391093063661,-38.887173007759685,-27.911518573036208,-24.925976116916324,-30.266421021852484,-24.102378872222644,-16.756459018199426,-20.46107270282971,-17.641506841106125,-8.437733653725951,-11.686298871858547,-15.460185429740054,-6.891175367531569,-4.747527675198779,-10.367599443868928,-4.657593834401249,2.257955562177397,-1.3588892124217837,1.9317069256028363,10.99515503933122,6.554110786070387,1.4261779866662643,9.5008583213072,12.401685589174674,8.409889230366993,15.089360320480381,21.03268442014397,14.969525671233257,15.801773348395509,24.10898574283717,21.508817760436735,19.441862650525323,29.111012257468765,30.607981268270557,23.290046932777635,27.072085001829322,31.444914968742005,25.020801113890705,26.743641914172333,36.196657795884576,33.79405129717608,30.910942232933174,38.9190672403512,38.46036652945568,29.533318432582668,32.18181067038452,36.34199270954775,30.23537384436431,31.236610290296323,38.883415622054926,34.59503797936368,29.533461546174905,34.99740562251508,33.07949586761432,24.582408414621785,28.12822189025306,32.71883475063011,27.4920496773533,29.731929257637812,38.11617739150153,34.554936879847304,30.671081957730948,37.317806608013406,35.92137541423078,26.998354230994675,29.466896650715146,31.865340524969675,23.07072588460009,21.7170285698188,26.238810173185353,16.993178058623414,6.918561613172148,9.228162379615192,6.068509115240043,-1.6715678465931894,4.415485724900787,10.367323444265262,2.8982379965195046,1.2816304235763916,6.354729234803293,0.42594632467998617,-3.6332657001551825,4.716916348934679,4.599362650335223,-4.3775321031035315,-2.7915648044060686,-0.5347672833923725,-7.3974581719784425,-5.754190415984668,1.6090340538161003,-4.388615503920626,-10.080156061885818,-2.2372609904829375,0.5722399638929903,-3.279170150969392,2.086150585877929,4.552964603556967,-4.591243995495853,-4.4157996942717945,4.447086473567618,1.290886822178465,-4.023887093522091,-0.395341066189443,-5.399542053645544,-16.818126383514503,-14.754024094136696,-10.91393397242999,-16.182913789944113,-11.8781603664075,-0.32105547814004787,-1.5182328826342686,-3.534590310068018,4.81368200206826,5.320722693151202,-0.11698347342772664,7.390560407087472,15.126322970090584,10.917244794876535,13.009552653125233,21.2388449476256,18.006654400556847,16.08802237453565,26.22489173290529,28.230788226605846,22.110064269275462,27.07334230859886,32.2932607752511,27.53848100278506,30.891107256187794,39.86676779147573,35.53624264538872,33.445510281782,58.41163213770297,112.02327016147497,190.97922629290332,272.8676003829479,310.733560560777,291.3410193708108,245.71309695307497,204.28810047283233,187.71358380719926,196.99814832037043,207.1959241957967,212.02193445819452,223.67500614569695,227.7994345491896,210.62556687955686,184.93119566242268,156.55222764898573,131.34466198070504,126.14239683500713,127.72022597349027,109.46801923873676,84.51035432494501,70.58062622737467,55.51209515990037,39.869969385500376,35.67005396472236,28.420122695416715,11.301271289576903,4.786799716669467,5.08524451671733,-7.322333769313662,-18.887479784913126,-19.366511066059314,-29.376109235662284,-47.43884366724991,-52.94477839154989,-56.233163772327586,-67.58844936558106,-70.22018870804385,-67.94569560361644,-79.15153291505803,-90.37503962666685,-91.42134871765133,-100.84758086386603,-115.12334838805761,-115.16125216111264,-114.14173087055124,-122.5851300060042,-122.85554783608396,-118.75437344417114,-128.15667375667138,-136.1806404045717,-131.43999601568683,-132.6473458858166,-138.64749590007338,-133.3947387805066,-130.8405581159511,-139.6610651562358,-139.2093738020904,-131.0635043859951,-134.07188539524597,-137.19636013599666,-131.89555155448232,-136.007764742206,-144.5341180372617,-137.91927423786248,-130.42781944070123,-134.18057316492224,-131.59061885411575,-124.96234260021892,-130.57368906556212,-129.70629343278776,-98.14215064325558,-45.45775420799052,5.431568886754096,37.66982669993571,39.729631591136815,10.416109676794214,-26.35140042616169,-35.32628923265774,-21.584501817518216,-21.557097446489937,-35.421882752191586,-41.21699607979331,-46.78954918059495,-56.99180195480538,-54.729266973100465,-49.35895223865757,-59.75581247861584,-67.54082967342048,-62.206624395604436,-67.0008577795869,-80.37059373041099,-80.68188631053107,-78.73961344530164,-85.61214295509205,-84.97423239615323,-79.98101992257767,-86.65557740010718,-90.68494001364517,-84.122965917344,-86.99867671760595,-95.33701947785705,-90.43396746876117,-85.8559429887502,-90.81390032347144,-86.8374121162613,-78.0025794025876,-82.12575614775278,-85.5561168367047,-79.2248791253785,-81.45157054990516,-88.22226374314536,-81.6156669748193,-75.74394122908512,-80.5199845906474,-77.00589853914221,-67.84631588716915,-70.11403726069301,-69.89112458999894,-59.10781623781068,-58.44316284442427,-64.90136451394724,-59.750306429462434,-55.64805659411439,-60.79278491137517,-56.07867878748627,-46.2232818346951,-49.82638441526428,-52.15303205951021,-43.2438232638713,-42.250092329184426,-46.02091159156496,-37.811210224374754,-32.48330007035305,-38.02557952465429,-33.469631317462614,-22.28833074162948,-23.44315707674794,-23.906750629372745,-15.186918440887316,-29.59743399466065,-98.90915574153796,-219.04017766122942,-361.6655265258327,-476.11031780347537,-499.49098516515613,-430.3227234945915,-343.0997218862998,-292.306701243695,-277.7158716818383,-279.45048112721406,-265.3511196583493,-221.6490964866549,-180.8373998108752,-163.5718590467991,-147.02857802896915,-122.15085100044647,-100.75234771636029,-76.08759726021077,-48.39239583469013,-35.61550789725062,-26.805835093137773,-2.920277815112306,17.946187806864028,26.045308476768177,42.896320932242055,65.35938288299326,74.76409410274243,84.46085260099579,102.9175039109314,112.22213343133782,117.71569447579706,135.79306841374415,150.49870702117923,153.02123976482676,162.62078055914932,176.05347270071852,178.119222239114,184.46296462597923,201.8383875456033,208.3790425399116,207.26208820849635,216.4110339232041,222.93176300064079,220.1538225989356,227.66343529703414,239.96993093762748,238.11339674527497,236.26795509968815,243.9689797590756,243.6782500688975,240.40694707735807,249.76185213805,254.67715173380765,247.1091841713486,249.05786264071264,258.2139360863893,257.0496222472709,257.82337431479255,266.39506098055847,263.98765054179194,257.51512332717607,265.19441947386895,271.3238973324968,266.85599292515775,271.49303146354634,282.65206281338317,285.163960736465,292.77818453711393,309.438572774372,312.576515433293,306.208493670122,307.54767451605403,302.39231202209754,285.035445248815,276.54083953198017,272.5551821346738,256.5521911566151,243.01711594130364,238.18737922294497,222.85395157061353,203.7900776885504,198.9626511728006,193.1286597794873,178.3716657974027,173.39104614450832,172.70440561574293,159.84034501842254,149.23307815047286,147.12950274231662,134.82682556326935,118.81985201126135,116.04909660455105,110.80509350433577,95.13802020028663,88.45974390600983,86.53560955658057,73.28895049295707,63.63875677491509,64.18512362329342,54.37818765850014,38.66100853778569,34.43676131871354,27.789176091948107,12.249794503669278,7.928162517507131,9.640859478943836,-1.0070050515531612,-10.588522561843696,-11.40427915953343,-21.281471122482806,-34.88292719880434,-36.571648212207435,-41.49260414041068,-55.69666827807194,-58.80863725558664,-55.57908057403551,-63.26749530024682,-68.99262547221048,-66.96834248526949,-74.61462186324366,-84.4292921433423,-80.35572605601592,-79.0088938744586,-88.44006562641393,-90.11137198761236,-88.66245547602256,-98.27978529570159,-102.6933481858714,-96.31350652461984,-100.10631236205916,-109.01496472689753,-106.56649748381912,-107.73476639071592,-117.74310100940602,-116.27981028410298,-110.58634383911459,-117.96762138451645,-122.05087428537288,-116.13765725994836,-119.6894918859406,-126.18122300609392,-120.03396529203225,-117.88055915499382,-125.37245051921629,-121.83349538900595,-113.25421049326917,-116.85954745964992,-118.3251390427761,-111.78302851222824,-115.99822503257073,-123.80318071195491,-117.61926217827624,-112.50769281239292,-115.81706801741522,-109.01623858775645,-98.88541565798612,-102.51643251436332,-104.28034767891283,-97.79286737347547,-102.73517775020943,-112.48334559077212,-109.53889656954985,-108.20982695293698,-114.21443331618688,-108.64425566559777,-98.80722800799887,-101.75300539071739,-101.86578438637147,-92.63847457058515,-93.21259804237891,-97.11202207363252,-88.33981016734637,-82.97942336821411,-87.39198641962075,-82.47150951570916,-74.90944838400952,-80.75035932422898,-83.4753509433653,-76.21725995888984,-78.43189372874687,-84.15387456245087,-77.84578785331857,-75.77462538724049,-83.34972716961688,-79.88086072256336,-71.47825046460791,-74.70612283088157,-74.27165171706756,-64.88966150733717,-66.40942442807332,-72.5749031312034,-68.17340986470886,-68.3582775302054,-76.16091825451944,-70.99793878532951,-61.20041508964036,-65.03963490298818,-68.09830892579005,-64.02908600995463,-69.16825011592405,-74.36697874454362,-65.06794094810462,-60.039881620306915,-65.73509178474923,-61.91546298258943,-54.2458781433665,-57.77452842157961,-56.67858823808713,-46.374131932432135,-46.92299974444309,-51.210022635102206,-43.057097573916266,-38.031606669042986,-40.86692006390345,-32.109938662200875,-19.750359789019242,-20.672340841643916,-19.853334056150796,-12.386666217510665,-16.166505200607887,-22.164984931195697,-14.459484264143203,-9.805909307993236,-14.30565866113886,-9.360339360821623,-1.7477340226763154,-5.870476887878628,-5.271578067798629,4.226880050466386,2.3838763041745703,-3.2225489250523642,3.900997479998966,7.788683095245674,2.5152090023073224,6.663439699400656,13.29282720575382,7.885364882297084,7.151164625386391,15.611318616589173,12.938108790329483,6.071371842860715,10.363599933688127,9.510307739659758,-0.7855535322016625,-0.28915341791869964,4.6434397163950765,0.10519451601549301,2.2969423424920974,13.797014767660196,13.712685052076939,10.20414519146445,19.462823690421114,25.10919138482157,22.425477055906043,30.72595137623163,41.88204912822623,40.68159430464726,44.00956245119619,55.68561336528578,55.26572983741009,50.90281322372395,58.29331836924515,60.792832880712886,54.164117670080955,58.12897309768442,65.02234431581519,60.01623731223138,59.72632592679392,68.48156942828943,66.65214330486666,61.5148719829155,67.8567392412854,69.51472558659742,62.81799000237865,67.42043157957387,75.07209850747094,70.06130225898468,68.24579658617213,74.13143718669002,69.61813946985663,63.09714125942982,68.49889972765591,68.46126097164367,59.53115271536939,62.344309974338174,69.0990563003104,63.62306420505831,60.75704981527541,63.852159047430405,54.66355363660779,43.774210641145054,47.56071620911478,48.24224367874301,40.478173321741366,43.874974451644164,50.65708852053213,45.976068666396905,45.717391685341546,52.10301396561496,45.43897304195881,36.00497992423722,40.17035057054345,40.533309453503435,32.24231234037375,34.597597430040686,39.61533134070072,33.326058437628284,32.545787101976366,38.913233539100226,31.131995283994126,19.19629803919375,20.899059330658,19.840927258096627,11.18880219732975,13.97599577521719,19.540878678816842,13.731533752856484,14.146378541707627,22.810225057649234,17.995319432725648,8.327280261885534,10.34014927434877,9.146452981340545,2.133154098053668,7.681998131373229,15.386396081522237,9.793152204309688,7.6543923042392565,12.31185158348251,5.074628756812849,-3.8683184326157747,0.17126878460363804,-1.158284075371138,-11.676100491770383,-11.206851081784002,-7.515551700395067,-13.9021257915579,-13.13014349872938,-4.11075728079434,-8.704479808001988,-17.503648686272214,-13.796278606463126,-13.3711447686826,-19.116539294678734,-12.342322584683512,-3.6797447831907153,-8.802129613570482,-10.685169852207757,-5.460371432192689,-11.629918136021235,-19.736273794069422,-15.907219229168831,-18.230947908047124,-29.81338438914514,-30.11128256823364,-26.281392242068335,-31.187793895501954,-28.45662257885163,-17.717705183969564,-20.059083667199697,-26.13138842664115,-21.143993734380075,-21.729632503002705,-29.99389697911367,-26.76734834662714,-21.53611361956293,-27.559626133441178,-27.012960556269185,-17.978012799483132,-20.85543767641893,-26.324607011450208,-20.14209895115889,-20.002972986472518,-28.33004384045832,-25.584543665821954,-21.680678165733415,-29.96100544030139,-31.869616200702573,-25.20438201593421,-29.901932020179,-35.99557158454634,-29.26542664924391,-27.25017948688953,-32.32574359103951,-25.915739353800834,-18.69407353355198,-24.257716038637682,-24.124761984483865,-15.567953360430252,-18.499180948594958,-23.95135758610485,-18.34594396714559,-18.79004237971375,-26.255000490745388,-20.539850365637072,-12.075918716422795,-15.910249143353177,-15.319896555579481,-8.118111480026663,-12.868697598422376,-19.15529043186948,-13.512675758234355,-13.705889839670482,-21.245019955362057,-16.430418046084178,-9.619207279051444,-14.890025216154068,-14.62193294626302,-7.014071181377793,-11.205703368979297,-16.579806752207887,-10.121835693480058,-10.47623440405574,-18.579860118352272,-13.195510652745554,-4.053654605012178,-6.13394932350901,-3.4380002038853,4.800189647403666,-0.22873799220976077,-6.510378966219046,0.3596812206066087,1.790575552025824,-4.793514404057267,0.26605506984042915,7.559482546947593,3.5023338824024544,4.553751362416224,11.018252407963983,4.157894784349958,-3.073177954046885,4.082930383837091,6.172821717784299,-0.12231058568616548,4.093857854871318,8.704981972913064,1.7005074676533187,2.070975269003843,10.251967109474705,5.858297764659339,-0.23778280974771926,5.234802154499013,4.021341074386693,-4.734103175461495,-1.2259403474441242,4.161356225429955,-1.5604389045294687,-0.7655989987362795,6.7831086883609695,1.297620892642425,-6.176341839095379,-1.983845349401018,-3.688356275492998,-11.700857043523168,-6.593415342104191,-0.2091052292937885,-6.155913092568316,-5.473454296410248,3.2980752349049984,0.0833658746799455,-5.117110155122025,-0.10513873627468451,-3.3569282772311198,-13.85331822448709,-9.491199422301634,-1.0637766624216507,-3.566584239875021,-0.4678871097058641,8.34205474858928,3.669241457066185,-2.4168490878680595,3.5374842281984833,2.6833505437576535,-5.711684037838985,-1.4701016932631914,4.449458222326857,-1.4920899319876675,-1.6277967506710544,4.892825597366817,-0.09556407429105951,-4.483585824759434,3.7609739603340837,4.547496282611798,-3.326156473316368,0.44601656841297377,6.005384542028361,0.9889617371637134,2.749295814100913,10.728588959949453,5.655874187776542,-0.4337847932687646,5.735776242678156,5.635231230291566,-1.7141474978941265,3.3687903911235373,11.626713634735793,12.810275913795884,26.253625118669973,51.806642427438604,68.00329122847225,82.72747366261265,105.9510788762182,118.12979620344966,118.14868516309117,124.60811991342611,126.45538241366536,112.67633571678073,103.5977803158178,101.58093274071338,88.68638198162955,75.11049854768763,71.35860789961302,59.55576266235767,41.5143231872882,37.98095189460942,37.958273560924525,27.07271546335346,21.09759006175945,20.44930904089302,8.346898729491235,-2.147238682407739,0.6891285977117043,-3.6062111925870806,-15.955243450544076,-16.215097748664604,-15.121395120832467,-25.032459047661817,-28.31226423827995,-25.85474594982462,-35.72711997695839,-44.31634676156614,-39.61989599993001,-42.13309550736967,-53.12233045587275,-53.21908556601784,-52.53460263373603,-61.40284044711822,-61.11996348037725,-53.484978653472666,-58.590371717286786,-64.20532044701582,-57.891620341315395,-58.66182261303891,-66.89008651269316,-63.583583902495405,-59.64844468407793,-65.28543253724399,-61.34155664815093,-51.00971705273684,-56.54962297693702,-65.41524720594646,-62.39153135729859,-63.638547274171195,-68.61139967737277,-60.149657365668816,-52.49737172080859,-58.07678345467095,-56.2787160004478,-46.27056848654509,-49.00682292892115,-54.51080984888429,-50.52165427235043,-54.324380217478165,-63.38647995474352,-57.3099494585701,-49.171408342764884,-52.11268814004367,-47.52277250869828,-36.06056440190959,-37.124923620543825,-39.49012187774207,-32.682810095106404,-34.76226340107316,-42.01627913810177,-33.51144482886533,-21.9296098184752,-21.18392520925958,-15.740342790168611,-7.750604605242301,-14.180416487493483,-20.018906374296726,-12.820988275882495,-12.032156347916594,-17.61406299666753,-11.56490001671646,-6.022234721504402,-10.365817050604463,-4.605000527183203,8.6958287811904,8.900813368896749,8.222419853321284,18.005855049203763,19.20761597559516,13.218982501211318,18.72231576134844,23.179707792637878,16.985802740903708,20.373844333244,30.48839090695048,26.135815436137605,19.96999186465055,24.731436630146344,22.91235976573917,16.59846596300737,22.824334645027736,26.407782472714956,17.50741674637034,17.911696708479596,26.117957644916878,22.32011930648655,19.01427589029625,25.754182644645354,22.307915279551224,11.97400813820158,15.453094607755043,19.694099008354527,13.386986496177897,15.308310706136588,22.174113315953836,14.761496994297143,8.906124271294308,17.716585283910273,20.482060884023575,15.899953841702139,20.46705286275612,21.037820277330304,9.337811094975589,7.596583662900376,15.201353024338559,12.647888300558346,11.281591675524538,20.462099330137857,21.232455941986522,16.360708823163456,24.1468525845339,30.669302585853494,25.64438519445448,29.398542549376238,40.36180345072385,39.16734529221617,37.19744183010325,42.725933951027294,36.83501917671703,25.18724166564625,28.753735899675352,33.47859571865468,27.23493908555514,28.027806254708967,33.57970111125095,26.71950151331469,21.304574465953305,26.365740271128335,21.897054195057358,11.003683986292433,12.949904354518212,14.46575603005829,5.138315963460343,3.752904824106263,7.6182496230275145,-0.9251125662201707,-7.2339086451132175,-1.5810994641847946,-4.497256438354761,-12.990087293795646,-8.05114631851938,-3.9615559284907915,-10.894750841792966,-9.627193679578687,-3.4030831786936453,-9.061702033736285,-10.588469978982843,1.145465178856515,3.8328362573472443,-1.1763973486271362,5.441658852117822,12.164600783075324,10.899999317891549,20.47041266835209,34.8884221775933,33.38854667810758,30.606815744768845,38.50370595201278,38.61476724145231,33.70618618611973,41.41598699692174,47.251295957482824,41.71548589628708,44.767806936992045,52.62791629106066,45.99410593490185,39.29296031241765,43.691910346725464,41.332017100388164,36.03006267604503,44.55533280127252,50.754772151730585,44.73778925491898,46.981423876698464,55.20617480363881,51.52957337899229,48.74224860937216,54.55316747956665,49.60639769467763,38.852898159359775,41.59079306501657,43.97011094792687,36.61153535038855,38.625042190264416,45.786406674393234,39.662394948980904,34.562253892166126,39.543334432323576,35.207064680533634,26.018632363876282,30.208250655376812,32.76145434410202,24.303263428731533,24.713929225835372,30.392656092616008,23.06179922591341,16.913627812834832,21.091511643880533,16.627688132357285,8.249826115921739,13.713184600371498,17.36679353156939,9.746423652569028,10.679141623550755,16.546541476644755,9.460787455564283,3.6090295108342545,7.585630091503363,2.2563007439947516,-7.221850513497847,-2.865955208601844,-0.8155041199675872,-10.443520289142189,-10.862796105238886,-5.080096553130954,-10.535047918742777,-13.100352097575936,-5.845607571670376,-9.447753930890471,-18.96686842286027,-15.701435927923725,-14.279001686359956,-23.161628850894076,-21.913495672971486,-14.143575222585193,-17.88395593280892,-19.931631453291352,-13.716840892303823,-19.04624873288433,-29.524540862482862,-25.11089270343455,-20.06541027956732,-24.9474108517164,-22.201484008016877,-16.006074599752758,-23.05225578254317,-27.820511837924688,-21.930180521049007,-26.038203295194368,-35.35073173781459,-30.043199648649974,-24.272288027294387,-28.381765820497854,-25.113037865395917,-20.03501403747336,-29.776531357653887,-36.5999585466377,-30.191972377266666,-31.1909938925002,-37.105069120917406,-31.222144204614573,-28.63587265350983,-37.31363559597456,-36.49054860417971,-30.018016815977177,-35.5668152602703,-38.39560668504163,-31.0349598004062,-34.49744792873776,-44.19795756910946,-40.9572228631248,-38.45402050176056,-45.07692277134042,-42.32547014001815,-36.138960061360294,-43.803715638825494,-48.03271968689007,-39.32071148510795,-38.85621378380344,-44.30997825544537,-39.315242905657236,-38.142063743170525,-46.851741128902916,-44.686611923481905,-37.45399132929728,-43.334314974881195,-46.02238560933787,-36.700822541149634,-35.987286269871596,-40.52472389246513,-34.7853553332865,-34.32765985992696,-43.91270389263046,-40.75983221899546,-30.62224922437138,-33.305723043068404,-35.2211352731216,-29.046712145272814,-33.160152907749854,-40.52168568358552,-33.71354659963286,-29.269201116572333,-35.50705340252908,-31.98813562463382,-22.913067663772026,-25.504220647502805,-25.58902575921269,-17.091033869124185,-19.48662241798056,-25.734105144298233,-18.375531679126482,-13.951244374060447,-20.53029071936763,-18.335635873211444,-12.376331196971133,-18.552809385330733,-20.561115948572542,-12.553691195537953,-15.607799218626836,-22.756282319873478,-15.888255598310488,-11.31195352762788,-16.8298700184687,-13.239501117078792,-6.354535056626852,-11.865135437647139,-13.271037435266685,-4.329622098084348,-5.974389044070593,-12.860376510410498,-7.650596747001395,-4.84242768465246,-10.766563098821237,-6.393052285891171,1.7721733557422552,-2.6861522231470087,-3.680817990568495,5.021886579434576,2.5537546684666332,-5.315469559615097,-0.6816673043269001,1.5653742120386074,-5.213076109890853,-1.278128244928196,6.6137574172585545,1.4692179092236577,0.28035790331640426,9.601477372892806,7.97425100892609,1.0520358612700318,6.137750082891944,8.332636474432492,2.114773807408755,7.097167066016351,16.039967283654615,11.912266389594652,10.486442130764285,17.56084271350903,12.99871496448084,3.8127055026438157,7.55936872132647,9.168192767014446,2.7842903157025223,7.4524066044609825,15.549160968817409,10.449180497735256,9.02919881616559,17.950548720576652,16.783263677578944,11.393325423529108,17.989539814209788,20.515273538054018,13.328271778462394,16.803436751614743,24.52683965217848,19.4875390703357,16.848331029149872,22.601946652542573,17.53736118617558,9.098089802793321,14.357873627051053,17.01150815785278,10.364204198534642,14.054322742058913,21.676843529586712,17.137497982881023,16.488105020446614,24.83897256000957,21.275135864848213,12.499652404410384,15.812655670895527,16.136558188182477,8.524927365469042,13.05240436844004,21.891748787001287,17.182466971452328,14.508439772848554,20.493048769984348,16.64300708887157,10.811335871539395,19.26252119251784,25.06153424375671,22.692993242888644,33.20453925376562,50.476242729373254,58.565275267987204,73.14005271237234,98.2926054538962,113.25774974013413,123.8299244855615,142.57185979104574,149.94024900030863,140.5993064665645,136.50156706301956,132.7456627141051,115.6371031355984,102.61996609073057,98.14600200894078,82.94599222027918,66.46414371494836,64.26874538293232,57.59593915160828,40.43794672500224,33.93644736920331,31.994343956941844,18.47431989735005,9.75507960506661,10.803647792343822,0.7570371517202554,-12.270915784479289,-11.324516739320186,-14.520831624536648,-28.061268654637864,-30.512487383783508,-28.161058490285388,-37.206971787611664,-41.37376430267992,-36.08538493625552,-42.165897554036185,-52.07194911792717,-49.171892172961584,-50.00920086198832,-59.99018499589829,-59.42725706512313,-55.81254969717238,-64.01017818600019,-66.0482241745488,-56.91506614195434,-58.05143807952648,-64.25678920944665,-61.426506961757646,-64.82812528266992,-75.69962005459631,-72.42823602321153,-63.95255902819919,-67.5462353261583,-67.63190448718132,-59.6769990027023,-61.841115031704156,-65.24626429173443,-55.41936362948123,-50.61604655737278,-56.36565640814136,-52.62253658884994,-46.33826434336397,-52.13496093009633,-52.25026202668198,-42.58237613891661,-44.611353097665386,-50.335015229948425,-43.642500309879395,-41.85584010502454,-49.187704514318035,-45.316281422363296,-38.744474073726366,-44.88519347048817,-46.23273158852163,-38.02734971780539,-39.959662181729634,-43.842103370397744,-34.656878926689195,-30.681716022028898,-37.11848525982937,-32.795762460715416,-23.93399715056507,-25.631724844605856,-22.569399322594816,-12.992747891333657,-17.56445217364318,-25.58267756593867,-18.81088202479538,-14.172751093331524,-18.12598008864399,-13.208198449653866,-8.046842585028461,-15.395876837085543,-15.866656585175363,-6.318701990598797,-8.513757185545494,-13.978668254238306,-7.008736249030869,-4.513501962888116,-9.933392384223843,-3.936729301227894,4.351485616629942,1.145635260334807,4.505746911329652,16.37883880471003,14.303229947833962,6.571904440897959,10.147311209080497,9.788557604391736,2.4628737543881773,7.15024499718311,13.001152142090968,3.784997650077713,-1.4365499101528993,3.1610060656972574,-2.311727643580974,-8.968008165195922,-1.5639019527964555,1.0812012342385424,-5.768118704342256,-1.661244925278395,5.265704741257591,0.8683107894569315,3.4164477448577686,15.454209692344318,14.453662425721529,8.425108109339872,13.82127076566762,14.954904924387034,9.313404815548257,16.492979757649938,25.471328637132768,19.5514098474222,16.809999207196398,22.193530691814548,16.04091676257339,7.2863883449819795,11.02013388323565,9.792645619272179,0.6225312103805201,3.9873049149727855,10.56443242399345,4.403296253804869,2.138732502607993,8.101942767947392,4.348357070499603,0.10588406816374296,8.779651959638011,11.858786458527053,6.093456081146313,12.863179357654946,24.31093426297284,24.924225869456404,30.491731475229443,42.05075137640839,38.63487587081453,31.237161572886617,36.46538015744251,37.43167240201838,32.4468434731648,42.07880673334442,54.88575957963624,53.550706959458495,54.915089869043484,63.1415082083433,60.7768189289001,58.657482611609474,69.91101724236809,74.0116213149041,66.68870357638329,69.37082193880782,75.2425884685561,70.92645132837443,73.33510153320307,83.27162321355948,79.48753424276609,71.95387607480083,75.92839599770633,73.99515344549812,63.512552530304106,64.23491181637957,66.66428690036317,57.017202962135634,53.89342844618618,60.11937417440885,55.11190120281367,48.158017460993456,53.91544420708533,54.67373310664675,47.72264069286179,52.38062178887087,57.79430533815159,49.97191355243019,48.551706766206706,56.282630677313485,52.10190588588132,44.70360190356583,47.19499813436422,41.99427670267791,29.137168204752136,30.026392407064343,34.00379056620617,25.87734790472492,23.216402367646044,28.007610323937815,20.814551925802462,12.817059546947347,18.333248405776285,18.509172552622534,10.377926668967739,12.95166691078979,15.848274780351314,6.264183252971255,3.8554597227090364,10.986374690964265,6.792487840083341,0.10011122927125493,3.7701807379802843,-0.3102486461566678,-12.74527088222067,-12.092134903384913,-7.846692783586608,-14.334712844126715,-14.214265981303326,-6.421822433154477,-12.06973857867222,-20.995437597570202,-17.772454988776428,-19.215349652038483,-26.902308476152687,-21.748891899247873,-15.727412047896703,-23.958906174549156,-27.68911101119189,-23.203677021452478,-29.136806135118178,-35.0599020395464,-28.029498735930297,-27.70805543337622,-36.07608761384564,-32.142803503073885,-25.975228214253562,-32.09375031567623,-33.0453965081513,-27.665577002167236,-35.638312448106255,-45.03677417024757,-40.74294419081151,-41.26068376445548,-49.1121330361636,-45.0240740800711,-39.77838839763642,-46.66752811085802,-46.7797178296955,-38.12318962604578,-40.18193880178403,-43.0061119875938,-34.64666772084399,-34.22835952702013,-42.40742618046256,-37.80878540331851,-29.94307750108745,-33.084390642188716,-31.44239289145749,-25.650461891740257,-34.87831388174828,-45.75954824150704,-42.624884419224244,-43.39956318053956,-50.46490880213042,-45.72769719404106,-40.439961608094855,-46.91908973049563,-45.881616207109346,-36.475214515438935,-39.410911466054976,-44.369038697033375,-37.70724605086851,-37.0667063032637,-43.079899098559004,-36.330087340719494,-28.72681535772194,-34.53889933505859,-34.94384328361019,-27.587832900540803,-31.983749698213817,-37.7242798445391,-32.048672751037486,-34.08572432759716,-44.55361971951238,-41.877100176754595,-35.23118255149771,-37.73256300219296,-32.648544507130964,-21.316709507669827,-24.837943590314577,-31.78502204118461,-27.15688493359145,-27.788920759063142,-34.091909358471206,-26.891778431840933,-18.271541514269387,-22.079939805956936,-19.88939313011708,-11.095435378189709,-15.753587032003047,-22.475464088802134,-17.92880638680094,-20.499454867108852,-29.91111600644236,-25.319949434758946,-17.689067672688648,-20.517085860433664,-16.511366115269322,-6.452031099450914,-10.064816518264719,-15.079919851358243,-7.46355127380636,-5.252014109851059,-9.919195043243006,-2.9601762778409015,4.500474045395906,-0.20238932837445356,