101.93324930482318,114.28121608167203,99.28854918717661,85.34427792918788,95.15783324107721,88.30431716984968,66.91167785346477,69.31178103609226,70.7941636953955,51.907192956621394,53.263612912217276,70.20409902400542,61.48569973425992,50.857101640075925,59.929518065353776,50.982046276579425,29.118026084540237,33.61789885263493,37.81020761270411,18.203444143495858,13.053842493054818,20.50627244259903,5.437299080440987,-4.758964176879242,9.722356072635499,6.645008843643264,-12.048362044123653,-6.977384606501062,-2.1038428655122496,-18.664724103081415,-18.923161278001203,-7.854897967153499,-23.440781378186802,-37.20557540433346,-25.179199197423735,-27.047994185363102,-41.87007762775417,-33.129551934086436,-27.895559203278776,-48.24243726336191,-52.97405028759364,-42.527645588616934,-53.62712729341575,-60.35615797688669,-43.36714846452178,-45.46967496848064,-64.99673744582579,-61.56223829503416,-56.712133014331165,-70.1597540656188,-64.93682614434564,-47.982740585579435,-59.90220951331227,-73.47887374324169,-62.33237847692947,-61.56518158386039,-68.33885899089421,-49.4835455247938,-35.57054495588665,-49.50759971360256,-50.440609159181605,-36.30540385247832,-40.80904374757222,-40.44041112110634,-17.86885557651218,-14.000932780544625,-26.857243200471697,-16.319265120023882,-4.157286966107096,-12.671622480517668,-4.99753439486466,15.961864535294968,11.77674031905578,7.829350269478434,26.41725804293022,27.441423660329466,13.157714454031794,23.74658878850655,34.32078035571387,21.15164407879496,23.06452725579009,38.663601125393846,29.89315295622047,22.66508944073641,39.96850268283904,40.206796674705025,22.07411727886241,25.417381620586497,29.538017086027807,14.51526363828221,20.044153881164487,41.79561823884669,34.272481108137896,18.375551691645803,22.522492040544535,15.552940155108654,0.8412282409081087,14.5550333778883,27.34387232108643,12.309885234041861,10.301548254386502,24.23259761543146,14.358182922405506,1.353094610936063,7.740570240348326,-2.8079115065794067,-24.567831790926057,-14.592295429964839,1.0927690852939822,-7.125523132190346,-4.675366775190176,7.110275643408732,-8.231971028933403,-21.851482763586326,-7.741762587855857,-7.515250382162734,-24.21235240141613,-19.12747957582009,-13.809150341998826,-28.317912139269634,-21.65172465288645,3.6264508883100763,3.0648384799739596,-4.309522236472416,5.14400242919462,-1.9029116006248206,-19.377932113851866,-6.913987923981387,8.409163034434965,-2.6351139336757994,-3.6811864770069236,7.648595992651585,-5.353513558922265,-18.498365997454787,-7.047296227992402,-9.607498464104149,-24.764599683178023,-11.651053600246417,2.120991831281411,-12.64003668806275,-15.235029421132051,-0.5992128591945338,-6.366027896674434,-10.978170662963807,4.364075183027546,-3.6512426492078403,-30.846324457989255,-27.189987553059137,-10.61392127870202,-10.620006926673822,0.6251471511383242,16.05259992068892,-2.893262342327441,-25.317935548587286,-17.56864211869152,-14.97915537854495,-23.728018819358052,-11.761643239804865,-4.688344480882309,-26.315769313666806,-34.82937336869712,-23.810618315728078,-29.47473864638426,-32.19685633225649,-13.723758015432963,-15.301452910251543,-36.673093977272536,-36.29128260998744,-32.95026228715194,-48.662594587455104,-47.75127775637037,-32.24632790656461,-40.94446284454031,-50.77013134752527,-38.4611853411129,-41.609929181192264,-58.436287333067405,-50.14870078106968,-41.59109337457824,-57.33780960693658,-58.75231114684141,-43.577177439032766,-48.4610926367756,-51.65129296497601,-32.424118446806546,-31.24678336102333,-48.72201075269834,-42.94550913787711,-34.908693089827324,-51.43237029833328,-53.53186699012507,-34.22269522199427,-31.395281548629946,-27.05443929060384,-1.5164825628496583,1.480556793870584,-20.062334244972533,-17.941864265090366,-6.602935820972647,-13.303608995792871,-5.977859058641341,14.127007908505266,7.968162621711968,0.6256580662314222,19.892483693668286,25.849236742929783,13.037853741573645,21.035954795340352,30.650409421183408,18.23211455908207,22.40111492063241,44.44190207753553,41.71804944699713,33.23852989940029,45.35010882671222,42.87568896705194,25.696148005580753,36.31234385863684,54.12811067136784,47.762101231681086,49.56657274997069,62.885006135585826,49.18251519089368,30.99293939357417,39.449499734859444,39.35668469803656,25.09834570872456,34.653499161860196,45.31676734270532,27.75426623652872,20.54640443108289,31.731145385166425,23.42321940301337,14.279441895634584,28.765333021374005,29.0977049514386,11.28137172501244,14.69284621808543,20.115965365284612,2.6367190318487523,0.05119770253410438,16.534872085103395,12.216860909462548,4.959810224450984,18.866733857002373,16.840643684634276,-3.3829597943624696,-0.012142866348121117,8.236738280777075,-5.519276475046438,-4.409664631074126,14.972728704937728,10.553675252538655,1.790859432128297,17.555488659601522,20.48072205957055,4.303210221943166,8.988218547533446,15.613698960415169,-2.185019456044655,-5.582234375742873,11.634210612656279,8.57810453323274,1.52506842080878,15.322881305712173,13.451288031044403,-7.365268118410199,-4.901789485589526,4.553342328999449,-7.026030028016251,-8.229117552519792,2.947504570012436,-10.38892427141814,-24.29205435241906,-9.381734405563932,-3.5963208501563697,-14.95859758617488,-6.651369183089586,1.418025050141687,-15.793275335280429,-20.435535143324635,-10.18278359024958,-24.58595805659285,-38.182570025487976,-21.082964819820237,-14.530332357891822,-28.100566154163708,-23.93679862228604,-20.51630406037885,-40.57747755451451,-42.850763693735594,-23.105821908893816,-25.464127239284768,-32.691642153216,-16.24980125819577,-11.938331126481838,-24.454730953907283,-13.04454255031633,2.562690991023742,-7.454571398315783,-7.904682072037463,6.178719411135682,-4.827288400499007,-20.756954369737915,-12.600687868361582,-15.493445289253568,-31.94915701260539,-18.950787164574237,3.29850711081259,0.2653807870864,2.2408462778877163,14.551929994334863,1.6830238956740065,-12.333810521442295,3.4726944665812924,11.703674870664091,3.998005113020735,19.1404041574493,36.917559747196115,25.460341740456737,19.416488168621328,28.999534545847574,20.120543259063325,12.692146697168852,31.44837467179428,34.54704617761077,13.340665387885522,12.864119743871349,22.443713002915516,15.16877903615681,22.8175195389369,46.78506218930505,43.71421820808422,30.989951279866037,39.158830265194396,34.8190917349333,13.287735666569302,16.998186536063088,30.28677830853747,22.91426599230839,25.863098510638988,41.91544834018234,29.823561133982018,9.297101137748559,13.586546380643801,10.714152867673945,-6.157484355651459,-0.0408538626900663,10.272655717528105,-2.2796752398077684,-2.0972629816820847,14.763617994222813,5.268903218323845,-14.484757906885768,-12.785889344941438,-17.469363050377897,-30.457245044181136,-15.158090266085196,3.903127695854341,-7.280889574952719,-14.293654646156293,-6.290309495707898,-18.084028407585016,-29.82413705977939,-12.433223616201083,-3.892119390450934,-15.732425304940458,-9.655679833925623,-0.968794392946891,-15.930922688379027,-16.692394494761793,3.5097441850317255,0.09078073251074503,-12.437204594430765,-2.314724139133207,-0.8015279689030563,-12.649893728822546,1.7817674791740234,21.32172444145287,12.29964035263153,8.368969385184265,18.618163255818573,7.3896865395160996,-4.884198813008436,10.435566642769263,15.024392130655421,-1.5351443448026503,0.5422944556180402,7.307518274219575,-7.792077944673978,-9.927860447792025,6.33927893596285,-0.3701133112204218,-12.45589900968732,1.8225685269143135,7.995864628511988,-4.093019597101107,3.802403870352424,14.654559756351048,-1.7882808629867526,-9.635233987757719,1.514575836987878,-7.6914169810888495,-20.79305716560943,-7.921198542258816,-6.004844045266598,-25.11339568092887,-23.300912672314713,-13.6746088191575,-24.321130193151,-21.310817529224238,-0.046943627794622245,-4.157698345386377,-18.284194169998187,-10.62173899252786,-12.29987917029472,-30.222829378488143,-25.4966032561505,-13.481108981493648,-23.19859577146879,-22.703360243216206,-5.977764953926042,-13.866640875942071,-29.918533587754027,-19.144931610187392,-11.544254928898217,-18.980636717905742,-7.490790965612203,4.115172597936553,-13.75489827384288,-21.452741839447725,-4.098867034712928,-2.7785060224894207,-7.562351100553844,8.813133750029042,11.06338102513839,-8.223801466379872,-2.640129150303242,15.843395127287275,12.487738629157915,15.022770744736064,28.454715221325916,14.138953959270278,-4.05838413730043,11.144446008827416,23.585945688857016,16.969814533482896,24.756710812680822,31.33041368219532,12.594286957600849,6.8102392733601205,21.63909916166773,13.952017166073563,-1.4225663819843675,9.324724845567232,14.02309039929898,0.7811594719207724,6.721816784847762,15.399553088097198,-2.820944263647684,-9.63897200208766,7.3771396958779905,5.013394783328785,-6.028763714287824,5.305119777763415,6.349172948627917,-12.746114983387018,-9.155052317714375,5.558617143157198,-0.8966090009312415,2.0065227686267004,21.54201814042188,14.661196367811144,-4.367620051362285,0.5232004458620461,1.200933260269561,-12.104767868407286,-2.123927023723046,13.558619127912737,0.43816530227899086,-8.659780860974324,0.23583617306663562,-8.709379305981717,-19.977724164711585,-2.9645652998388146,7.116562426157879,-3.7113832741051622,2.4450728239148827,12.867027773077638,-1.574912423045335,-6.456124808725233,8.902256353184857,2.483981658379535,-13.6901363372129,-6.605239508225165,-6.859400724647408,-23.567330531301984,-15.996447188979136,-1.0350444202790365,-14.841841024056528,-24.76967704281311,-16.76963779592446,-26.441932851847543,-35.91120913753673,-13.29096361935703,3.7430442435076308,-1.7621183830601979,6.941360105089668,17.872774686191228,3.3908628713949573,-2.325711963123468,10.449054620891648,1.7061343788228926,-13.357076411153553,-1.4982979476097178,4.588857920862024,-8.424964799493036,-3.8396623515221453,4.506921968436627,-12.19910750869732,-18.814752478100843,-4.145654699185002,-8.57023662738657,-18.61492775496048,-3.1378035199469565,4.087135024997106,-8.587322427272614,-1.4901645825409808,11.919379202592461,-0.5495051580608816,-6.66277432578447,5.889961523709191,-1.475290253371023,-15.253881627426908,-3.54538703944403,-0.21717272014529,-18.433552958652967,-15.830584816775321,-1.1696963477069104,-7.791746198228267,-8.165307281465621,7.103097071162915,-2.1106564230994236,-20.678679781707842,-11.248591109237118,-4.4389849748655585,-15.596927363161711,-8.108986422421703,4.056278620271957,-11.04941851234381,-18.34554644362985,-2.9642536087651603,-5.99716836667784,-17.514741045588064,-5.372128673622356,-1.4676867105090676,-17.32797920729916,-10.387528877871102,7.601341174356126,0.5036227315991955,-2.595201089665373,11.399472397597174,4.539227481940716,-8.906720777391017,5.797984255717207,15.644517884487158,3.4628523621808025,7.011392901590143,16.81126708238931,3.722487712359831,1.608756176405163,22.013694231258476,21.31342366648689,9.926651871908511,22.4400962134812,27.99047923669803,12.89219306448132,17.214471691842586,30.678620613160565,21.62785016188569,21.51821720423894,39.9163995712689,32.51291064270356,12.511625191904304,19.613982172747562,25.828363471921662,16.2864432651375,25.807378324990243,37.00198522414028,16.96704812238775,4.150236267249015,15.968622822403624,10.94496259143014,-1.6269901048337632,10.079442099145723,13.381323435164589,-4.239506035448373,0.02311115728443447,15.634849637400437,6.831594221614203,2.667727564654686,15.425652029921736,4.463795989576701,-16.388767426823875,-7.5367020182645765,2.6715948804082874,-3.621925372597289,6.838225923126072,18.65815629321569,-1.2371949970782339,-15.04169273882723,-2.129547044483746,-2.764499056051655,-10.443255761260195,4.875482402757189,9.882977817237583,-8.571377752543448,-7.115603928220278,4.755199214828618,-7.523603793163049,-12.309475416669287,4.666097917101666,1.8280429928549315,-10.266901232393234,3.0315631735170774,9.230728517470563,-7.894497115575917,-7.253139136998012,3.3616501292517675,-8.257485380745965,-10.992051161318665,7.691198764198742,4.05152875400711,-13.626825775379999,-8.403261269467476,-6.001674542977298,-19.63207893811074,-11.082958327908234,8.209625974331079,1.626086311068149,-2.957884557402829,10.181913191981714,2.6194838586186346,-14.41279123076104,-4.458459078693041,1.2228247480082686,-13.85213211340459,-8.770765128823358,6.500189415202381,-3.016531675870308,-5.691908420389526,13.59466303153025,12.684534710840705,-0.6835216079728612,6.966161855020731,5.143940541366713,-19.475299487461825,-21.478623423468335,-5.054560561475987,-7.568090385357314,-6.692466588689062,10.265285726933868,4.35604072351849,-11.66165186206764,3.688627314892882,19.49211961662568,10.441952445457433,12.99123480389557,22.267418281984348,8.102025702199622,5.647455768630616,32.06671498603149,39.70015578398244,32.259288497656684,52.773582624941916,80.82882351430763,99.1945850040981,139.30158832563208,177.5861724747307,164.6203384890556,132.90478463003865,117.28118852017212,92.23875086178306,65.712109960639,64.23354223367254,52.33379319017218,13.892948994350576,-6.261476671892801,-10.695057520146635,-34.27770813194327,-53.06798698298577,-52.73301101748429,-68.9498265273706,-90.96726496260754,-85.18126243846129,-82.05607669042526,-98.23308571138202,-94.11844811466355,-78.11737173687774,-86.19744955348665,-89.01365734306458,-69.78012592615184,-70.90984861538038,-86.37592503030695,-78.73987970097767,-74.60157629648276,-88.88027183928762,-79.47999194903248,-56.215032609066746,-60.32851366602234,-64.45192240201335,-48.9201168296247,-50.869018674092594,-61.445150945085985,-46.52097586539333,-37.610864629157874,-52.53173324388696,-49.68938027335133,-33.385492227514,-37.2274439755584,-33.895517656179756,-9.938854525410608,-8.200049698391268,-21.57155587916294,-12.208882039135053,-7.32305664730379,-24.026483604176423,-21.347153760333462,-5.110265888827879,-11.337697341113184,-12.826590382962223,6.050257407141501,3.7738520451984456,-12.272513996221006,-3.4819552677312355,3.2686956844571906,-10.947693135485821,-7.512305593035062,7.918085787169334,1.4530033233137196,1.4182745494889333,22.172642948823967,19.64633432882154,-0.8954337909727208,-0.8088468429433995,-2.548221484653724,-18.79514849258095,-9.450965169758778,15.03272484969559,13.235513744386706,8.973294856110266,19.911056598774287,9.817970771735993,-10.086087532547673,0.3329361233099126,12.86942806635514,4.787646648920157,12.885241593365514,32.06235113726482,26.641717453195486,23.63166897862166,40.758536750027446,36.36281809690776,15.991454490125266,20.58522310191866,26.666583462741915,15.051519898369895,22.05048157699022,38.90214723293563,28.34027818918183,18.969666927214206,31.370712144990055,27.726097245990402,13.79622995282713,25.144734429728548,33.81112003197104,19.474682618722337,19.679741679397896,29.661199077307458,14.974067749882025,4.161760525864402,17.815615401209044,16.841368183608324,4.116394929625999,14.49579933005987,21.32768463726736,5.946206497237543,7.705172070054735,21.907202636261914,11.590908021555597,2.7184698424913383,16.10080033241807,15.242768744378253,4.2797486704354695,15.738778476564327,19.944918239253816,-0.13524247898456387,0.4524162184196694,19.32651712358109,17.102627142205574,16.52249709170799,34.03156076232237,29.95071033064628,11.059831119930953,14.34914134198419,12.4641420319618,-10.377668170208958,-9.72606433306423,10.851684472713572,10.774769500916737,9.884656506332941,23.678270309945066,15.252358962473092,-6.105834919862696,-0.8070319853491323,5.6009915939850625,-6.1361593004384,2.4166825390569286,24.117967038084494,19.028356740464226,12.770918415627138,26.57949616379168,22.47810566739718,4.9921509350320346,11.122728727932703,14.021265559361822,-5.567764552454916,-5.638297662848824,9.980986748837092,0.35795186868943407,-11.498268601552969,-4.275304943514514,-12.007253029282136,-26.549079600843864,-11.699204484026307,2.7942391311320964,-5.919471908438992,-0.08023338274598757,15.79119416476122,4.673355930773081,-6.2036322986555295,5.5741781760786955,3.5905126828171845,-7.543379692837722,6.27680920194571,15.844108789232113,1.4058333603208126,4.720586888526778,22.619473716067425,14.653642588987896,4.413107304152484,14.694695513173738,9.919260831548435,-5.501718703757766,3.088588602365859,6.065675867521371,-16.086489553979543,-18.43668240402588,-1.381247462602058,-4.531519846982725,-6.876123732941879,8.018876465758233,1.663521773664308,-17.946701355388925,-10.961549367068418,-3.619744845995453,-17.449263030745588,-15.161486370301699,-1.8986613630399907,-13.903035474330968,-22.933367641639766,-7.884795700602476,-9.495841217882331,-26.542399780102137,-22.239432317108292,-19.340024188466177,-33.78198097205407,-24.922066329282664,-0.5022433657062333,-5.66676215184772,-18.542528726576077,-14.610177558988033,-25.6532544068584,-43.03618583079806,-29.42899988865546,-15.662127842299086,-26.68392567200376,-23.236204690808776,-7.084868514331083,-14.788312773562815,-20.485307805824625,-4.865119684995527,-8.707191709503398,-28.758284930631707,-25.278407772294088,-19.57362492514873,-30.28177884597983,-20.58948367284743,2.2405367006327843,-4.844633114029891,-19.44402068918921,-14.359693569635796,-19.09480887472813,-29.25374630773649,-12.504848571579064,-0.2675007253065642,-17.31624655510569,-22.12728073103604,-10.418017987479125,-16.558905327034307,-19.304535061477424,-2.562876904388636,-5.904588036120366,-23.7775730890492,-14.241931687454784,0.1880600149036602,-4.3009663297048135,5.3870124043075585,22.60167964961963,10.093427121827226,-2.600550048748934,11.11598751330797,13.972729817394008,4.827481643341626,16.955991414042295,24.320258245896557,7.048784299319529,7.503873316687822,25.95745693448555,21.43074079716939,14.448774200956954,27.535433727107502,23.86709122455844,6.1563409256832,13.793158320929702,21.97090037897778,6.058205200233172,4.079595906093368,17.551203945866057,12.592329508281395,13.247152832961088,35.523597811970156,34.855380515885074,12.454602207438397,11.309765054927302,14.841215547060347,7.577949373907714,27.900638297408165,66.07007287008793,75.89809962178872,78.91550824365584,97.36175729544324,94.71346835940304,77.37705285902058,86.72021173566702,95.67293101500614,75.50577056453983,62.14213550591831,58.94334778981345,34.2830209303313,14.38561841798159,20.35412765127809,9.663496391109213,-21.36902585529378,-32.11402391934563,-36.58602378296638,-52.78418522468673,-48.6082290431961,-33.931353448200255,-50.8945271794194,-73.6969334307974,-72.55865755822147,-78.50623057031238,-90.2979946786261,-76.32950282156374,-66.63921976501896,-84.37115038751953,-87.16619823579353,-72.41756907317428,-77.40358917278536,-79.62823490025785,-59.21553765572385,-56.84832222248406,-70.91759586050426,-60.14487502163974,-46.61749361679294,-54.64087118161815,-48.314661405917164,-29.163641320539284,-34.644055245180866,-40.92436765534534,-26.522819008164113,-30.547744143728824,-49.67745563819658,-40.46860033620845,-24.084468824353447,-27.499957695052814,-19.53076269031783,-4.39124878433955,-18.39270605160181,-32.07883032541973,-16.903919290917145,-11.667819435952568,-20.111152002944912,-5.0672995955751645,10.204543767079155,1.0293839906216338,5.431019396752518,24.061502497466773,17.434894006325713,8.255957652520756,21.854619681528085,21.2420412888501,6.20593970314777,15.31136095504056,25.756552007412413,13.518659967831864,14.87501085771657,29.307334595670113,20.33933843523549,11.841813879756813,26.667693453280407,27.397201524337802,12.800472025238935,17.84072023984141,20.14482087833091,1.8064429942363898,4.996106643828756,28.420668450468373,28.40641521954453,22.33087089960152,31.692302325130584,23.20667776575018,4.014778440765715,15.253395517578834,31.45310858796358,24.391583557664553,28.92811771224332,46.151124339478734,38.83915345186205,27.928723397005136,36.63571351311231,30.5816532801558,11.905602453103349,19.2997805624222,29.418143740600502,16.206811934516523,16.474889516042186,32.88197630202812,27.608978561778528,20.157129909486507,31.93953543087501,26.19123378188924,4.751049119203248,8.701792976657217,16.88150043671131,4.041338846892927,6.338155791612763,23.86854336364771,16.097332154753538,3.8181480996680808,14.266076702345842,14.723868135246551,5.098037039466958,20.099125541645392,31.117216827452282,10.769824387593786,2.0748898093614185,15.181346103931144,13.93651950547168,13.937370706104431,31.86682809533961,27.997664591027664,3.986399745283287,4.840280439052184,13.775831741346876,4.015797151304668,6.764744228306243,21.653130302406367,12.462993128898214,3.412110838352991,20.09645705803885,23.226979984193434,6.83277381803943,8.374836319204435,10.72787422757154,-5.321416647984276,-1.353569419706882,20.08387840978533,14.395666497032968,1.191266359273098,8.554119899223098,4.259563439432049,-10.53334462472379,2.8460584034029894,20.114671669470724,11.733698762687249,11.685146409532265,22.367003305601997,7.65362974440998,-7.961519802865158,3.6005521165306416,6.326382848241208,-5.052171255282979,3.962827390508152,11.586946033385198,-5.702116301648787,-9.170743107308985,5.66963947483652,0.23808452525556856,-8.03955331671065,2.2344674611007287,-4.8338181842211885,-26.435544209173408,-20.66948588453399,-9.082349257278988,-18.079851543394522,-12.675133325616422,7.254125681842359,2.367221626223407,-6.656977261674383,4.79014756155005,0.4263918720890745,-19.802872958018614,-13.091722172234807,0.9051352804039858,-7.540179052548602,-4.9225479204982046,11.776685155954674,3.6270815762067263,-9.01121495155935,0.007759171976108981,-5.1626098599854755,-25.993820630487527,-21.141264737816982,-8.855283039077616,-16.81347655974933,-14.254589523856378,-1.4767180703937512,-15.68982375636448,-32.93438768551524,-23.67077798938042,-21.35708821221682,-30.15917594818638,-15.977644625046075,-2.2727318785568595,-15.648557405323665,-18.8273053164468,-5.1673373977797645,-11.472435208766925,-19.934325680021452,-6.447354499486199,-6.318108139086288,-22.726381846267753,-16.84753756808083,-7.169102821275382,-20.169800600422068,-22.113062366035578,-9.38612090636513,-18.850907365324023,-30.25295965756108,-16.58100313289842,-12.378310297860324,-23.64440107807657,-15.29279840514754,-6.593552618789122,-21.810144357810586,-24.353299860121453,-9.1467689447886,-14.668923779340593,-23.06500379416172,-7.616892467903265,-3.392407785161999,-16.101713987086143,-6.558996951964233,8.27466913660454,0.9172255351130971,4.62013951292402,23.61485489903771,20.14920574370622,13.284714765571731,29.528920865072383,34.9293613045294,27.12403214486561,46.93367295871202,76.94925029996392,86.9124154819693,105.39814419732528,133.5935243218026,132.2719367349814,120.20192587721107,124.67741511321105,110.69600770045818,76.42129044692132,65.7715851052379,60.273669512593166,30.178938272689997,11.66158370923505,11.539570075299533,-8.31081582721244,-30.476333537694906,-31.481259929180073,-46.35485552840902,-73.6565464481956,-70.71079055721445,-59.55268142136129,-73.01951913184314,-78.22372915224383,-66.79438131226863,-72.50730364831104,-78.5111661068915,-64.83115227502245,-69.93690203126306,-94.4963924725715,-92.44642696827688,-79.19868279455056,-85.65564541212152,-84.07850514558405,-72.48524691150239,-83.81387174209877,-92.9793193799071,-73.75089983351948,-66.81571124858505,-81.67643387024353,-79.69680154078252,-73.19373245190917,-80.89246603898317,-67.6647216306006,-38.23525932586472,-38.44398672610541,-47.958309759770955,-34.83995396863877,-31.868173413990448,-44.1736455210557,-35.00688167170409,-24.616982946309967,-37.32632118830958,-34.08843641917277,-11.799194252887808,-13.303419569906701,-20.48334616379384,-4.922942558888277,-1.6895151833128166,-16.599379739309374,-11.415962316847502,-3.7385008165381826,-17.992408446174892,-15.465962864504485,9.414922719770757,12.779715922718662,7.59897455230987,19.84044184551523,16.466429151068215,-1.9837787378295282,9.791036927710085,33.682008900179575,35.66456527724204,43.23805431575629,59.68355157608585,49.93316406522356,36.17541230216177,47.173301360792244,46.20446197374853,24.15574416658498,20.16702665411481,22.942789942701037,11.539512722018415,19.89856142871435,45.600509639932504,41.17917225797466,22.108923638488278,21.724282783112535,14.650598147192888,1.1045842571620188,16.937227673000805,34.849887830744514,22.10069157460448,17.070414435871374,30.09324680508361,23.28130641177425,13.804013976747633,26.832665996106368,25.560674163164318,7.578556563109343,16.546021003813735,34.69655979369234,31.62714730160527,38.94859294310396,59.1191409742693,51.926999125741915,36.58525405025813,45.09471614116085,47.70899865840492,38.848881421441796,53.596800397570966,69.95266340247834,55.59232203909713,44.0593458525554,47.07525052882701,33.15443846486721,21.69527566390166,37.202037123311584,40.26667129645094,21.153155523371815,19.638964813097612,23.91199479961381,11.581063587703724,16.27241445979239,36.52727141851594,28.828898024241123,13.669885867226979,22.96955844776752,24.300658174433252,12.809180730230498,23.997518425378487,34.4668910730812,17.079646442548192,12.856374411722703,30.527512675964743,28.76405290175348,22.27907232545722,35.18086841934703,28.996185997705993,0.5747901261679811,-3.6667279335940552,1.2415815060164892,-13.833765236365306,-14.603931823336953,2.4086954850202007,-4.681283421519725,-16.77738122616885,-4.1561077757125595,-2.297962204906155,-17.338359822674846,-10.340574580314446,-1.277187262208149,-18.331265891728822,-21.764285282344012,-1.631946448984655,0.20959490942542258,-5.71090652467452,2.9424941592601455,-7.278914881311297,-33.503152748942526,-27.74532622627111,-7.089651995590459,-8.145521934215264,-5.558410576426087,6.105597454562284,-6.4386698674544,-21.938866138695637,-11.681419409308612,-10.016611313333089,-23.137379979766887,-12.000218694815517,5.3730889878528085,-2.5566371821349003,-4.844634595061299,6.040195585539545,-3.932393275398944,-13.328681404937692,6.240382700911264,16.382666931302456,6.245551840085335,12.858579322272451,18.88492570325615,-1.4312686440770097,-8.21510093397814,8.115865271866564,6.282116085471064,-0.41191660098166993,12.795218884403397,9.437705139949028,-14.984245075089765,-17.23005158743416,-11.042910238509123,-23.651048746380592,-22.80550959577835,-4.355549339077928,-8.825421222321825,-20.955825635673982,-11.872315860243248,-13.121467712424732,-29.96231113475225,-23.055757608554252,-9.270651522864124,-17.73649406855631,-15.468433150185566,2.114127851399518,-5.580215610618841,-19.596215691529732,-8.486280224695445,-7.06341086093644,-23.76248293895849,-19.933653744055007,-13.397410473000777,-31.0906753013572,-33.1844426286081,-11.525624959737202,-10.66643772411362,-17.732673534117662,-4.665069646945419,-6.013229473623648,-25.493063550971627,-17.433228374979755,1.9779006638058245,-2.310296450405991,-0.9220650673601805,11.513542555319844,-4.2362507476923685,-27.62243405934161,-23.55171949728646,-22.595224500677368,-32.977709597284964,-19.066533715516137,-0.8952816601088021,-10.910672781639553,-17.526917039984376,-11.248257039326008,-25.25812146065835,-37.81448988557105,-18.830446993942804,-5.684774560147902,-10.238353867110586,2.6524498883071006,13.672630036040825,-4.02528854187732,-10.254145277271808,5.95348591293501,4.82878544672379,1.6823401767265551,24.11183764571033,35.366286078843686,27.238243400086425,41.227138552990404,63.29821377724275,64.96113409007214,78.50384080091052,109.37072755531129,117.83884970787136,118.85882242670691,138.702823135793,141.62798377032118,118.7676365980166,109.11079197780808,100.6086415734169,70.93432933804566,56.43646360529737,60.80079884834241,40.48478878556996,11.08398144614595,3.799673014525112,-12.45305849544676,-42.81068044318976,-46.656286363394585,-42.78239902133299,-65.32071310305915,-80.72358121244241,-77.82885931903141,-93.15008577861374,-109.28179167520071,-98.5210987831723,-98.29140383531391,-117.5387292418482,-113.77591729687569,-99.04630677018284,-103.50208900665939,-97.82670490582284,-76.85355550269038,-79.9047635738216,-89.67676146702958,-75.87580941637262,-73.23432350574177,-90.37246541165788,-85.88712472061971,-72.53971875994526,-80.42457940016752,-78.98882790028586,-60.250875457976036,-62.343630998293605,-69.64947748477097,-52.26826678109196,-44.70953413750614,-57.44928654772093,-50.34064357138462,-36.12562519597555,-43.294408573657485,-38.7732944378057,-16.17782757473447,-16.84054009703409,-25.159654791737978,-10.62177944300552,-6.031626369327903,-18.26863784776683,-7.165075611481391,9.525881465358058,-0.8820543833059098,-3.8874274523471826,11.961945657940184,8.727095065000203,2.20359992427078,20.20104976129172,25.23121853984415,8.039416506266837,11.393129024893085,22.73851815645433,12.210039868880068,12.15712032870894,30.298255447543152,26.474798416719047,16.287888339593934,29.925316838323408,32.01584230514915,12.617107484033548,13.296593272629885,22.42020188981323,12.534273763700972,16.198327799056333,38.15893607035869,34.987849796951885,19.678455207080447,23.252867404517378,17.36430496597553,-1.5806395140237726,6.297516734144659,22.699439482441473,15.17104556329583,16.18438375318211,34.86073600153799,32.38194403333664,23.04480204490563,35.62429497914978,36.68143644337536,19.744565557024618,27.68989879025569,44.04355131200468,33.25048597387023,27.186966086885235,38.2981624657593,29.6064564211112,16.59722560016138,29.484340985399008,34.322368869239725,23.204632794575858,37.577250194586306,59.48436501762821,52.69813318934426,48.655544037400446,59.652892005196236,50.758793495627955,39.869008874770806,54.88143697986516,55.51228543117671,31.821799478455457,31.708724115105287,45.446855024190526,39.91568697182353,43.142666816822164,59.1161111632259,46.174202185594424,23.01464720300782,25.84626541722254,23.54805973383935,4.883070611683407,7.8853108163098575,19.320146565450933,9.16353899854696,7.287521832539588,20.877976473524466,11.687298207499797,-3.7678264877115453,6.49055353892773,10.56294605770579,-2.1850338403164606,4.982318545691426,17.84731693115177,8.751125403858355,10.615747155040076,29.89925590814965,25.447379018411077,12.56463781731808,23.044494848652654,25.0879998109895,9.000490189429716,11.465516357652827,17.15225071264052,-1.8537866236439378,-10.62016010458461,2.108208633914102,-2.496042363262372,-12.058860732365932,2.391133445156558,7.0175604914116025,-9.199067095800087,-6.072708532107378,4.569158616989382,-7.485423219291593,-11.10108103746138,2.5178287669283277,-5.900772171313324,-20.382666773496084,-7.36328001982001,0.5079358203194151,-9.456490476404591,-0.5252604128274081,12.135293859818658,-0.3142339057853496,-2.8245618260375114,14.411007854914399,10.460662481419078,-2.983804738668296,4.011815156929739,1.7184718531353633,-16.83649475519758,-12.127177954958569,0.4469608793828801,-10.847141848209658,-13.127614047325366,4.420138312364796,1.9929006277153354,-9.152383049640587,-0.7144521088645561,-3.9906297021262285,-26.020748013451758,-25.045046674198545,-12.251814902298625,-18.452130896094854,-15.283785165204925,4.265370165902122,-0.12985920737357226,-16.061297355519166,-12.004045041596315,-15.978722734281785,-35.38198280853412,-32.658590202180726,-21.849480711467233,-29.678535338062787,-22.53111312308106,4.908016791286794,7.827353346242997,-4.060508829472902,-1.1030976021464158,-9.833492533431698,-31.63282582289078,-25.11879026314532,-8.985910643217423,-19.103643414416624,-24.116717449073043,-10.98512849934748,-16.094549676885517,-26.397295678937198,-13.373033943088048,-11.338712355677854,-32.32174192830411,-35.44841583034051,-28.898431233811166,-40.296754261026386,-38.07658313665976,-14.393983093887377,-13.066986941304208,-23.949557576720796,-13.791114270819081,-9.892864637317738,-21.052485392662316,-11.245890944152382,1.809101903790768,-12.974722357039594,-19.88069321556268,-5.379000568326458,-8.647360023263628,-19.915515240378234,-11.852800203264882,-14.085790257369956,-30.230919821237592,-18.401448267617553,4.699380489762509,2.78386726920151,2.5639983607183,13.057350191143218,-0.3099209296832859,-18.602218386137682,-7.679870791793242,1.2530244476168588,-4.127561915256915,11.556382666549709,29.713130945609347,15.598385291663394,3.636878713941198,10.229368194786542,0.03545882315641524,-12.674921015887849,1.063480928332039,5.421851599514035,-11.208861308458173,-7.3057409308071986,4.658478413499207,-7.652929167499912,-12.060974988839527,3.363459439696241,0.8132672612650351,-5.699543255627031,13.766176444357356,26.16358177375303,22.132702000595973,42.75130032683379,74.20885789006053,82.92409732409311,98.58152413633476,129.81118331340446,136.0352218430253,128.73060213406893,136.09792666809696,126.1804299297221,93.10194723058969,81.06069989183341,77.90940282811866,49.899801849841204,26.71910260830481,20.736384778651015,-3.455725735742403,-31.082494309273038,-32.71237104825583,-42.680449777306826,-71.77515396243662,-78.50442690003102,-74.1492188938665,-89.86337304497242,-94.5596148258356,-79.52954766040833,-86.35013425453214,-101.44712248067229,-91.74215309234279,-88.22781916534396,-101.13683978227604,-92.76390469963712,-80.33790182352907,-95.47396111896859,-100.07082381253774,-78.87540718733575,-74.52847333381685,-80.07084563554875,-66.82796571649584,-65.48495994115196,-82.70286742398778,-73.60777638905711,-50.931858962905565,-51.73705689590184,-47.25614142108186,-25.584663388516052,-25.04377831473696,-31.774207024086458,-14.343944028311366,-7.217552132579599,-23.884802614080453,-22.841118332414794,-12.29369877875866,-21.55524493386684,-20.24203134885356,-1.3468903867980977,-7.770813062073309,-25.73592481326903,-19.02041499623689,-15.595232392566581,-27.125976928781924,-16.717098476409568,2.0176427199942113,-4.240951695096279,-6.155847724261053,9.602591233971005,6.497102902900387,-4.476519144430113,6.895321825882179,8.666751825055847,-12.70327358537345,-15.587629534117603,-4.597765875764761,-8.984046170911183,-2.6937212125498884,19.85878936433359,16.727289848653122,1.3869593645590337,9.7768581449854,13.348918981918334,-1.5661503860647885,1.365213729312818,11.911603622224233,3.1295188607664803,8.148117102011852,33.97316517107174,32.98246361505153,14.788555114552292,17.61440292624853,18.7656554193833,10.786260215644372,29.21720956369071,52.35730196949028,41.68278264066931,31.472098726234027,42.419534008677665,39.77101682249102,32.841458421700786,49.031548253561176,54.79349419229804,39.42261265662068,45.84848280004386,63.59461137882168,57.91573151389052,56.40770682321014,70.12378774154118,61.32598209150646,43.66573440710788,51.04042002064761,54.671425263739145,42.87923305675652,51.731700785556164,65.334699536883,50.84352583015888,42.57815031010508,56.80610840733606,54.8607254450275,43.42448875044627,49.10761259989627,42.72704642565694,19.765969011526373,24.394579442339822,44.137667270529555,42.0723606729588,42.403753314514915,53.92482856030088,39.588284758677396,14.650561623203927,14.465559874395062,11.47311519200803,-4.020215499720839,7.133752581029681,29.133528946163374,23.455036262464752,17.365734740445447,24.831196233248033,12.204366537516517,-4.960082428790985,4.008807782962346,4.886471742396701,-15.313443414611132,-14.887780920395246,-1.3023416717490912,-6.448087843333234,-5.670387193655419,8.05397557912302,-2.204609964761664,-19.254934750524516,-7.656261533426084,1.5364026426476292,-7.3515344392641335,0.5891029148424716,11.846419686166962,-3.9654857654326703,-11.982021192666245,2.310789513408941,-1.0799153922710563,-12.743118457968594,-3.4679103427355775,-5.611397487046677,-27.36011225768575,-23.389195293987896,-5.233127494081809,-9.900382351885938,-9.978718516770254,5.8962547843916155,0.5938257715013018,-9.621215242392752,8.012725617726627,16.105225715004664,-1.681664037992979,-1.5838084426826646,10.012236781473339,0.9921034785777127,-0.3773302200544839,13.992233309702607,3.422261884666101,-14.808299486316816,-2.8782158417124624,6.056074774649681,-6.122503225712255,-1.6898143654995041,10.968269436697096,1.9429679231574575,-0.8630889488884489,8.983373134841646,-8.081585248156422,-32.6266903289377,-23.6857478761116,-11.118547987382268,-16.165633630753092,-9.661509552560517,-4.6870590168953825,-27.365096379648058,-38.52219200988978,-22.629423812979155,-23.33780561397891,-32.46369568828986,-16.873453375275027,-7.402119036538229,-17.13952600612348,-7.781438135408126,7.328481264896505,-4.207571142318291,-9.602019989166848,5.666996120363303,3.4775323229278774,-4.984727577990781,12.812451742372993,25.82473308321044,18.63752133755871,28.28394545450965,44.940466646877766,39.687873289724024,45.39801335886274,74.5941670717917,86.83405741555777,90.23793192052155,112.15296173331011,118.17811647145747,95.45359639878968,85.28544196480965,79.64108746873887,49.73309898073922,27.433909314794036,23.212520475357177,-3.6670452801909175,-40.01861607021921,-49.485560398127966,-59.467133914618465,-81.80687674100537,-79.13844895443789,-66.29076705787674,-80.37320948230193,-93.52057287607232,-89.45565400429533,-100.01986091415876,-110.80847344726794,-91.65669274284186,-78.29411555086998,-90.22127917996774,-91.47804259507572,-87.28285861630106,-101.06531672108393,-100.7154972434605,-77.88146024731427,-75.13538100584684,-83.17442354569587,-69.07721622307747,-60.3432506129645,-69.13346944336905,-60.319933847139836,-47.7091200638983,-60.456825014257205,-61.833077265724555,-35.91286248868879,-25.316785640367392,-26.89987831908534,-12.449265027518809,-9.586205178470696,-26.172272785742273,-19.894797365103244,-1.92494835469176,-8.681689820824063,-12.363400245575058,2.1150867623772793,-1.994796600366974,-16.46843760858301,-12.137029300137481,-15.80302947143934,-32.937786514094554,-22.11857921028178,1.6371635050952094,0.026013480184237103,-1.0448928793087724,11.190134019457908,2.767423721400374,-12.238719635555901,-3.132882783012813,-0.6575086200442577,-15.734907590972702,-8.418673664634028,9.731969782212008,3.5811394937993377,1.4823749695499142,17.630131543910586,15.011177984350498,5.202078183959561,19.090350386653235,24.040767658116362,7.7437230214463675,10.893523937448014,23.32674323670099,13.583636995903426,11.979532839908492,29.75565223337239,27.181865681174042,15.473011539253529,26.033680081975668,27.134201096587493,6.91943114891862,7.447897717302859,20.336660642874588,11.690449537550665,7.797301018484438,21.66650970117838,17.633439174257397,7.634063351141078,24.130255215216845,35.12154288950216,22.862496757666086,24.44397411206472,32.5938980363787,18.93489841598269,15.016160150653896,32.97301222676843,33.00873279995638,24.04506935446102,34.677353221274956,34.46017266654751,16.080197527877036,22.43478990995944,40.79869050956332,34.14999445056342,29.48900479447179,40.12488544951186,30.40662037721473,14.62637879030973,26.350672423420313,33.36361643911795,20.60130796394137,27.549913096425602,43.8006389477262,34.4119706205889,27.56640171415226,37.67762666881751,29.1535321666335,14.461289415349102,25.813509505137244,32.64175050376847,20.446736637822227,26.222145494437775,38.20518965070968,23.224050352833025,13.565117442491545,26.15609916487604,23.393432595726598,15.065032079364371,30.735267707940547,36.62628255829183,20.539882888508316,24.98802688897218,38.73986632859382,25.915718491268162,16.363528797194945,25.926625157784915,19.181522920484426,9.369299135567342,25.91284561672939,30.65720370705976,7.680449504032934,0.8580152169688617,5.04301512232486,-9.62027369559141,-13.015022025489525,4.644398598002825,1.1311147986931624,-13.100292419555313,-5.885618293077673,-8.771815563066177,-33.475498818081164,-36.53848842633016,-24.51135625011256,-30.095603385927646,-27.955292139403017,-10.549811310774501,-18.53517689154698,-37.2813754633562,-29.0793839156419,-23.793156977197064,-37.38551492410445,-33.04662576743315,-21.89186525809407,-33.31516049288654,-33.21532205036199,-10.61779373564603,-10.250744982252757,-23.266854050665245,-14.987289213573238,-12.37781986286343,-24.877230352753006,-13.129377164649586,7.779303680593926,1.442696367793399,-2.166285107175737,11.5494961807068,4.602380645264266,-12.147738310048835,-4.680050259817834,-0.24600447125440011,-11.400041366389942,-2.323113564470722,12.817549658754203,0.3420757227257578,-7.596899050661379,5.152279462975516,0.1619704142679126,-13.179047325786758,-2.8218574000579,1.8144018409222669,-10.632354022758985,-1.4142501845683073,15.382132461581328,5.410103620352019,0.3848694306319246,13.694851955257173,4.873416198758091,-14.983195471980789,-10.40282452439973,-7.689755776843867,-18.75872514901661,-8.39167280716145,8.175174664064858,-3.6239645312263313,-11.938153139924122,1.0003486587574812,-1.9465355815963563,-12.518252307794004,0.6870653734677026,7.663448389516733,-6.198415299977901,-2.4024717456588647,9.260400581842923,-4.298740405926121,-11.08127578910537,5.5034116152004575,5.1066643724440395,-5.798431130513034,2.2777467910943034,-1.7052516997652294,-26.82174202901214,-27.294962468711574,-10.438856346505945,-11.283137524531728,-6.563875165513712,10.064801730091244,-0.7771776261737289,-21.68077175399211,-12.406939439818139,-1.0347791954048629,-4.878706566786331,8.52281423697179,25.058247960371244,14.417742832173012,10.485147486194814,25.80097806520675,17.926641844772064,-2.9622520275150865,-0.4475686091734694,-0.6616884617088852,-15.580817196345876,-7.4085542039713586,10.798547145514128,3.6125239619992584,0.5231801707461564,14.715691283579867,5.116714100918454,-15.13135972619681,-4.871769390846039,9.083241559413961,9.759292503567197,31.371364582836488,58.894394731422864,58.73624068617447,66.00711836458383,98.29815210568088,113.84271898736374,115.93787961801088,131.1482027213974,127.50519950298715,95.71502108355152,80.87131231957389,76.23759780060016,51.132097621113886,34.974059952927675,37.88301811571747,19.68408053451408,-7.9337481503560765,-11.501371646768941,-20.84229341659104,-48.991359604543895,-55.990786816540634,-51.137494333363755,-67.39464811331715,-76.03145138175009,-66.50067873027115,-80.48681625738548,-105.61066305179517,-103.19621922566418,-99.03986082160596,-108.7857652147426,-100.57882755468854,-88.5778040280635,-103.07219446910173,-110.6386227268612,-96.05550680161646,-97.82816154619996,-107.14500956119163,-93.27765341112958,-86.1992210340222,-98.0939943252011,-89.63595364692964,-70.82080890468406,-73.11563842602439,-67.25170622314309,-44.523756436905394,-47.77045531998946,-64.4040511594895,-56.80962798227486,-52.974387413218324,-66.37288182703448,-58.742865765563025,-42.060374009729316,-49.61234033230798,-51.08299926431733,-34.90362023919636,-40.657312924997356,-53.05960483932072,-35.170366380584134,-19.13422765991308,-23.245528900541057,-12.823613914360443,1.2594155235179052,-8.750182725994236,-9.826825565375918,9.366407300809168,9.03248325846451,-0.11996443389975164,14.902511647805753,24.823831211821165,12.336287842438768,12.689907030976386,21.820475509002872,14.686585846672513,19.793163164140086,44.22077952655086,42.714537425992276,21.817206337973552,18.79760657743216,14.876948742449184,2.9284500707068126,18.596076587801804,44.69349185439381,42.69237190239772,39.03813798118097,48.46999293309249,38.039375803988136,24.144119992134144,41.326776506567555,56.70076863222152,52.468929060903776,63.60068300117136,77.59116537963025,63.97926701311869,56.33916909673866,68.77446175919847,62.119169126695226,46.904001082894794,56.158445658620884,61.37470963189028,49.90508531744714,58.14982861292842,72.21465355953075,58.592371781262884,49.083247416038986,59.459773868943515,52.64046942553554,39.800284820715746,52.94417669949107,59.98900370986425,45.51015155918223,48.27558022407233,59.671614306203054,48.13493533712594,43.07341071518057,57.06047280259535,50.21955082421426,33.1674163881588,40.52444431825835,42.52238716957888,25.80969067493305,31.336211658089596,48.579273028165474,41.7646898261158,37.49784775914061,46.98808941724281,34.08082020411189,15.992207209949322,28.421092726331164,37.82766657835205,24.99768214061649,25.774308682788124,31.20105780021839,11.259882865798312,-2.1600981596306292,6.722439179059302,0.8517655059670677,-11.02159841962687,-0.1784607269870877,1.8500510121160751,-16.507498216337062,-13.484276505291026,2.219319093271271,-4.733419691045426,-9.785080409726534,-1.2265140968189012,-14.046555919534114,-32.49077512844323,-21.85653696699569,-13.609574581621928,-22.68001684788956,-12.063518190243252,4.762831646347415,-6.354618463485503,-14.65984516401832,-5.059848947910293,-13.503133272347117,-27.39571624197212,-15.44549068894512,-9.686266880668205,-23.057830761899922,-16.001139840078874,0.7374926032346512,-6.270942228669961,-8.233286493933635,7.530682382629918,2.530921008980953,-12.34150453594205,-4.888885305304103,-5.47567118118646,-26.292047536036215,-26.48097660541114,-14.523951814221583,-22.992802050741265,-25.285801164021645,-11.347518128409854,-19.06987059532673,-34.35083445344249,-22.90337340396369,-16.698203488274395,-31.249049034335115,-27.455891910891047,-13.928345675704632,-21.004237754339957,-18.49030816890292,2.715370349192227,-0.5072709098117034,-16.934700291396496,-11.271797468464248,-12.700860473059294,-33.72672425636563,-32.97913873095303,-18.12944993664205,-22.329233985439203,-20.904604987335865,-5.498003511334673,-14.360641238962263,-32.612032475433075,-22.445161598037423,-11.421700813336052,-18.17882815513883,-11.970177558145735,-2.581707347956794,-14.786734253709328,-14.58477247441275,8.939777939327383,11.845903349566724,-1.6508106157878402,-0.7028177698245517,-7.389777463672764,-26.746326309029424,-20.582548773316837,-3.5672395963129224,-10.746730617048396,-13.430281234087612,2.4879774844567217,1.2486117815462463,-6.393544250690547,7.349491509965218,8.76944203803446,-14.680281024218905,-21.338008414590846,-16.33243331610453,-26.072613282654995,-20.321297216679792,6.84339187849333,8.509002689843728,-8.023483857922518,-7.833050655172695,-12.615829629070035,-27.6748020636755,-15.116532341079022,9.818915373101444,11.29133222787244,15.226768317467847,33.59539575381886,30.989155372403076,19.865651478043965,32.89374645544284,42.49430362227061,37.41182758059606,53.861918545734554,78.27345095640896,79.6193666633695,89.92519759528366,121.19290612490194,131.9312174169631,128.0364781475821,137.65339633216024,131.7348988204378,102.38596994659008,92.99089172730447,93.00742970914963,66.28753563772943,40.07759513984811,28.784041985670385,-0.8702592996825818,-33.04731398085402,-35.11791565750587,-40.47159688226355,-66.46962697042585,-77.81976887284601,-82.36129311494855,-104.44222969824517,-110.9785796863868,-92.9785563636984,-95.089559405079,-111.65361464731237,-110.4483594226274,-115.40762898969805,-133.68213837555766,-126.84923616826308,-109.76329012293593,-118.46280706933123,-124.89278803491347,-114.48835663563938,-121.30747172056806,-132.2950979592377,-115.59910636858413,-101.61304912322495,-105.74893104953674,-93.38149296266747,-76.10274947680116,-84.72891460534663,-87.85950480618479,-71.57371852486568,-73.9250567595541,-82.51141392985494,-63.770578746201096,-50.05621872948532,-58.158658375159426,-51.432881837174406,-39.035236934226646,-47.85426821866653,-43.95414417364013,-17.04280318728031,-11.725532216560579,-20.75312283119981,-9.686959833414042,-2.453160198317759,-10.338859113411583,-0.32883276350062207,13.17334207439032,1.5140279325867683,-0.4804502040668259,20.425956929782213,22.875064816244237,13.760077932305812,23.175516286349577,25.961450515105476,15.781792247951891,28.89162560592274,47.70998339449626,37.80759527112919,30.545279489532597,42.0595616015714,38.51087650126098,31.196358239075415,47.361886057320554,53.3431035776365,36.11766099354176,36.25286524003893,47.07933119588965,38.82167207105084,39.09911218525486,56.21739448001121,49.66859118950609,32.95870208365565,41.83406203342118,46.73499364409623,33.310437340285944,37.68316542739883,47.58236976504893,35.06965297688991,35.914501873099596,60.89020444800323,65.34333951985559,57.060095540707906,66.5370858715965,64.39775174018033,42.76861841742408,43.83638847901266,56.060920065977186,45.81637163938925,42.80252604384223,59.28640244009921,55.000761054290464,40.181378263858605,49.33143907330124,53.98202951306263,40.753724184996415,47.89097879832051,62.83054172162889,51.10482798334491,43.330295966473315,53.47893937090052,43.27283523315818,24.866764852709707,31.794485222622974,34.28826158322741,20.377656656714827,29.42269524480409,49.06939652093,44.23382112902238,41.52294827505684,50.247575868229006,32.1890488216136,4.189621290944443,5.567518841214261,10.230244581383149,4.6631813626351555,21.252992728790197,41.36865485465392,30.203813143042204,20.27227142814224,28.758210322076422,21.17674296749038,8.406063302155221,19.633037656530682,22.909290821625273,5.587248410417794,7.477146189177809,17.835573398660443,4.680212467332837,0.12529797681179422,18.832322533318365,22.821358787350622,20.2913119311023,36.1326285960449,34.70444707152997,5.97351439430771,-3.738793416843964,0.24042058964292634,-13.552266571295942,-18.17513777422524,-4.174844210771728,-10.225219719001574,-23.23010360902705,-10.961540405071517,-7.067800993914508,-26.73396645052422,-29.81251955773118,-23.698310616811177,-37.15501514028673,-39.24561127540511,-18.751271408874306,-15.133297983199878,-18.962680871814964,-2.5675219729238687,0.1126820970660487,-21.016818210115126,-20.281464058284858,-4.950477571227322,-8.286946981896934,-4.759395222469853,11.845992676143261,2.410579011284068,-16.232135391700055,-9.50243556190355,-8.953501444117736,-26.976869714964778,-23.84199419004819,-10.329408252582418,-18.797649128981718,-21.15573489891338,-8.158379909205054,-18.28652180994314,-36.863211349003564,-30.056448821356312,-28.438753779851904,-44.09393095709765,-37.43070443877005,-19.522702875400114,-23.526014252962028,-21.977531336416025,-6.395680069086734,-17.027345632632475,-38.832773549372405,-33.791429822690574,-29.827320951041663,-40.69147728509154,-30.165601660956213,-11.711565277908576,-17.447760794342233,-16.627944513760298,1.3535964957263786,-3.5768471825893204,-19.234140762184637,-11.959058687688195,-10.216885308271724,-24.791296334775616,-17.4133295099848,-1.860811735823522,-11.325326545954,-14.596653646431662,0.5236999654554202,-4.438006087723533,-16.462322974971027,-3.874724240002922,1.1103094560327063,-14.552974550554598,-11.445555662124299,1.6176727369738302,-4.989168155063955,-1.7656877716868387,19.876473702573414,16.880756333760054,-1.3135660191796035,0.592389490017637,-0.4456778667131387,-11.401818131904953,4.864937885022676,31.675531323829077,34.25425175569933,42.80561984067949,69.20949373763109,75.66110968907776,76.03620180810272,102.55225443262432,123.35962099881759,123.59622208694293,135.28896579054938,142.19857858641677,117.10280302856937,98.47098044974405,101.12685076251955,83.39709292079237,51.680229730009636,37.58511224847141,18.415435316206505,-11.92134945444473,-16.991324162240783,-13.670097885292627,-38.7657723265365,-62.998230562196696,-68.51999916808305,-88.15481398391465,-110.44311731445129,-106.45423597934735,-109.5788060946827,-132.51433667618633,-133.07477036604206,-118.91225358658446,-120.86417174312571,-111.72777198958362,-87.51137675641837,-93.47149158018928,-116.39332410997685,-117.43064799313784,-120.84338339208628,-135.24907357036457,-122.87490439458949,-100.43367285223175,-103.32392409898925,-101.22351385632275,-81.83244924439575,-82.31441476261328,-90.28662000647525,-76.30544956437856,-70.79109565484896,-83.38537218690567,-75.42968855593296,-57.6033309740553,-60.51766865397765,-56.56201336621548,-36.08537989506939,-36.30451802606886,-44.17196447498781,-27.61084103183152,-16.48770792098889,-23.561836878356733,-13.549564871043483,-0.2532154236514401,-13.71384489527404,-20.06780030392229,-4.25878826849379,-2.964618933370179,-6.069790972240389,13.312182621212726,21.819263067664135,8.782751418935582,14.007921800189152,26.178399185906663,16.333349711455966,17.521483961644105,40.598440200441416,45.46505572494149,41.18449880403511,53.74987215367071,52.068646496809215,31.310494784991807,35.1429680856899,51.93556049830093,48.30477707006661,50.80358027540198,67.85359446766772,61.93135108100492,45.69444494339381,50.27548499490639,49.136524521498124,35.16414904592605,46.808858255056116,70.10290485035496,67.59184539012124,61.84186973886155,65.46415593941524,49.05423086133257,30.819240739482503,42.52682658430681,50.8357468659485,40.956799376443975,49.81307289521235,66.49737090344156,60.68547365781377,59.87506156568254,70.88477229800996,56.3670312007951,33.83361739514908,37.768357749519026,39.47920686982964,27.89149447898656,37.299536592522706,52.94876977695651,43.615328994892465,37.58058232956206,45.14718113555027,31.492116252381205,12.276361544281297,19.35821103190878,21.87742779664438,8.062373287065618,14.899906924442682,29.901571236883004,22.636713849135585,22.055812247223262,36.46576042579985,27.59884565204368,10.01587335060102,16.1560508725258,14.827351700107739,-5.843869372099871,-6.150536656135199,5.490044633564949,1.125433575641266,8.638703509902731,31.67683357155463,27.368835291328296,9.453345166159663,14.595273821722465,17.63427072842096,5.863518036939126,10.526676171819254,18.616421286187993,5.675371841085901,6.198110633528237,31.29617124942067,39.409098434343456,34.40444691314565,42.68776111577133,38.35950006356535,15.98682078435941,15.181374689965937,24.230313719348228,13.58696126666563,12.815064645660119,29.10494011111279,21.49519910048904,1.473055114078396,0.9338190000318809,-5.392160173154315,-21.52221646617904,-9.25487002068237,11.36854920795422,3.217611571875314,-3.1635503238342535,5.838339167913162,-4.609261647573308,-19.18548057772051,-7.653305969383381,-2.945867109369374,-16.487875704932673,-11.409070862922555,-2.052653497180943,-18.132481944902562,-26.219025645439384,-12.93754633176762,-15.983235152844351,-27.335967983085844,-19.804326290604543,-20.326764922852878,-35.532779275356305,-28.050177825081683,-11.73163842237467,-19.272248213926602,-23.720072046467546,-14.57336183157264,-25.66205314573934,-40.71732226323132,-28.347059352337457,-21.022189664145777,-32.92529117782067,-29.614066013889747,-23.987660273360873,-41.77123293582726,-47.98863564611341,-33.599311587363644,-39.256904436677935,-51.818326766977634,-39.207734500082836,-31.34420377756073,-40.8106431547257,-33.937620990973215,-23.646552853661593,-35.47720950182383,-35.233792143687985,-13.042423540947272,-10.35748089972195,-19.424340727011067,-11.403828691513182,-13.02544659183446,-30.64884678524809,-25.114318398552467,-9.49054040876408,-16.786601950510146,-18.581798200172106,-2.004420409986503,-1.8991378920107502,-7.283979597608009,7.81274650661706,9.196766596324952,-13.618757985545518,-17.160251815725925,-6.864994936274511,-11.621247241050295,-6.207853852217946,14.137135386510645,11.199476588587311,0.1418511234396691,11.66604375205386,13.852970478535862,-3.134955751043515,1.4829073174492988,18.20510993044859,18.300496813308953,31.083545946200996,63.688564843001465,75.26545287852424,77.79920205353976,103.48698522449612,121.77723624314783,119.42938140033996,133.09866689446176,147.999685684544,128.58675245470647,105.34254309503372,95.39864874996154,67.50276620070147,37.87937432850511,36.383605486023484,28.18302749704796,-1.5805980437114684,-16.70873957241052,-28.2547507208891,-61.75398001112177,-80.19434944584034,-71.2881853116645,-77.76388461477073,-92.95007807807531,-90.84238032177294,-102.41131236685943,-131.59968882739778,-133.78066281888306,-121.50995365925543,-129.43173975356112,-130.46684677433453,-113.48250627828452,-114.04557574518303,-120.5614911116992,-105.3355098413065,-100.41813848075928,-116.90415264266662,-114.18628047251954,-98.42588150499446,-97.61385753425071,-86.58024561573446,-62.21589301212717,-65.82040242000947,-82.57951863684666,-76.94471322128524,-75.05144544703501,-84.32258781156553,-67.44537817169133,-42.14104340613877,-42.41576050959357,-38.21579856364024,-20.169605274666015,-24.790199970768352,-34.64052568653805,-17.84322183185673,-7.141874540464041,-13.816996904231367,-0.5168997803493376,18.272981389098593,11.144206238400933,8.74338772744518,22.946819857835724,19.53943192383332,13.79436813520963,34.48938615044378,46.175394319205054,33.864666003736346,34.535284522203995,38.301319307136446,20.32939100151143,17.011997314070843,39.33807043315439,44.28990546277793,38.2534709350368,47.732866728751944,44.03403648648318,24.363239405439217,32.42470398528424,53.12587145795585,49.93611331799577,49.97123391281134,62.596996465341675,52.955203759074,39.86087185522007,54.431718037286494,61.90603395596879,49.682230915923085,54.27552672818659,62.418806479303356,47.215955562838005,43.0342663552483,59.803457090148264,57.41443502333896,47.69480314912836,60.79780274996587,66.32920732053489,54.201769988923374,60.36485123707928,69.64670800833956,52.0170419731065,40.98640959194399,51.21696742077536,47.54859241802146,41.13033849858879,57.0491667039908,58.74368253320874,35.26736127132569,30.501600654515627,37.805144775238354,29.71783369109007,35.1382014784878,57.309295298551646,52.54266721717833,33.80563558216245,34.521128330342705,27.519373901268928,4.92877859516285,5.135861228060553,15.22387293267722,4.274037517806224,2.07898711491109,18.845054320555427,15.519958081882237,1.7261378028997103,6.087463695444871,0.6336093884050418,-19.01153240376463,-10.61279841236302,11.620416302644937,10.62430370078489,9.595130747513888,17.320039392649807,2.4926860175934626,-14.217871935970019,-1.454205967823003,5.709533630102726,-5.912557618837535,0.9708174995599093,13.643410061331364,3.7375092708129043,2.3922332763100407,16.43680524805833,7.605007850420917,-7.3835246857534464,1.765527609734467,2.2951874008897803,-14.17920359217396,-8.893643382552884,3.981635452559241,-3.713428059700016,-0.6720969233422434,18.975130341243677,15.576642685065162,2.409192842496051,8.516198244356168,5.403942938161036,-11.360967816943843,-2.8955405309219002,13.516335069907791,4.762501615722959,0.27406070424801426,9.26253526351746,-1.6449936193191252,-12.59380807404852,5.981607460392827,17.151065247514843,7.1080011676479025,12.006760616293825,18.01102753648245,-0.8300865760020031,-7.676641112837908,7.305438883373646,2.737679331066215,-9.620354197324312,0.09478655877005426,1.9372281004104877,-12.727195557393763,-7.907257249093994,0.5469551136865194,-16.46053876846617,-26.509481155735713,-19.321055861458234,-30.112046088544556,-43.64048492569653,-31.723184008733547,-26.033375156403807,-35.776723723674635,-26.02707672044206,-12.62916011051344,-23.567751945738802,-25.691871338746616,-9.105450279779463,-12.152756472167527,-22.90040550805945,-13.699990840904455,-16.41265556054513,-37.089543835302344,-32.151755910533325,-14.434965450197506,-18.372464535406827,-17.48329395097783,-5.0871109299637585,-17.363610033331227,-34.16885750371494,-22.89509924514505,-18.81661722628732,-33.9584946252056,-28.640961289035598,-15.417016006840383,-24.050686164513913,-23.10581500944335,-4.799682021837539,-7.535416411691655,-13.364630096518162,9.729404370102644,27.008778479490054,25.75236763482627,43.047600756629606,67.0270986385851,72.79216739231246,92.70974864246404,129.07591382684137,135.3132085300256,120.70227485751684,115.42623031069094,93.98849398861881,55.82597070783104,44.38519300518967,44.193565675074744,21.179762847519022,4.4520360915047785,0.3812012917430414,-29.988292213500106,-65.58924749004932,-69.71391344704952,-75.48826692075602,-94.42109175177406,-88.28321386948903,-74.49602546285351,-85.67168125784187,-89.06628154167333,-76.98991039997689,-90.23678446692159,-110.39299026413644,-100.42889212070267,-91.43151828111871,-98.02859276503145,-88.01269991776681,-78.65709602747076,-96.67343613306663,-102.86042814941433,-83.75739983547123,-78.78441903967894,-78.33771278387763,-57.72052096258632,-49.614825521292815,-60.51404840991484,-50.94204556938981,-35.671444899816926,-44.84937609205079,-46.083240904412136,-28.76452510169546,-29.06791970816989,-31.76334861605983,-10.37276432894995,-2.1877551441135763,-17.57686278528372,-15.327620044575255,-5.364732881185603,-13.63395626859133,-9.393757234569286,12.178479515977315,10.994799964888564,-0.2363809226167417,7.092622573707528,3.928434990487785,-14.540287843833333,-7.357748627842741,11.0134610364967,7.109510926596782,8.434921482606171,23.522074937733784,17.850791251879755,8.577011544737985,23.14207349487933,25.70881928410177,7.216012680693682,9.534254789547681,22.038815316867097,15.092877641739946,16.45038057155322,31.18290983867346,20.870087441144335,3.1312699107871484,11.768757736981275,16.418094903866056,6.0327301946350556,15.050377664103246,26.142843111595965,10.135027734283524,2.8051899996332588,17.681119686255364,18.2189475728915,14.806184044584398,31.229733170488085,33.05495435641127,11.973291340977843,9.657273798304432,16.820800228394674,6.536408223668752,9.18183565209917,29.85856507453779,26.445566412674623,11.854034887722719,18.411755955563823,17.944160667564606,3.7229965999868577,14.354555714523862,32.46680916891872,25.01669106721271,23.853644724497038,39.33975700187099,33.95429139315108,21.645356718577858,31.850652774165667,34.087216081073194,20.653677407211227,29.35025751817786,44.64049086377144,35.452695591916616,32.44983056808554,45.74266496634431,39.99713749911878,29.26223907416895,40.24494751080621,40.820724421506256,23.892390572972715,29.051629787412992,42.7303361649804,34.83266520040036,35.9014539221312,52.75293641009714,45.26851597056119,29.23124017938298,36.39699598171829,34.4022501847945,15.030312898538424,18.242826134166446,28.638957020729634,16.474696272712073,15.165906681849776,31.32202764156726,23.73838121991318,7.946322589951559,15.792527632396807,16.968060168095707,3.6499079551176625,13.075855686497361,28.047700762719778,16.90484001255333,11.908713687186989,23.563822338690347,15.423650929582035,3.164107622356288,15.668456160042723,19.581892429719126,5.180280885643194,8.475483446388779,13.59666359921663,-5.20693462592725,-10.50345021110627,7.741379889362064,8.50021073375217,0.7154106351980425,7.935109372598159,-1.001387055139527,-25.941864900405413,-22.469642120125386,-7.112854720596549,-13.754809148065469,-14.24348055034951,-1.4016495726528602,-11.036017748264166,-26.5359096283721,-16.968434909077416,-11.877420204662743,-20.799355137302875,-9.307128230826264,5.265961369113011,-7.963635054916568,-15.972267823721644,-5.166642424835181,-9.329449493936849,-16.164203368003147,-2.0278727261574643,-1.295981397303148,-21.613341649516293,-21.336456721253615,-10.144715104615234,-17.015289925901396,-15.22855279049124,-0.2525861737140902,-10.041018998286859,-26.704347511221947,-16.504273234931468,-11.133894834131379,-22.623717379968035,-14.02686767831199,0.37290364708124635,-8.923203282388748,-9.611000864121786,6.311846312866614,-0.0787721705843678,-13.057419094660936,-1.5028105575384627,3.0892686591915295,-9.703283593455197,-4.3423272211323045,5.225159763926708,-7.364202927007009,-9.599536374898916,6.1607275444017775,1.1750590325406596,-11.811933651959373,-3.336520710361857,-0.038292803033622036,-6.161941374959298,14.560696252146656,44.642187011671226,53.24870780931053,69.20046092356428,99.80361940328682,108.38792701291095,107.6110593253567,123.4141296589096,124.09944172942747,102.664791761194,98.5696210745686,99.04238011338272,75.2328353265739,58.46751830369891,56.77459064245957,31.224486308849045,-2.3816238410994224,-10.836692083197182,-24.56792757197673,-54.69919061308192,-65.51214787784619,-71.86863907020523,-100.74340338966056,-113.95804980303915,-97.76210895021879,-94.13547541555837,-99.5764850799014,-92.50499287586312,-103.66683300663813,-135.21126064742498,-141.39230912789017,-131.10245090499723,-135.31650132878352,-128.67980966961386,-105.71847237747284,-104.19475671034871,-110.00288620920618,-94.3907853050522,-88.58726344932539,-100.71089815787727,-92.57021621886432,-76.97966216795695,-80.86077648259682,-72.50703220185706,-45.8795817336411,-41.747048627527874,-47.83559898181508,-36.08300946456634,-36.84865560135121,-53.89606755516898,-45.40348648452683,-27.861608991443937,-35.159381428293834,-37.47458738020234,-24.62878497295062,-30.560484064486094,-37.687522315281186,-17.670586572934386,-6.439859513149429,-16.066669193178072,-7.802779699970384,7.360426186212223,1.352794325834437,3.438753033487696,19.9462179848879,13.660585188123248,1.6742202437879827,15.699922050260712,24.171762458364515,16.017771000126295,25.869854559742308,37.67238982837411,23.808503281663466,19.6867768100893,36.2485323111111,34.66653737492486,26.92654210980482,39.75832986600953,39.82242157652483,19.017353551540452,17.915333896310276,26.141564109165476,16.170314943958285,16.409638273659787,31.357854113195078,21.983078371738422,4.074993096332346,11.149169413080365,16.86455313565819,11.312583408920425,24.52153761827555,38.393956008277854,25.489930807659682,19.17049517334732,30.772446937270217,25.115600877369346,15.39086351463861,28.77973680537603,33.86559853651582,21.25402636485503,26.60232435003007,36.558883527446575,25.52016121264044,25.915802151760715,44.56038810601774,42.88330733480653,34.43074768207328,46.685125703883344,48.116916433713435,30.850319376637973,32.640892962779205,41.26546190193621,30.859778698909768,32.20843216104667,50.074823704264254,44.940288039863766,31.344369978555612,39.07191161983951,38.772023504918835,23.16209280414476,28.407180356174617,40.29000186840073,31.73646266095816,32.69058304877416,47.74129506187151,37.62678942465586,19.136692504071576,26.312623089512748,30.14963212185537,19.578838874153092,27.845274076473483,38.10340375089162,23.034346639192293,19.055314254937013,37.12312383882347,36.09182148466608,24.95042505376604,31.121593696722066,26.049110977798183,5.120049220720106,8.674560979029543,24.33903676381218,21.49648883358354,24.407813554869072,35.648796026089435,19.602372196740195,-2.309872741177111,5.127734488694521,11.651804813288702,3.446388909752659,10.633945837471787,16.21192864171782,-4.110319048176743,-11.195927202525,5.8703347799346295,4.603810031146766,-5.324763191233451,3.903690175346642,0.5626716481698981,-21.47185431104041,-20.095302549199765,-8.117098232288576,-15.629693628992156,-12.796646625069792,6.231629634734354,1.0590898326820923,-15.658548482294027,-13.68565514860843,-19.355328392207216,-36.19337167658321,-25.693770541057713,-5.3216297005104245,-10.11940003981264,-13.900404142319088,-6.6838900025002115,-19.240890944096915,-32.680164533689386,-17.448668368711996,-6.801008014930453,-14.261201332970623,-6.6431485600127855,3.1323642218545458,-10.112408351753182,-13.55724604579601,1.3721572124070214,-3.2123403683846536,-15.492212159285415,-8.563520807866395,-10.311207629905955,-23.92728916590922,-12.372490445105278,4.725510212452463,-5.791533270328897,-12.66301364795265,-3.9331963487248767,-12.468604290744942,-22.263668313431445,-7.706532047223629,-3.5923993708503206,-16.749738449032506,-5.726170039413552,16.141727982598518,17.108163674278085,25.142145285931573,48.474715269574844,51.18579264777178,47.61784121526136,67.95199598505113,84.37432778519894,88.62356532477209,114.42635338794652,142.02832533314097,135.73051122576584,124.57557359486239,123.118052085061,101.06908628916466,74.01137297271009,68.36520507762798,51.10594066069619,14.213140681595547,-2.0767771846210654,-8.396282356732419,-32.72719666216506,-45.932297481279974,-42.333725738931264,-61.866120082157074,-90.69192900312876,-97.32611265666469,-109.98257878192331,-135.71263008014864,-138.17117538152831,-134.10716971828654,-152.23719600093045,-157.83513343725514,-140.9059648253728,-141.48800700375818,-147.97855792853625,-132.00308518834737,-124.28019380972236,-132.2206267220561,-119.08568500646348,-102.11008788619037,-111.37341920333702,-113.14612279910537,-94.6509153409472,-91.45077706586939,-92.90127206625387,-74.61419501279023,-69.04196160321972,-84.41553706524506,-81.19138102727908,-68.5259152417999,-72.8178846429016,-66.17846759643191,-36.77634883582336,-17.70609433227297,-23.02798099084899,-42.10380115204116,-64.08261476593673,-82.63584980808895,-83.64111990504817,-50.808882441700405,-14.605432689927172,-17.81426979847299,-31.375568753664123,-19.70055426133298,-13.151399405092992,-20.47417804918305,-9.380570732605523,1.4919096142709574,-11.921616740615612,-9.63064763602399,16.701539091217654,21.393991040068126,14.949110070314534,27.901435587676957,29.037599281125658,10.617342745149982,14.004493163182795,28.19069919677484,23.765229263701023,27.867560359081278,46.69881565042813,46.2155541416174,42.753012547533686,61.04380151276737,65.04198522463813,46.582694079642465,47.722487311812394,58.25932114374271,50.293803469442864,53.50898300145228,72.43141966828841,66.81344895035353,52.2460510523896,59.13788177530673,56.111669198462614,37.081516990402136,42.64609346292999,57.329655246612,50.014348158367234,52.247621348612284,71.73913846307592,68.64559349979803,55.97039835838711,63.22828034861671,61.141277332547844,43.52186523896162,48.437039833351086,59.348566544769014,45.75895676798713,41.07223592892234,55.831879199553235,52.901814319668794,45.653375080108006,59.68440562100676,62.05261316110709,46.92514423229967,53.98033254951344,70.13491764086268,68.38537584047256,79.09759993229079,104.87198361749402,101.53697197386634,82.03356781685537,80.76906174444443,73.52623063273883,55.03586197878663,60.52008522830252,70.99954983720613,56.7837315159075,53.05757963364261,69.33252134513015,63.72746107237103,47.196025942868154,49.89986202959571,44.48809687301917,27.20265308314363,35.95835615933865,51.214176250502206,40.25596142941427,35.07055336980753,46.10671966276493,37.082010669490735,21.993758073561988,29.026890885014858,27.43826178143577,9.81366001419509,13.251432662024625,22.055271533779937,6.337197036787996,-2.4582637169792827,5.897070752593926,-2.972906621762461,-12.676213870713307,3.6896778229602596,9.387131981501003,-7.290916873548941,-7.360730422801888,-0.8658027831815183,-11.663755806936987,-7.835407073633954,11.712901070555356,2.249768579363221,-20.65788559789251,-20.736152267958857,-22.423223293302307,-32.83116104332366,-20.32163570763451,-7.35308065351626,-25.221561668161268,-37.62644475068248,-29.94788879538638,-36.104913148704135,-41.70427128262985,-23.151708082963715,-18.729670261430165,-38.653619396779796,-42.76585514763323,-41.24127852759024,-56.695733970182395,-53.89318239528272,-29.192886772655545,-27.18881777720467,-35.59990039109267,-25.8161022106094,-28.19248220388316,-47.24755307092273,-43.21519634503234,-31.391812138719672,-40.93187595652024,-39.53979332488784,-20.691914247327773,-25.856390676120814,-40.49539579716513,-32.137911461767,-30.709347534753114,-44.83150013033995,-38.309260720265435,-28.504079264729675,-44.71192185159905,-51.28427103908215,-35.72309076275525,-36.42542680647719,-43.10995879125233,-29.529809946883148,-27.991991203911013,-46.219842023901734,-43.67221013255485,-32.10934235870472,-40.42468062883471,-39.29834915452865,-23.498194210451054,-32.00401352678714,-48.481831126207766,-40.73208623434505,-37.74467531413134,-48.72881570971913,-40.06777911128927,-28.128929260529468,-40.0524837215102,-41.66631296611688,-22.34661009341131,-19.746013214883988,-22.78912010581775,-6.197565429348387,-3.2591525503732743,-22.375856669341225,-24.149048631850544,-19.133640377176892,-31.098966082316295,-26.841400899346695,-3.0219227168213694,-3.7023261541933445,-16.060101959004065,-9.308925942658282,-11.424881522205169,-25.967029355824415,-14.930981317333957,1.928696919606292,-7.6232680981437415,-9.903853539592797,8.079144197874221,11.128837861436523,11.51867193323097,34.42605293257803,46.39754959344661,40.005221263055525,57.154821722907755,88.16632589788433,104.32305777174885,131.41892722932968,170.174889472947,176.62732701177833,159.80751295426825,149.16552747331184,125.17374964352398,92.62899617877385,89.87214404120509,93.36539622420534,65.57523541603524,36.3760608503341,21.568002140298574,-6.463761940374727,-33.05344554428165,-38.25896708317762,-57.507929603164925,-92.85668813966882,-97.6956684998328,-84.75718236921936,-91.98485823137726,-98.07798081672564,-97.27783112397694,-121.66694603850245,-144.86184494604234,-129.8681724348679,-113.28968262915537,-115.3080502768463,-106.45218561414933,-101.54100156234693,-122.39124299645277,-126.69315150953857,-100.48576348626824,-88.28905594927197,-87.70917042753464,-74.70131995911285,-78.11148266975893,-100.5552228200628,-97.46984901315618,-79.84423907486828,-80.0061578160192,-72.46470675767452,-52.4334266918461,-57.38309533442835,-70.26570910014651,-59.53293120406655,-54.58010495385006,-63.232647507521996,-49.84394442674447,-29.829531049802434,-30.93427042341412,-21.941416035962796,2.7757228653019226,2.84697802617875,-7.704548510027404,1.8682995445696111,2.676623448017573,-11.104019305232184,-0.28270086288811935,20.376035873144836,19.55787423858809,25.641394618781014,44.377479892500624,36.43380347816375,17.282590326177985,20.490466655319132,19.173887932828425,5.612289692673452,15.223990953494466,31.79457679889629,24.93929138655872,24.687867833805278,40.47229427083363,36.80288208085772,27.409160084439286,40.519182651638964,45.657381956172706,32.80898722306286,37.21058316793461,47.07707660230012,38.621990811943114,44.67897386553926,70.07077556527092,70.78240063629063,55.050966892400865,53.527495993604475,45.70844965471423,30.790790734859186,43.68662402346334,62.303584380802725,51.08428284375984,42.680536626552275,54.356918366736295,52.32297513317248,45.18320249352052,56.70640141378544,56.119227719029055,38.701386380798326,45.77454948766338,62.593826500673245,54.958455870475845,50.575943049862204,60.16283412000096,51.10051080890088,39.71888420481109,53.352527354300165,58.37406596164509,44.024065511697906,46.39918817577318,53.41760971113413,40.38588537588288,40.65341297639041,61.017738329125535,59.278590056352016,45.67741134817005,50.55971891949533,48.1255873319098,33.180870109266245,42.27154952562867,58.77989476327777,51.32909967492982,49.96051401802553,63.39554788158202,52.917239692013275,32.524748289336955,36.21181570559863,37.63055875240721,27.153962682004796,37.21555901201525,48.648322597920654,31.33943503283829,20.7595364533127,30.54057295133985,23.866916071688184,12.650865717973817,24.989498625376815,29.812162011670242,17.042737654483748,21.981324806848114,30.666612461152464,15.95429710436829,11.064782506156496,26.316790562491423,22.494343016741432,9.523784287683375,15.709473901043273,12.042103688769629,-8.874343157022054,-8.168307924103452,1.9345956324813343,-7.8827033874389905,-8.333022981779477,7.346132938756919,-0.061611212514343094,-15.790523104284603,-7.538863410033078,-5.98780965862652,-22.92219458632495,-22.115863367479577,-15.539486421674937,-28.24675775085593,-24.85431438323961,1.7226884968471818,5.1629220832284926,-7.581896793744177,-7.3147504642007775,-19.918336659743517,-46.0736055313091,-41.36407665870157,-18.893051485131615,-14.055245581663385,-5.385297067243404,9.056110487642943,-8.04679780900041,-34.8767491906156,-31.688730510909384,-25.88123475034747,-32.5259230736464,-22.374591859312183,-12.550110580106,-29.43079266210846,-34.949906547352256,-16.640369679647634,-16.622717281416683,-26.404956040819723,-17.127848467939096,-18.11468888065902,-36.229212657047086,-31.545637725612288,-18.08917311934364,-28.133609718314172,-31.579154689278173,-17.556664695401622,-22.58437584322296,-33.29205725242263,-21.090739718618146,-18.556614457158293,-36.94759893695296,-39.11307274329677,-35.15036738355388,-49.380227789976296,-49.28667685366692,-27.690815203435932,-25.242280927324465,-32.1807041991303,-22.09216875596287,-25.01303111232076,-45.664215058715385,-42.037907282121864,-26.024309310903625,-28.85030813931358,-24.30022032541379,-7.178488506795096,-14.141419339872566,-27.717837021465705,-16.13993189926423,-10.53295158583003,-22.888034375732126,-18.74252306866591,-11.4959945601171,-28.025677079205266,-34.074043119330454,-17.080568008703345,-13.946331160126201,-14.763477788712308,2.4285233811112636,-0.331241202625864,-30.98768878458068,-40.745073923955495,-31.943706419757085,-32.601905865626,-19.27937608952222,8.058424212528017,6.678699475093831,-9.009609424499457,-3.150863752670995,-0.21597909542343982,-9.137591811987555,5.750979171317674,30.67493653059646,33.27233163455965,39.71025551090671,60.524444148032565,65.38280376891103,71.38201967471186,104.9305356154293,130.50977736582615,133.52839674712573,147.29285051100427,158.54305572689285,139.1141186252673,120.25988703220725,112.9789998902821,83.05087884847038,49.34814174117933,44.48173604020166,33.56849858186182,2.341773075082598,-12.38261125335013,-22.479806606758004,-53.434825898764444,-69.7455471526194,-61.60160485722416,-71.30099559668712,-90.67772811052257,-90.8953535260398,-99.83566766827352,-123.8789447589919,-123.205239720887,-110.27823433370202,-116.41889487809381,-113.92238371330814,-96.01585195848719,-103.00228905253056,-121.45443200336317,-115.62045977919354,-109.41722973125772,-111.97834629019985,-92.17688578418998,-71.31787179561161,-81.62650492580138,-88.19655892165886,-75.56847606446107,-77.58527762806963,-81.52456727574412,-61.57148214760558,-50.62541563048927,-58.18635489731172,-48.17692988202606,-35.28144395620171,-47.77949527557673,-52.85158013613925,-38.951919695763145,-41.908966660964424,-48.74605540871345,-31.219319476890853,-21.559729289296605,-31.295928328789536,-22.93670612824851,-7.526578290604717,-13.88934214580664,-11.355341724807214,9.587459883304742,9.498273068289635,1.491065031711531,18.05622911001575,28.131563674571247,19.0868984939202,27.897123945593734,41.77265710555005,31.69907782718255,31.166915508770558,50.45029270972573,49.015121942438455,39.29066332426329,52.858643966575606,59.834647955376525,49.613506041454244,57.608716464662905,68.50131523666325,52.45894771833802,43.311714554185095,55.36644881649949,52.79387564197525,46.533811996899715,62.4257791764748,65.43307437820513,45.00898949976482,44.30846052934634,55.11922088597937,46.74008870377797,47.54185881964972,65.08863826552863,59.69410088208737,45.46842779336969,54.0538176224915,55.6226232506111,41.49233259979862,48.43284648480415,60.78845841507281,46.95552400806954,37.57644238124026,45.993422717208915,40.087280214224734,33.94863693867962,51.61635162223893,55.98539210552568,36.59169612996192,35.2188847495521,42.44967178378353,28.927016873286867,24.923168746985727,40.37131231303139,36.989302933844826,26.92451919149915,38.65833856489286,39.66082561971709,21.40369472748676,25.23861796996276,38.64556756742115,28.91723651291148,23.820128223953077,33.39700403440138,24.53355889318974,13.051925590005055,25.32850828360638,26.040484190083507,4.319533192931951,0.5692236657433285,6.713284594633469,-4.443752035585989,-4.708683075558671,11.96657937968315,6.19288463655719,-9.134688715558505,-2.492627309438927,-2.142538031266684,-16.857025600505605,-8.626848257143322,8.659440007762765,1.3786969544038516,-2.9333262023474234,7.814712304937737,0.9833307082367542,-7.723037207788995,10.158978001706132,18.58611085409698,2.7390048298405345,1.8440197926840254,9.637332795161955,0.04883254655721103,0.43729355660188385,14.730975012519616,3.0329491432951245,-17.145788508387355,-7.817652324196249,2.477729323491314,-3.993684811766181,2.044631847067369,8.06285555477117,-8.749869287234073,-11.480832886138062,9.61237138854603,10.181380733898152,-2.4642406724005674,3.4800097524285123,3.4445530963107807,-10.184309492796066,-2.4462772644047766,11.39712452435595,1.202722094194426,-1.963338968187858,13.546124738654886,10.078325978902395,-2.6077363569009284,4.670679548735722,2.4506319215754893,-20.03350939088396,-22.74860205673391,-12.3220620379665,-17.189327641591667,-10.971026751029925,11.472986844364032,7.618165530569786,-10.847860836113636,-6.9955248551193545,-4.7743356793657235,-17.006727546108564,-12.133247594000778,-3.888666945697962,-18.826897086005772,-23.03458748488423,-5.620891051235973,-7.636694910311309,-21.71752478200725,-18.039575163067916,-21.321540210868772,-37.85968530614508,-30.681871870735637,-14.417249155455268,-21.144491627179033,-21.191630881691854,-4.030923592913729,-7.421933155607826,-17.547517661024074,-1.7234564708943063,10.88659302887679,8.258874206365718,25.4703089235807,51.34150314738175,58.578903796836954,76.46361391926074,112.09414022863409,122.80498249529269,115.56092626741561,120.99432414180748,112.83689307094289,81.22819808315394,63.77150899920903,52.83613223033323,23.8662928672884,6.905379652314583,7.0825885142432075,-18.324765255999036,-55.55038224881482,-65.07040830446029,-70.2107317747625,-86.44698605156631,-87.43838251030323,-91.10856919632168,-122.63815569959833,-139.5871691170363,-123.984942419788,-120.70987649688263,-129.22940996724802,-120.53279509864413,-119.4953892254986,-134.00600466124533,-127.43616996625443,-115.42634061509386,-128.8829939128701,-130.7731057259139,-104.36973719206489,-91.63158232160254,-89.30747044551009,-71.16364253703347,-65.65224820881332,-78.1655805715676,-67.68525070200664,-49.869440858915496,-59.040863144716,-62.41198677215168,-45.59167924859181,-47.037237672921115,-55.434120666582956,-38.97862941773299,-28.932132240481458,-38.63617875449378,-30.506768233958418,-17.381077352433632,-29.33423522958094,-30.940535307796747,-8.80931030645996,-4.862212897658832,-11.490038668385798,1.3517793320452105,6.610642182564377,-3.8692917178993653,6.38531638152046,22.595828667130405,13.159795624039585,9.300990506077877,25.464735123265786,25.792159036836754,17.935057154288348,27.430844346168026,25.501260058227334,5.561374089180111,8.752061489783797,25.810774638858987,24.838908353568918,30.135838313238995,49.48044488256525,45.59813461906977,30.04606037033853,33.388936317076855,28.728759567873908,10.108106417106693,18.199356819174852,39.06401551242753,36.58918092982701,35.530426885659004,45.98188403866143,35.04640315657814,19.828500432881405,31.916928486292676,38.80270264712286,25.422248107117646,28.388558110503695,40.015462697669,33.51136461088384,38.035549064830164,60.95434023913047,59.494969716507384,41.942376780488914,42.81278611440613,40.48239794974746,26.80581597355434,36.27360118762261,52.05699401725555,38.95735138094851,27.384060986594612,34.427609022178196,26.938897311533577,16.577824925406496,31.942896129666288,40.92262089158608,29.81505924104536,34.83886496918712,45.98535834651609,35.038243073850026,32.429964418170854,49.11470636265782,46.28059158317933,33.48576876145317,40.839263560368956,39.59762133541556,19.54658673453541,19.993117608745692,31.631555314514777,23.67707568759961,22.962154740495304,37.64168344525212,27.90455999611977,6.66952486256402,11.11183778887997,15.536819915203056,5.3022367544319255,13.38878030387226,26.124145473113465,11.986366598800533,3.27363601395309,15.697048625956853,11.637300762576615,-0.24045404706013063,9.798633296989074,11.869386536756418,-4.632037710808606,1.0344443781588497,18.98012722110747,14.627774179358795,11.78245058801322,19.0689715317229,1.3051387513626889,-22.2741765550563,-13.015039376674018,-1.6097815791535726,-8.085377055079045,-0.8801114040871703,8.790906953158837,-5.799070266306654,-10.3412966253311,6.655864705554483,2.3562365794098827,-14.430531941537803,-9.205647313425777,-7.963018579121913,-21.287002696476254,-11.274285694543096,8.764421097030137,3.402171386350173,-0.061036916146051695,11.365911574054843,1.6586864114979258,-15.973647452853033,-7.4674379623774,-2.2215845802148086,-15.681775080255324,-12.19574925868434,-0.6453259640352971,-10.38267115979179,-12.611874303479809,4.058251485723539,0.6237534418970552,-13.99659951724913,-7.955106990425271,-7.4518231241162685,-21.192163347417242,-9.72346895380097,14.234213484974962,13.211995475880032,11.08060647673414,21.21501693922144,11.030737925024095,-4.837877077642098,6.907436808542685,15.155345041340277,2.9302906214718494,6.716489477234331,19.09377693747806,10.111777725990349,6.707588982695151,20.31979877022974,14.895826211738868,0.49492762625529263,7.398214190065131,8.549516423987548,-7.071439661198394,-2.0785596448196637,16.284883690611636,19.364559924443544,32.375901578834075,63.400827683374146,75.74295911028204,82.20904928357957,114.41589600627768,139.02020517235755,134.05156467766503,129.69955073036965,118.62611964358678,81.09743836699698,55.640474821102295,54.37334277108785,34.020662174860355,1.1480683389224158,-12.278748809902112,-30.097565835775054,-61.59736832287755,-72.80400748267436,-75.69029249886752,-97.4833991546847,-107.12003580566021,-93.77559212375249,-98.63971378537808,-116.60501906907427,-117.48459645745945,-125.68012896684424,-148.84450186770138,-145.95104978064032,-125.72566228578125,-124.0873024188476,-120.1446766865844,-104.69709516464694,-113.66439186139667,-132.94242471988562,-124.43279150845714,-113.2781271252828,-117.31067545334272,-105.23261780299774,-85.6087632260663,-87.35153789833956,-84.22560019464734,-64.61275355395104,-63.74989615894634,-71.06817705845401,-54.981713615934076,-44.01002751055795,-53.72299686357398,-48.62991145154224,-35.55955811647367,-41.30300327684771,-34.655160598751934,-4.375507662282818,5.252218701686914,-2.749118991783572,3.607885344440086,1.7611979043383492,-15.32104341787592,-6.101390222436124,18.783934029061463,18.86685761398452,14.561369902552576,20.734374729692423,6.654167876571233,-12.141984846485606,0.8736591684099224,16.663631831575756,14.356961898577604,24.33263029285804,36.72610592122115,23.503942932871542,17.007493531947404,32.80319372447148,32.03539735526124,20.32226699643978,29.00714639184012,33.58935104744772,22.11987770921199,28.922898024570927,42.4679590970484,30.986901324006396,22.938908429659534,33.77581439773565,29.360386874565798,18.3719705496188,30.1148711193849,36.514908858565875,23.784878069058365,26.567203937683114,34.865876558864024,19.358621948141263,11.606158939827514,28.261802370291267,32.908861793000696,29.802639963329632,43.32897699512124,43.201500642987384,19.832606070368072,17.677879127645067,34.71666496098392,38.00076102885707,45.478384697562504,62.953316027839584,52.24652962279583,25.954845901942505,24.53879434473228,27.148400261314062,17.15294986742875,23.794432790673497,34.394969282129,18.24357677215848,7.405589914902825,20.864367114065978,21.95638388045945,13.512128492464504,22.859390764994398,23.853641325827958,6.486707171176682,9.338449756433128,22.209312493121104,10.944887746509805,3.726311145204108,18.169517250792936,18.831784181456143,10.353834630324478,20.301164089373568,21.38449021750528,2.985920845200689,5.229795481731655,19.67431635316243,10.531919153750277,3.4693288596032055,16.697485685662716,16.10875093245764,6.843527141540239,17.99895459585122,22.968511446848666,9.429707672127467,16.055427422341516,33.58716774958243,25.5473395408641,17.927827198993093,29.378090458661823,26.467753110655547,16.304486210484498,28.92394628348543,35.44264199470848,19.642745908163228,18.3038781715151,25.530070912157832,11.69554710780788,5.971477481383825,23.178401262286787,23.683407131119317,11.99845777671555,20.92818931679602,26.820400700602683,15.96555338129856,22.71481883563979,35.4397971657653,19.453542101127255,5.629978979786185,15.689797481096749,13.755216969057075,4.097820613882159,15.735469160797653,18.028351122274525,-3.1101342948742463,-3.9757401433123594,12.576248297185796,12.038008716255433,14.536097570096441,28.327182260406694,15.825653353697508,-9.117797235177154,-6.501290027264481,-0.5096055483333859,-8.963794634521873,-0.15259335284009,14.99841801779171,3.386605819096319,-7.870831148846152,-2.32686561140018,-13.353789397192294,-29.36709539617573,-15.709013582197636,-2.556130372443442,-12.956282778890353,-15.033825176253211,-12.848921524134184,-31.751270362445574,-40.22550081247351,-21.9083755634656,-17.99064909177199,-28.79757097458789,-22.443430426821003,-19.94250811182895,-33.57204008741503,-27.135966485576073,-10.799266915648516,-21.31695880184086,-31.761039159161236,-22.151302207658993,-26.714306671595324,-39.721381512529405,-30.282652022959958,-24.64091857471584,-36.17461400016754,-24.80422151415229,4.464036101616662,15.608310963270618,30.42260741450018,64.72361529734407,83.19949137002078,89.77432143493196,111.9523432584886,119.30470758728215,95.5410263647635,81.66506167471181,78.5770631505485,57.84415572188584,41.42330554634248,37.95557736773187,10.724903707577253,-27.599615699578724,-38.54728726983234,-45.944805010074944,-68.0016430208952,-72.9718000546132,-68.93803998259375,-87.38555872730845,-101.50327119063604,-95.54896085894352,-106.32195619029798,-125.85034374346931,-118.51322379777997,-109.99242981577791,-117.85190677906456,-107.79016146861252,-88.91026502659162,-94.56113390448559,-97.41070560078317,-80.9199964962926,-80.11932587907599,-86.70877868931377,-68.75959876286873,-55.47919647004207,-65.5518204458493,-62.358603374353564,-49.59167265083183,-57.17080810455295,-57.49402769230693,-36.060604622083765,-33.448159447404635,-46.39478808224812,-41.70127801608341,-41.53558549727436,-57.01406517486622,-48.429122690037744,-22.181083603070597,-15.755609884033033,-9.446246867964359,10.710450975370232,9.984420732066393,-4.46178621725103,0.7495176590259689,2.1382868599791642,-14.024597176999213,-9.432161012870717,10.787665567007902,10.297294384001061,9.314333652483565,21.49633774496071,11.349507939241402,-9.948381864062945,-3.111101459337883,7.41092270481768,2.791073808828004,15.420197959188206,34.028227112369244,23.524626421105104,13.207376425051454,24.479919094267764,23.0669200884792,13.777747750718119,26.02421868299372,30.159431896518953,10.007103951891754,6.7176964168450635,19.465539271067136,16.242509566315732,17.201227535367735,32.248407631123456,25.11693939542448,6.3809077264196015,13.967873967950318,24.620065519617143,17.647990731245446,23.199358074759076,35.76708223865731,25.735165862295823,19.985006804361774,35.200733027794904,34.011078837682206,21.170693566961837,31.470129232286013,41.056562292794965,31.67217712909894,36.538525772123286,48.281725069841436,34.27306672480918,22.1593108735617,31.914586167340115,30.319274346740173,23.462897952404845,42.36608099715769,58.085845261752105,50.44210672628162,54.01416352555907,63.28822460183831,47.17745390468108,35.41404739840156,48.009303799973324,47.75540902786412,37.47482575879235,48.816111866669914,54.811732667426185,38.22958925787523,38.10102060939585,49.8221521195767,37.7172795199194,27.92582711810217,40.24432787235444,38.1873821927983,26.394070283076605,38.26124439634703,46.007321339841525,29.148787639069155,23.90421839585473,27.64136795891818,11.084315688254375,4.6005404923746,25.69348141511292,31.072512605884537,19.08801400400541,23.138364906669608,24.36532875595528,11.382106985806741,18.88808121085616,35.80751828054649,24.974198881735887,12.147318598400528,18.20336416353846,9.739553700217623,-8.392151344196193,-3.2689542903522253,2.226237825029542,-6.949534220282417,3.2067733061170056,21.471333871424743,9.758200448683112,-4.28960328068239,2.7054068714618476,-4.2089423062079145,-22.74123178162905,-21.14532113261684,-23.53667281727087,-42.68979355285448,-37.52692695876301,-15.206039401793083,-16.601495706633568,-19.592448647379726,-4.329869456740896,-5.263857997946869,-18.693288339336373,-13.234412106079581,-13.143726450601093,-31.007751330853342,-25.746293741850188,-2.848032507451899,-2.1467560436142183,-3.672844746420263,10.46608639280364,6.733942929318484,-7.357806197966903,3.3612650196901237,12.493025828554858,-0.11007000779598641,0.8119211001740023,10.847801260096906,-2.0482975493530837,-10.104414281477569,6.0442009759526245,7.934398904726971,-5.204228712686382,-1.5224738324456766,-0.790903002788102,-16.247532001928676,-12.447603192362967,3.202854419312743,-7.341171099276551,-22.306581266768237,-18.389307822614455,-22.475697703430377,-29.644507913091577,-14.020686102809861,-7.176352847532359,-27.910913758552987,-33.17781898575453,-17.286015488267854,-12.603880794868077,-5.322543670714415,9.906829974981722,-3.32527486958091,-27.65866701305291,-17.472806381833937,3.843610039612467,9.715802322357284,25.916172471484842,48.420461338838,52.06420444325438,66.76880983161853,108.23291503066739,131.6095208113023,132.363839519283,141.43591570190668,136.78748454040016,106.09901007405541,91.96664830004659,93.23051536254748,72.57736627154188,47.15518576372668,31.86514391474905,-3.9178062704861016,-46.594204925802345,-55.78260916955998,-56.98320800320276,-77.34382297462253,-88.9640974668955,-94.92440963686585,-122.65185112583326,-141.41210336631548,-129.79330936069897,-127.25668462110256,-136.42389459920815,-126.78964962423802,-122.31556979595422,-138.5746320847301,-135.79894080040225,-116.7977351749397,-119.3766244195576,-122.43765290386764,-105.5666569992361,-103.57686626067132,-114.62653951929701,-104.36160083576969,-95.53898883197874,-105.67489361751512,-95.64089550756701,-69.03066825110469,-66.64423738950774,-69.08735296153974,-54.83915051865644,-54.68196426431969,-62.282114046883386,-44.18645442545693,-28.79650875351443,-39.22376015739375,-38.81421252191502,-26.526733614591294,-33.16691781791965,-33.30168963101853,-8.144953502551488,2.6520518575111964,-4.136689047609273,1.9933752469751163,0.3971373899441897,-20.201228575128848,-18.245244757305574,3.684239327920582,6.872028838802922,8.537405628393275,25.916330793297753,25.789630966935526,12.142841894875945,18.927726454477806,23.60796965647704,8.676831819751783,11.90845380806496,33.143149721861505,37.69610662386803,42.64729930525743,60.57425398769657,54.92090159376546,32.03924398537073,32.056593777782,36.72010964761208,25.488159988075573,28.266909657342314,40.28259354313435,30.13896972195524,24.733912054330293,43.662993105875024,47.01037614354957,33.301077835184586,37.60039738873266,39.67754278841806,22.354566275977422,23.17822505768168,40.03406870014387,36.66267012925806,34.351996760402045,50.07627394424159,44.57305713501239,20.308336493857517,17.333344885505966,19.114969979202247,9.332664887127894,22.02933312755856,49.27905538482279,49.86977241981722,43.03364387857079,50.38927961558123,42.031800959093076,24.278948288785294,31.502040223934014,37.88890470321566,20.93502438139506,17.024883180937543,29.689000827429012,28.22613298810688,32.05630413753549,54.37013225294486,53.874738036099615,30.656950994790144,26.013334082361183,27.886394410792256,20.60002818555972,35.80240970940783,63.556298761322026,60.20589181425029,43.55996567095652,38.27826968749825,20.42692869289835,0.4247929139147546,13.189015923264655,29.749572426633748,22.13118032846272,21.63550251497049,28.59613797395248,14.98580745676202,7.793738312893756,24.618459008422448,26.095392869817317,13.437784108325221,21.93099811786337,29.148564169188294,15.160293361504092,16.116567130626162,31.148910275128287,25.01120804070475,18.729344926946208,30.788993449139394,24.069234182185788,1.196633121098607,1.1006165528808505,4.636120709421423,-7.287377469690057,-0.4289436506066755,20.26073658512089,16.43724226910719,7.258472210820162,13.20852223636713,4.371414055466477,-13.630221080978352,-5.061983371195568,7.619161469869628,-0.09398483522651002,1.956999501959404,12.345387875153621,-1.6345389508743837,-15.955474173710417,-7.136536759871367,-10.041204702587176,-26.641818229275838,-21.748392809505848,-14.0663653214911,-23.292592155258475,-15.351423454989991,4.855845326276611,-3.134375482528422,-18.805924367095912,-17.14850494889729,-25.93608150557796,-38.91612459799126,-21.873945481350844,-1.7529883941619628,-6.174683136203633,-4.930474955215855,2.756891283882249,-11.396887383036496,-20.0556634728565,-2.2599211649544024,2.697867102045614,-8.117445304178858,-1.3289969710401497,0.853551082455035,-19.828080392763628,-21.88309770592441,-1.9824338699950061,1.3578682999704168,1.8758832652145112,13.804669986934964,1.453088259096016,-26.625898470900687,-25.00946693799378,-12.435826466054301,-16.6367453945933,-11.242859017166225,1.2970242517002335,-9.177759673615233,-17.404193937282695,-2.8123796843990476,-1.4719765032611982,-15.340638357121698,-12.323996586428343,-10.454867910331973,-25.364426893880818,-23.256633975164682,-7.050913052268896,-13.087592827267807,-23.110390610207702,-13.684679281126861,-10.949143061623023,-11.48092731023312,15.108507087764586,42.14372158885992,44.53149615228553,57.921104312550426,89.66699686858759,108.62808955088263,128.0223448209798,158.5405697483948,161.4749321144542,138.05580502533536,128.33439478148074,118.5316493166649,90.28205175689541,75.25858507599828,70.22194387482702,39.801906300924315,5.948372606521449,-8.171087229179754,-33.3004678032189,-65.3576668862757,-70.19469576256951,-73.95869149026294,-100.36498414138568,-112.42217193356443,-107.24966636464337,-119.50826343912927,-130.87606104569173,-123.33292953552282,-131.84476252445612,-152.81651732707874,-146.8030897366694,-134.62395481271656,-143.0727311614903,-142.0440497698203,-129.70606791335447,-137.11817109060055,-142.92230961878198,-127.36622511418659,-125.26816139814663,-135.39944264303236,-120.90505162096562,-102.5040667499535,-105.2737329377973,-97.71606659941455,-77.95967228641996,-78.76904201882653,-79.78735331410277,-61.1809986329427,-58.70146113534365,-70.669311318296,-57.18210041504094,-37.87858666311241,-40.21758107514455,-34.97110843851103,-20.330865377154012,-27.607655566271124,-33.260774255607906,-14.010746932395024,-7.942072076015412,-20.69372070965465,-15.862967388270807,-9.583722018332486,-21.755092235069508,-16.897914813926388,5.928173286008163,8.37458557842205,7.374394366711456,24.78043416313902,26.985871596693187,14.329659000975768,24.998700432936925,39.61532974257137,32.63617121128574,34.82034263243639,46.49790460708113,34.2897464239862,22.866703168978443,38.80604593388652,46.65959547833282,39.58711748519525,49.51189552754546,57.37043444471264,42.6132419607634,41.1060909250935,56.222112673723,51.832961389784344,43.99225971357689,55.220553517125815,55.63437424700431,43.89434348238643,52.98102817610905,64.31271933879843,53.924926265729646,51.24634546343586,60.17124235976543,50.79944993500689,42.01657797175372,54.28233376893822,53.71258852253161,37.39257070375682,40.517533604765944,46.453236294864425,34.404032411739564,37.87739295101618,57.30003418551352,55.947574975430356,52.45053958314958,68.54042199452519,68.91770972296193,51.85827002697511,55.098391593462935,59.97125162585726,42.18384101057224,37.31161401202279,50.936679744270805,47.09364404957951,41.747587614710525,56.23648206293751,56.24931492569007,38.59809218380333,39.551888753274746,42.65425629899981,26.51303475312411,26.847911791501936,46.95832354915088,47.01423467818352,39.19019000449043,43.971784431069864,32.34124375056619,10.517322240931133,18.25986520951124,32.92455349450403,24.90289868701695,24.861354383343528,35.734377100795555,23.495173306399437,8.898349056963081,16.923390961987472,14.485438481508954,-0.8537480062904477,7.406227206001691,21.04121561254024,14.775430468497458,18.345079819445647,31.0272695594679,16.23525351746084,-5.1232817126007815,-3.728498357930083,-6.092327255727853,-14.627423969312176,-0.8033233633902181,11.785699867435051,-1.1720646647547266,-5.91912624878179,3.5733739075256876,-4.947867319808968,-14.923952145633876,-5.221019962161096,-7.065769235375995,-21.197325386027327,-12.54868741796651,-1.4708221775727988,-14.102772835587514,-16.756496759550878,-2.494373455091039,-5.038094583635228,-9.931544722873817,0.7789079874652511,-6.839759093207406,-30.55405524441259,-28.476149270791645,-17.75718614816241,-28.07420353681642,-31.61855370342079,-23.80101082206315,-35.455166132923104,-44.701831098742524,-27.567029819113426,-21.371165189380594,-32.828649044256714,-24.692978789684663,-12.394835043345955,-20.5508837430691,-17.008995904101834,1.4862380483108426,-2.6718869837370187,-12.133383869304355,-0.5059683948121414,0.5283107429673355,-12.412995682092381,-3.404648589526125,8.417074148151668,-3.463572311362923,-6.686234319882637,4.1243568799946715,-4.739364477390359,-15.00682641414495,-3.7918545023805144,-6.276975860420341,-25.724714206258827,-21.603993218938424,-8.384636699169157,-13.67689358760677,-10.61246480736321,2.1429359472151175,-9.158168786724705,-22.75515337518364,-10.584960880876306,-6.492325863793184,-19.17983604107548,-14.071363280525636,-5.571031782420117,-15.47195688291394,-9.686394864126424,15.965287816270942,24.142550857251027,29.77436372180256,56.1006168665077,71.70608654767676,74.50301547838788,100.21738698140234,128.62479361985865,129.842525681039,131.71508134285966,137.79595340164354,114.19290209431895,80.36448083948977,66.27096531844468,45.44259063352015,14.585999010934964,7.3586955108935665,3.8632386154593563,-24.201221694337196,-44.40474292883406,-47.97533611415492,-69.36325744955964,-95.25847438407706,-101.32865589462139,-115.66176074428306,-140.27361123498542,-138.88443892708068,-128.67866123467027,-137.54182384448498,-135.69885610344141,-118.49880125732676,-123.49900020797286,-136.0692299299696,-127.75882328107403,-125.49300423384993,-132.34061523711412,-113.56907819803726,-90.52878722190707,-94.0137367829746,-91.59900224738672,-75.10157222304812,-80.27856159509437,-90.68102088311744,-78.08311923732938,-71.82471459529205,-77.12177699207666,-60.434913785599946,-41.604517950738874,-48.31265264336126,-45.65848542104023,-22.924663893014518,-17.481795857753934,-19.759687434752056,-5.536432887909973,-4.778882907078388,-21.875199467486446,-16.58017959704845,-2.562235402551451,-9.36575130425767,-5.754765287632899,15.92067002057196,16.107730193255378,7.119395121266645,16.19599521717027,13.167612206674374,-5.666286897856003,0.48749956569883945,16.725869989070215,11.37088078802532,11.33954329745071,22.67274959349157,12.356727719849387,1.2867780155131565,19.90628294357479,33.49639877285934,27.451155608847078,34.55547241993563,43.112831974187074,30.938522091302495,30.56023704473825,46.25454698346983,39.003971474361926,25.040527737516175,34.75273444062694,37.35724015114597,23.942511731947334,29.95653449838454,40.55056747119643,30.48666695955952,33.73717761292352,55.52464890363005,53.01780072864175,37.38665302336652,39.176516990684036,32.73026741502212,14.11589113993985,22.69552628077697,42.092896755298746,36.605485491403385,33.66123576462664,44.589214565982196,35.90142000070333,23.113666740884632,34.811054446120856,39.312844249675315,26.438585331807488,31.43104499320198,40.61543818110515,26.960379764760887,22.543361109084362,37.126067405114924,34.742532818895995,28.5123557851775,44.05029552820349,47.502765750077955,30.21804650207472,32.55049663069108,43.99533785617204,36.68190678514097,39.750073894294175,56.59210774916544,44.56462815145755,20.184725120836195,21.397966136606936,22.06619558366797,11.122526294131639,20.09352017178338,30.809771147241257,17.328879398970273,17.222956833612198,39.39015673528545,39.91033251180444,25.001009170629807,21.468975481608773,7.386522735998301,-12.978115048856075,0.6760777131967046,26.455383375030944,24.335031845187217,18.57129232303522,22.32907760959767,9.71764304883429,-0.36212622656907634,16.42152854253355,22.812497123371404,8.13051147031527,11.191521659021822,21.19835803961965,11.845922895192233,11.440220001513707,24.017140441839143,14.751351256977989,2.207439831943354,14.005236044284922,17.405601335411923,4.078095661681042,9.799064243689353,19.162041080776078,3.7693805743597624,-4.09725392471867,5.806841129226084,-3.7094766058437525,-18.967217465179406,-8.586091885414804,-3.1202463835448393,-15.488610125940664,-10.420690740836415,-0.8802460582520903,-15.939636855687972,-23.189214998516903,-9.712748485090119,-12.224998984507252,-21.97033979008102,-12.110068338362073,-10.035340062969189,-24.413119254121455,-20.723488471669988,-11.743903012628541,-25.774594273650116,-31.494994766731192,-15.00580076330347,-12.017544687434093,-15.764178770182765,-3.2521099619013887,-5.1391104893822765,-26.155280187638027,-22.614863463694842,-4.358226519706491,-4.978494939669098,-2.3169631845433964,9.62062951967875,-3.7520752902589454,-25.327638219249806,-21.337279829796387,-18.81171526772293,-27.499392705531875,-12.622852052890156,8.912039053774354,2.108830013042155,-5.3208507837556995,0.6406993130549408,-10.022360126760752,-20.51499830367234,-1.9012803233567714,9.857384796157985,-2.8997618858747547,-4.388081497292242,-1.5366205437763996,-18.55656591620254,-22.65602178506827,-3.4792162582810056,-3.2255584065526755,-16.26217458421902,-11.128491008817502,-9.301118774658722,-17.145272344322265,0.22618039170909832,25.51588472229541,22.10027009298985,18.21190955232301,32.05346324507053,34.619870325261985,36.91796134160322,62.7162679671762,80.62410311880355,82.07086088202936,105.60967438015902,139.24463042589545,146.9023099181377,147.76182956315304,149.6281282251714,123.08697269486632,88.54415522014463,80.37063650459491,68.16790688366163,34.302868226321294,11.734462900356355,-6.0409135208971625,-43.22018314414983,-67.62696415158521,-65.74386554099725,-78.13851881460515,-100.48289439352469,-101.214368529085,-105.43334985623633,-125.480659646802,-124.59064512303672,-113.05806899607802,-124.97149817512147,-134.33934845493758,-124.66953952573557,-126.2698169706071,-128.99732025150428,-106.9951466818384,-93.47293862751327,-105.20632688945409,-106.39612898062539,-101.06582710778088,-113.05288821744611,-113.38057409963878,-91.90914907292,-85.68809299939429,-86.17677504962386,-67.22708237165341,-60.6185756511873,-77.42272695050387,-76.43664455535226,-62.833297007929986,-65.38184227899602,-58.886262863263156,-36.23699975832898,-36.69184625332676,-47.8305794211689,-34.77104152924737,-25.927994833720888,-36.11384309942349,-28.04540890018312,-10.248253493462562,-14.61903315304677,-14.544865072235238,2.1401346063054616,-0.3018952050848842,-10.66868371456788,2.646432850880972,11.127866164372378,-0.851170978977116,1.1343871024679588,11.529048770895635,4.321255008869649,6.8738078833611596,28.403568295017013,28.040418016105882,12.589784989436078,15.894122757623006,16.282504478715875,4.99595728892684,18.65493733880896,43.9108336358826,43.36181935423386,40.96142196728616,50.98436489253612,40.282585466729216,22.252702418976398,32.644771971938454,44.663732004493,40.11390304460602,49.70860133427184,62.91994523000691,49.52470524834149,39.58525303477336,51.164422072249955,49.15969350555113,38.25164663584348,46.905787569390476,49.285059641959315,34.197960175477014,39.868726188483926,58.39561019656956,54.71542864367586,50.000237586111304,57.202203639621146,44.974083483469585,26.6084704872915,35.550455037714734,43.84925197640348,33.980250297675205,38.42192465400857,48.38036294245418,34.514017466078116,25.572550704085902,36.5726299522299,32.452762516553825,20.983369984134626,31.96264271747096,38.28764641567257,25.897712099190276,30.392590059485947,42.86312437436119,29.75395560574379,18.66718316806527,29.20154090224212,28.434740407084576,21.939408117268137,36.32977128749313,40.58045771238486,19.51146732731307,13.353220614677912,20.69845751691593,11.391882836484468,8.122777755406364,23.83116493017588,21.96702292269081,7.468883592797823,13.748664611997103,19.21660548815963,9.192876169924293,17.02086452477884,33.87660507135214,25.72777889400247,18.656359293489547,31.30338698478112,28.193643500122462,12.656067855189148,15.779102520001699,16.019722659485545,3.411020080354252,12.49298657870057,28.42832374861654,13.481063374256195,-3.241432574150629,1.9929056461674124,-1.4298454498095818,-9.340932848478548,1.5172177784066356,0.9011205003315783,-19.51645256414678,-16.29717226520985,1.9569356615761384,-3.5773152039229705,-10.760478855977746,-1.6637288151902823,-6.459476089975643,-16.611931948786914,-4.1408352812895695,0.2309184267716848,-19.512859306074244,-23.03246764397188,-12.229874379824938,-20.516783224040157,-25.926155100321115,-13.256180432089465,-17.377210597449405,-31.400963575768966,-22.978347036094796,-19.160947570092766,-36.12723244102527,-34.99247464355314,-19.247497217186684,-22.064521393865142,-20.83759756584152,-2.7840574635093613,-5.76449713893643,-23.176597702624726,-19.2900827494767,-16.259789733845363,-29.97348572503048,-25.38978716480399,-8.227067420301433,-12.536543212151575,-15.597601276957132,-2.0230317395122146,-8.499805923708282,-29.26786809812414,-27.194949326518273,-22.864376123201737,-32.86757504107663,-24.621219863301278,-8.708753205906621,-20.6221843766928,-29.63885651436472,-12.437003276449616,-8.010028312975969,-17.95935351589978,-10.922325735969887,-9.651206431742143,-25.80281447641652,-18.33595974695181,3.342656842972822,-3.298968342403181,-13.484498083840776,-1.5771095313029404,1.7605471393682592,-1.276015799847293,16.165203964013948,26.354926551744022,16.44765998690144,30.52032877677375,67.18816729423158,87.56727493050832,107.88444017443892,141.5794441821933,150.82425786764236,137.76810571511302,136.7623876998959,127.43401110475149,96.58258111691374,84.29651532420307,85.67146613801455,60.203643377393405,28.606827759265062,14.482838743978842,-8.823390556705956,-33.60168416590505,-30.723222891470222,-30.75386971323899,-54.69510450557047,-66.23502522460255,-66.00558700690775,-84.45618046619933,-98.40300807047556,-92.64580062147955,-102.7409903494628,-122.49823269820382,-115.81484472168043,-105.16484434660626,-111.0634038527043,-102.70237978925992,-87.1520329616217,-98.93421481946487,-110.55288905581949,-95.17067848374103,-84.81206999525226,-84.02385496257426,-67.71313306141104,-60.56361559950813,-78.40229798637831,-79.86681337706948,-62.18854329887567,-61.44445584397291,-61.47309718711302,-44.8801763126085,-42.875210441352785,-51.77218087035554,-41.269730275350454,-35.78908182034976,-52.484463349641146,-54.03471956870611,-39.50104733821851,-40.21754666856429,-37.25809841773623,-16.59486404509913,-12.727011318352528,-23.119750123709125,-16.36484939871338,-12.98527957845474,-27.474925169155842,-23.040965487109617,-2.006750627281167,-0.49840112795629654,-0.08156522672341618,15.709654560846364,12.139461292806999,-4.585296328324768,4.040034598391823,15.053109434502904,5.305216398073007,7.077874090357467,17.13102298384765,3.006059807231283,-8.970360579350933,2.5175173636201356,1.8717446523655328,-8.706272871238326,4.970784363580915,18.376031837330892,9.588451422958038,12.444679987035759,25.21742856129966,17.071203576467333,14.212669219589696,34.46944672347852,38.12931272042378,26.76699525977648,36.996432934877426,47.5885301028329,39.058391934573024,45.36484883663512,62.75064434419498,56.78762917805109,51.485772733716026,67.31835864538003,67.0265167093672,49.77960101778196,51.85017967542802,56.326272837839426,46.353576284219784,55.949956177729064,78.40342185173704,72.05084588803058,57.06548386186221,59.76918265356578,53.71817299574869,44.47360943602277,63.42084592892945,80.3941376381022,67.46316595774938,57.77719744660514,56.0886176808591,37.418974465168134,30.013999299851992,53.16160679580219,64.37874271548142,55.61180439028105,56.51224277577437,48.73092208690973,21.25689007348276,17.270606975506084,37.65622257209236,41.14334605031543,39.05509367961184,47.462179927166176,35.85605005749326,13.655790055720868,21.790580802529657,36.920456427542675,29.612867485188588,27.650832912924646,31.671294862321524,14.455764491714547,4.176156773308358,21.6104689433838,25.312563388527497,9.678319863917197,9.062853151759848,6.1384668260957165,-14.241808669359008,-14.047295954636407,4.031698877180722,1.0359933599557443,-4.793540234316215,4.979195832091649,-4.490117418367544,-30.15619531717758,-32.9523158500041,-28.74984716572468,-37.26763476613596,-28.472417781115,-7.501098304755783,-12.649261498919685,-23.980734024776876,-15.803855497537956,-17.612221623917815,-29.808052568279958,-19.508127532892136,-8.878294984765358,-21.53097150568021,-23.386176721263585,-11.937511479345197,-21.24214324252386,-30.92438001729661,-18.1448881354287,-16.54190587187677,-27.24305488275353,-15.76045863602411,-4.609937516403474,-17.845287548487796,-20.23250259541368,-8.366552783883165,-15.028427964462738,-18.934337079088944,-0.18775854069117415,2.352691869630731,-14.315587993228746,-11.546036823864412,-4.670376846066974,-14.164273670666502,-7.644513366679581,11.159156601021735,2.2534751330142155,-12.164182510735746,-1.7501243642426996,1.8469474225532212,-8.435087192005488,-1.7711007372173198,2.861392730322064,-14.197799930799164,-14.848610069974342,4.399076536116028,3.0212572056694595,-4.351239645291828,7.829511803013159,9.171092180067276,-3.9616217287798614,0.1464926694413995,1.4058634650375894,-17.707930292046935,-16.702119027694984,6.15311006993384,9.038827581186979,3.553633608526598,9.226079193413357,-0.9359119940427734,-17.965423811716192,-4.093853890801579,14.170489423788206,4.67971825040315,-3.0562800452642196,-1.152692223297025,-14.76565540121391,-21.450261064173763,-3.0278824328182807,-1.6670238583424206,-24.07479181474715,-27.931487451061184,-21.777737711603734,-26.582155304099466,-14.672322360652137,7.506795079613381,-1.1433146607760447,-18.257019500086336,-10.887199843408954,-6.2131883005137,-7.313227407066086,17.813474447964204,46.770306693023066,53.14898564852529,71.61054617790813,107.8881814088317,122.86719090154365,127.0456167565852,138.53778839400067,123.99410485018761,87.2878360109687,73.28099577228252,66.40731127524681,36.59659796099025,10.653135391674283,-4.92834433479402,-36.15824266959111,-59.324935936308485,-53.37616439618051,-60.08930030265245,-88.67122328438062,-98.8387843494145,-99.19985674324411,-111.13428821345498,-106.74187653924626,-89.09508983540219,-97.83274951206931,-115.10969213481856,-112.2142269369173,-115.76548198640785,-126.80079101186372,-111.88252489594505,-93.06388380901562,-99.22465841199596,-100.50728405075205,-91.02211760040423,-99.46020204089152,-103.34633133072933,-80.35908301731249,-67.78188832300296,-72.08860515771664,-58.96007477064498,-45.76816217607069,-55.06827752033578,-53.11946645949894,-35.9131131193264,-38.88284307043923,-44.10211625268121,-25.877462735672637,-17.72477788541951,-27.8283583916299,-21.97680581674637,-15.144531809525624,-29.136162285930542,-28.61482104878455,-9.0264235295367,-9.869211969849403,-17.708495095123446,-8.023883067403458,-9.50274504616009,-22.0351507340889,-9.775707900957942,6.957053624816579,0.8454077984325581,3.3966948250870055,19.55842014794942,14.824961700401765,6.583354826863499,19.101133347048904,20.22636225117211,7.2696034910921075,17.796851161485232,33.846503254509685,27.66224767149931,30.7518746610289,47.78364640988972,42.212341911769315,31.493277960136894,42.29918220195595,42.81195430156494,28.02354470201578,34.002566556883224,44.20766301436072,33.117155074250626,33.11509654732116,49.502758913942166,45.11836205067022,34.30586358344326,42.1933342706655,39.6628734018645,25.5349908964846,36.910439936668276,54.19201049138571,46.74407282634502,43.68350291673072,51.30239641012376,37.968993836048895,25.275973626367726,40.5315409899872,48.2370471546808,38.044064694351185,43.218498855624205,48.586739369507626,32.414449377586905,30.099648197935274,47.68809962930448,46.18834113046021,37.423429249055516,46.18222561420811,43.31457670605207,26.41202642714725,33.17434867281969,46.42382282601796,36.99473507188994,34.61111668218366,44.3461359591373,30.819965438235187,14.421938390680696,25.447452457060212,30.62894945420068,19.52261625915942,24.735710958630793,30.423887435675105,15.41510196611125,17.529974095421515,42.56443895598087,45.88980127246167,34.261447257990156,34.24951767708134,23.736459999437788,5.912186184857996,18.230598002046587,37.38626451387907,26.116608195442762,12.677267968785783,11.78542765574307,-1.3931882934846413,-6.557717435694255,19.26461312908032,34.642336008567504,23.72175194391928,21.959071152321396,20.62832112499039,0.6355904200721234,-2.2679659863770896,16.300563787323934,13.73949793058031,2.430203172275835,10.948431255809538,10.03813801589732,-6.333543031883151,-2.1089033359524954,7.167702824333461,-5.15306778222646,-6.810398599253091,9.169472209312506,4.315426459582511,-8.28553453486892,0.7975556575750371,3.6678830514214824,-8.747148437533713,-3.3333966945955256,6.263374269292336,-5.441010789231673,-7.903448456605226,5.752443578860972,-1.175944768057092,-15.627826292561643,-10.588235283424133,-13.913341793463088,-30.231446642826086,-23.95504902756667,-9.969399302813292,-15.09638606720907,-11.039617613366541,5.586531280150453,-3.7871662476128334,-23.243275160882153,-19.468359658418784,-18.21923369621518,-27.680998471549703,-14.780605479941578,2.480272255484305,-7.577527503274971,-13.585329141601651,-2.8658090970097305,-10.937574792263373,-25.05718468156819,-14.931117371392254,-9.877459279198547,-21.21666434028441,-13.82751516964267,-0.9311861349717772,-12.3182749247146,-17.60587547578801,-5.815892577250324,-14.62843210387165,-32.51310411203055,-27.59508990043618,-26.571428383728616,-38.857345080192836,-28.431464326597194,-8.98912228279959,-11.867094954751854,-8.895973344730663,9.529140699219008,6.586627641011606,-5.732175888611486,2.58033962615776,4.481640953224305,-7.287286945264616,4.41727323998986,26.941461029698793,30.501470350476154,42.55500828466176,72.8751160631446,88.26903779443407,101.18915311569162,134.77104818363807,150.73562455959885,132.2060755819911,117.1202263336094,104.72083211032862,75.88821408144031,59.289335418914106,58.988712308062134,34.78256545857239,-1.4320007804754376,-15.455459545243684,-29.59118349245462,-54.18260359729698,-59.30997547100504,-59.318059003200474,-81.82514989766491,-97.20747583727292,-93.77732912308765,-104.37574918089115,-116.83017531090641,-106.00827739153242,-104.03497350256272,-120.61012210524858,-117.41194844341426,-104.99962436335751,-113.7105660963193,-115.69646792052401,-100.3290300954954,-102.4441789533928,-107.82300242208305,-87.30599971171108,-74.87363313990738,-85.10844368103021,-80.67771220122195,-70.42442119950823,-83.11785059617861,-88.5799934516637,-72.89182519140603,-71.26593830997325,-75.4128509035977,-61.06315534890365,-61.07526783829797,-83.9164107951366,-84.3766085091468,-65.98618463901897,-58.80335944798866,-42.41509445375905,-16.15654416554939,-21.18903990976921,-41.06917722160303,-34.5016627814198,-23.488313491585398,-21.480869977388906,0.25196868392767335,21.75048899478574,8.978292902791939,-3.4340657363234866,6.384360574640546,6.42679422026408,3.7131479452716194,21.363153303472146,25.43030106083356,4.686406500017021,2.674580343746839,16.343697362245653,15.800877091227168,22.996607649926663,42.43101001452077,34.9052067165147,14.496349507188,18.35065819881364,22.626907591205715,14.939163925686938,27.04887634009425,44.066346703752934,35.138676256980105,30.45853501488699,43.4501790836841,38.69898186677678,26.29069671019284,35.92711207881047,40.53880582371248,28.838604596647187,34.633698585292215,44.850353631087145,29.002992598504996,17.92054389929359,27.170190096317864,21.539669964682346,10.181304256841948,22.580583817254983,28.890453299452478,15.87081508809299,21.221780103124246,36.15823274593369,29.896827782013908,29.37076840930569,45.36386975944731,40.06145183926979,23.979743896468577,32.799409606775875,42.467374803421876,36.1426355884597,43.002778099317226,51.565290459367766,34.06203099041181,23.356784223955962,36.250626302690016,35.5842362747437,26.444937065159596,37.612240639507704,42.81116735594938,29.304073819824865,31.3047151237934,38.88902793624622,22.823046301657563,13.705286644590208,27.37266034235168,27.17014037472132,18.53578717674128,29.67838441276969,33.13629707350885,15.627815509360264,14.035078980164823,23.451353908238918,14.994458269833473,13.161787215878068,29.041555405941374,26.040343816674202,12.271317225817118,20.31032094147991,25.662619722369655,13.644272169159503,16.604198928791433,25.579660663954837,13.128335504681115,8.816478868887781,24.837200360012144,23.52684642925692,13.228133942374521,23.658024078419565,26.139776668697692,7.687599602250703,5.646563165846784,12.7777872613323,1.2353156391019136,0.7036688057595974,21.5340420898624,20.934485261416583,4.763644788543807,7.411373261027385,6.7194421364864985,-7.285438841976753,2.22648043920241,23.206756705552944,19.412049283641814,15.346719642172562,25.103297622496157,14.091111678486193,-6.976385573320664,-2.3787363906681986,4.544361722930663,-2.4001546906732285,7.232824461604062,21.75118145523262,9.11179106350378,-0.8974891854058571,10.678236717026127,7.605546863749951,-6.452964153498125,-0.5966471756590916,0.667647502801512,-15.496432278202002,-10.877389515955652,6.10190491289539,-1.284834448875002,-9.05748075924804,-0.851578654814122,-10.303425634218307,-27.90218644644053,-20.47488533743745,-14.133403924347402,-24.60300961981728,-17.639841573148367,-1.7224911944753778,-9.586625378270313,-16.787493452972676,-8.201888979612763,-15.360179149849884,-27.38948118432243,-13.801810201550506,-4.493533269730541,-16.242501705536842,-13.716431633551899,-4.235360319088888,-16.701823548004942,-22.09140163253614,-7.375500720265614,-10.007318209478044,-21.04204725002304,-9.053446984017471,-3.250667360690964,-19.34391807447064,-19.60061240168153,-9.24247701931536,-18.874813992690648,-21.770840326974643,-3.3983704184661185,-0.3249157674149181,-4.440594899537092,18.66868166323532,43.42978214136726,50.003131428711924,68.8660380416087,94.80846010731008,100.79758219333567,111.4572965785656,134.5316546387379,127.02754805583808,95.1345268782225,80.03636534817741,68.0401352359581,45.34127421121265,36.652339307623635,26.591826705691084,