5.593621430237326,30.203373818904794,72.65120013874837,109.87528222359786,128.4498478415906,126.38831726645432,100.86626153257579,72.05513866024779,66.65607444829557,71.01748359306248,63.906635008199956,57.42450732635149,56.47166654343143,47.30530666785019,38.75006021756685,40.853966379634066,36.07191109800638,23.583210066589377,24.112368690428685,28.6817337363727,20.200625637471443,13.251867505567256,13.821456083063815,6.175748591878773,-2.564364316090548,-0.8445490276043881,-5.180501258883593,-18.028147123061533,-19.549963773038495,-16.22748938012156,-21.955947202617896,-23.132442190603506,-18.231735249516966,-24.78567427514531,-32.62365341907116,-26.573846154323082,-22.5861060496577,-25.940855336782803,-21.141822242795065,-16.597530257113807,-24.55592267073039,-28.45312879149148,-24.368729088445047,-30.157474433209536,-38.431674989635916,-35.73447637487824,-37.78995275443234,-48.10725568058491,-48.11056452833067,-44.557705736482404,-50.17472279460013,-49.76540603468143,-41.586487893628586,-44.924883494871665,-52.05992932322006,-48.05616063263344,-46.311909884532646,-49.64849763611549,-42.313388133158426,-34.228907146722555,-39.03874058802396,-40.47017400319436,-34.28724334234569,-38.10998111080171,-44.78187680415066,-40.94946802976513,-41.16990865211713,-47.203944338313505,-40.74161402069618,-31.564817351599878,-35.38117312817204,-36.75645178947548,-31.081451175886748,-35.406924381697046,-41.57100785551127,-35.6688619626692,-33.63323469916578,-39.569686344984476,-35.103464623459416,-27.647516872587083,-31.74268442203922,-32.125924218226565,-24.323345598656662,-26.103397099061887,-30.567822990879794,-24.446917389088306,-23.383619542463695,-30.855787646699174,-27.887798942305466,-21.170580664759722,-24.53705427168227,-22.957206463566997,-13.721830873700807,-16.521595718818013,-24.260632390714207,-21.41119873241813,-21.184631254388886,-26.01462057377295,-18.375283336097844,-7.863125571028542,-10.197696406683658,-10.104092605698646,-2.738281991266667,-5.8894624936208295,-12.697008600049026,-8.799061746634983,-8.19829700600118,-13.822662746000251,-8.152512225996308,-0.25455995870332204,-5.35342230233525,-7.966005896929851,-2.719521846756365,-6.541772074082188,-12.534344263345126,-7.309706964174799,-5.920343240920773,-11.839009458821806,-6.642176585305421,2.5888963322068523,0.9004646134878518,1.696871767280126,8.287195943091763,3.404109460987079,-4.629751531341704,-0.4181074967330103,1.2752101265887146,-4.858392592152773,-1.7562797473461709,3.438476378228426,-3.2072460699160663,-6.021677675401769,-0.5701273906701019,-5.020506749964035,-11.679168903541212,-5.509212674879398,-1.9235776190195017,-6.030631502608502,-0.4637484941135859,7.107385483080247,2.2298001800533767,0.504469249652127,7.172820572332588,5.066451297016466,1.080948805339067,8.580735088418363,11.813056695615689,6.276917527130153,10.478692436293509,18.239105331775054,15.200825955351181,15.369554510302427,22.400009728924545,18.569274107088543,11.61515938780356,16.841704428456712,19.953181802920287,16.32933693568975,23.10044312905221,32.153087373233255,28.054045521892718,25.841660353253403,31.43537222161785,28.47112454788686,24.131593518793697,31.99744483848937,36.130079211048105,31.107630684684143,34.37665550380946,39.524275893935965,33.45264183505826,31.802469108043987,38.54751709655233,35.25527170630908,28.638177058977206,32.8336008662283,33.14792059751627,25.302028588953085,26.599284218212663,29.66017963025804,20.973877060565336,17.305445371940255,23.76671665843455,20.75703322376333,13.91824737648917,18.545911961138792,20.655560010041608,15.982936011127599,22.512412225901798,32.30968447349746,29.19951200783236,27.690488870137745,33.383798982327576,28.92007058227047,21.424126788105163,26.64087418244971,30.598528292873116,27.869822185704535,35.12806471556725,44.7667543810273,41.20622744577337,38.88496068202747,43.81448698962462,39.47680455876822,32.86879343098715,37.81883112214211,38.26704938134291,29.37709821050852,30.919605966123658,38.23382660348179,36.49073202173221,37.65045989270623,44.0312271881467,38.06274593885858,28.645939323204637,32.178869812134515,33.869492020033455,27.430984820378185,29.62456059863106,34.54043689027158,28.914850306015076,27.04792296195679,32.284819136068364,26.081159153145222,15.492488559389855,16.519962642816672,15.876917402306924,9.024049525882274,13.441121884871178,22.16427048685282,19.934255176678775,20.589882824308763,28.254985803606747,24.663471896181253,17.141378565579966,21.54098075089069,19.03056496441591,-7.2735820669694835,-40.34931513315456,-65.37312317832458,-82.99514333740747,-81.76372262440816,-56.22562863155456,-37.10455874490982,-44.091729409791014,-51.58993024679601,-46.02214306329167,-44.480480610151666,-43.74596949427523,-33.440714931982725,-30.289775715305556,-36.54958389651522,-30.68703138933192,-20.17961421458385,-22.95804383358871,-23.521060299149173,-13.327776183520855,-10.309379648464073,-11.333140393532213,-3.7322262637763965,-2.2251125537954115,-11.123349721893991,-10.741278597012691,-5.124280230130328,-7.9358732153089075,-5.450260981320181,5.130976012127187,3.5541963859854406,-3.7621287884943255,0.5195943772257476,-0.698349398190122,-28.81305717583023,-76.41458030271745,-123.83298481586245,-153.7334321801098,-152.98218399410908,-121.37011123734938,-85.60536956099575,-78.87222392174974,-91.2574768006343,-88.0841253984964,-72.23549215094884,-63.5136495205455,-54.69936188481282,-43.912933120413726,-44.83973577637276,-45.21280063895578,-30.752388243933005,-21.701054595041732,-24.685985298694685,-16.818728463329656,-1.6851944278896642,1.8597487562111452,4.505673188564616,13.110622106210494,12.586668072924018,9.146323986030191,16.950480584158793,21.489434808476993,17.427064244224297,23.226438128629038,33.603519608888,33.15798761972698,35.05155774186657,44.03504305672343,41.77547368187231,34.43575724802474,39.0860097335645,43.29562211806547,40.7246657804007,47.14694152569952,55.09752875030345,49.1931921550015,45.30694804786829,51.35176422870289,50.07497726032848,45.96556011542201,52.41380561748016,54.191953827725136,45.97315023013159,47.37588387295556,53.91095136347128,49.88286075420601,48.52726998107333,55.472523804781325,52.91264574500973,46.62282690826011,51.69752715571106,52.913687650213554,43.829301300302134,43.71494389132137,48.55676597727419,43.36018761757529,41.81734637657903,49.10972705671573,46.451513391339816,39.10145748696166,42.91356279814506,44.402902230814036,37.3207545395516,38.80578281925672,42.962841528276854,34.27227068403403,27.551060998127014,31.194839167267876,28.563578628919224,23.50120461155072,29.34548575297586,31.40053805299644,23.961286638398725,25.966068832596626,32.541415528380035,27.30041187380956,22.81625006593447,25.010262206552515,17.298358793630275,6.870935160311627,10.249440607046159,13.322100248788075,8.824618015567987,13.113467167612844,19.698217279281007,13.325113959193436,9.029056252043814,13.328975421824685,7.916006235139999,-1.8570866685765233,0.009415504108882367,0.2330374746416461,-7.042429877923112,-4.3717989172823035,2.425687548368841,-2.348942739933628,-4.9610450395873125,1.429348002232993,-0.6883490780048345,-6.917610281474129,-1.7700313505893777,1.0283716007933692,-6.295459652335773,-6.406925651255538,-2.9329168145807216,-9.88869244144125,-12.734161447239343,-5.388294027922672,-7.440455373915867,-15.436867077958041,-13.265947733578491,-12.78914885633752,-19.663554237917854,-16.691531386119955,-9.772261642966809,-15.276428817682742,-19.42502274160685,-7.8345887917263655,20.206561416190485,76.04102422933622,154.0108205376369,210.81896660472324,217.65409886989156,189.57720363805782,150.5453852429918,119.27399150998417,113.6200017699674,121.25456916802632,109.97889463509657,85.17622850164251,71.45958009543926,62.110198022950314,49.155312578917204,44.162064517066284,39.50200903489192,22.41476744430722,9.698492716036077,7.5429137490294185,-3.844980285615809,-19.441278506403897,-21.590080149245257,-23.866745625511122,-35.47648603831473,-40.04766191477698,-40.701590456399,-50.836874434062736,-56.58474391934416,-52.676606862234806,-58.54095224999934,-70.03351815724156,-70.91895251992946,-73.83380729291468,-85.02171017411612,-87.08985258320912,-85.3925658177987,-95.401503444476,-102.40932035711805,-98.72047395373758,-102.66120312305127,-110.95994271313181,-108.49233098863684,-108.18316080288179,-115.63543507316099,-112.24125888424501,-103.25699095858334,-105.99221785426751,-107.85647166335143,-102.03058576212794,-106.11617762544803,-114.7267457140517,-110.83534637825055,-107.58646274927028,-112.59516356115826,-108.72911441727487,-100.97700101928697,-105.48843714446313,-108.53570669369223,-102.69896113614908,-105.85791349279599,-113.60794806411133,-109.57927756756672,-106.21998417060284,-109.94995357311849,-103.55877247206072,-92.73369670816439,-94.06739288485616,-94.4248324859528,-86.83546701369305,-88.14837337367969,-92.64481303868733,-84.68598198730406,-78.71486736922076,-82.38210753864021,-78.04390125630802,-69.30402935364845,-71.22606336242241,-71.07554875213361,-62.97873610961888,-65.5184303905493,-73.95551490215348,-70.38145066840895,-66.6356332556964,-70.38085974019612,-64.40075320418981,-52.772944901635206,-51.89494010287722,-49.48129931612574,-39.04993753409529,-38.81900166282263,-44.4912197733752,-39.03366140759272,-34.16457864103119,-36.773719486394455,-30.0202182853669,-18.638536642490266,-18.968461334168122,-19.019749046837873,-12.12456497926522,-15.169238521711899,-23.039814635327815,-18.79974403822567,-14.621180581384369,-17.810766344593393,-11.778273566611706,-1.918525269657137,-4.569147976925843,-5.626605421087852,3.4494896963685786,5.04115004891138,2.289761635199078,9.886086389513762,13.48598121356949,6.034742694467427,7.649958158992484,16.54988026805505,16.777024144432133,19.608426791498093,29.67370043816925,27.32758110712303,17.57531512362499,19.605547215378103,23.172764816658177,21.32766964051609,29.157426511685724,39.666597491874704,36.377000622686936,33.82513252027461,40.81270043851381,39.93312081640844,34.512826349210606,39.72478283383805,42.16369957533196,35.071851407384884,37.32483212593769,45.593609617129246,43.847902633064656,44.895734828122514,55.25360256365829,55.582091431190435,48.876241748356406,51.82631577704828,52.70235203429958,44.704301345222326,45.36818286170711,50.54890155673827,44.212451272780754,39.60974289477164,44.9823155405003,43.37045041073391,38.59441208237825,46.21716042839415,52.454431383715956,48.87471970977254,52.416497683888316,58.861706673081684,53.158478576117275,50.09063659445126,57.57739053247787,57.34460088797326,52.57215110703259,57.72514318002611,58.677418912103974,49.313234522758975,49.271146418246786,54.97968446381865,50.186198945982646,47.704759298326024,53.816437724864045,50.214456369531035,41.99199427911458,45.94230849752318,48.837656965809884,43.16392770986958,46.2445688024253,53.447523454462925,48.28305533691503,44.19013403684522,49.65226443941186,47.11059913395395,39.95282877796939,44.0676432032342,46.10822791436258,38.46028379309268,39.552491641117484,45.959534845546884,41.19646496061894,38.00521103142852,44.07596785476422,41.43177413786709,33.39244282467679,36.027786563132516,36.396365041293045,27.377074013423602,28.10278091189704,35.5399350707363,32.710370372564924,31.184676479890456,37.32780562642328,33.03989563563015,23.43777840126309,26.743706525141032,30.388820677256813,25.10861359041983,27.12985656253459,32.40490490653218,25.2595954199018,19.866592258933352,24.960209107224845,22.544396691936914,15.449445042593595,19.44257468622139,21.634455273365795,14.532600214612057,16.05167306348551,22.70537780642956,18.307306034293813,15.318511245879566,20.573219192042117,15.759364542884324,5.496848699291471,7.711788021458724,10.239851963651107,5.377376255893498,10.306228667041141,19.79531284337573,16.055127626679244,11.892882618122341,16.187590767099664,12.101925173470791,3.74165131668409,7.70240645167259,10.681650259511514,3.9752739097109537,5.0437163843273005,10.808051211659901,5.5086750211160584,1.9194651878639348,7.79336543944243,5.8072525530858865,-0.8675003327162014,2.6222869792451067,3.055743871898745,-6.107008099967279,-5.664288860134752,1.4297238242421852,-1.6928898554479392,-3.869664952497991,1.4786714676524562,-2.5210832392470994,-10.433135956096947,-5.488765329159765,-1.7040801108604717,-8.26898704605699,-7.634132654070461,-2.262321485262028,-7.344148566974068,-9.798806071698737,-2.3224161813653064,-3.6973931977341152,-11.027766627167356,-7.804869103545018,-6.326623250023783,-13.780035824154567,-11.788628474245606,-3.840637104927068,-6.946204013143853,-9.385196628856352,-4.000895656227376,-7.827991357717842,-15.741953621352298,-10.683096026698355,-6.245631110902604,-12.056294149718587,-11.021617040260274,-5.1158827633405854,-9.472752446670388,-11.531674075687429,-4.09716122826876,-6.225470849609802,-14.78510238773451,-11.476296263077156,-7.661848087260594,-12.15963351934865,-8.461240670668646,-0.3928970085972603,-4.580740325818753,-8.9971131663774,-5.96887326818374,-12.18640368469857,-22.536255670712315,-19.040167162903256,-14.513636658208416,-19.33764161863722,-17.565105329259886,-12.19576957186153,-18.115418366559283,-21.016783993515336,-13.128004866245341,-14.470607331270736,-22.722092505108836,-20.03196766661079,-17.744746619446037,-23.827631127194664,-20.999635590377697,-13.199310733382571,-17.43615051572674,-21.227208685751442,-16.035778253500702,-19.04721207050911,-27.114142385446982,-23.655103146710623,-20.419673923173544,-25.599794968673,-22.250513565292636,-13.740308659125802,-17.434866131575966,-21.859943561917593,-17.616945763627147,-20.248067496313446,-26.07815216823925,-19.42332328026705,-14.667153943947397,-21.57345878340817,-20.748712027362032,-12.20650594667812,-11.888394780791366,-9.270366599389842,0.7723632055648135,-1.006617678905407,-9.98796232969311,-7.621440281804642,-6.321628877153983,-15.747260091719548,-18.647751861609564,-16.36766860737719,-23.209446063288958,-25.64434752526734,-16.18204930799479,-15.098223922434187,-21.516046982699287,-17.958702399874326,-14.493927346934043,-18.770149333779617,-13.912232850141203,-4.008359116668248,-7.242350677995164,-12.216517746616287,-8.974095685358826,-12.893842206385065,-20.991802036526693,-17.24753791885651,-13.927690561110957,-19.593409133867237,-16.441419063735495,-7.17417955300933,-9.347562535208295,-11.59864800691597,-5.184057535660902,-6.697690044294081,-12.688132979850835,-6.924067423742846,-2.754081368485969,-9.404638711568271,-8.71777137192881,-1.9151548762551014,-4.783803822460808,-5.950055464080094,1.8977492750263605,1.1173229541511907,-5.117195627881522,-0.08612067371391063,3.763317417200431,-3.243861669384778,-4.701541634226663,-2.1185049008269017,-9.374889055257231,-12.697183390355848,-3.731965929595726,-1.8663851359381032,-6.098472069249839,2.1579867846565284,15.311227664887458,26.667739143897798,50.995057393392024,80.6965404775354,95.11026001328057,105.09784652394167,120.48320749939788,124.85225105890845,119.41829315064575,118.74710707392951,112.56877032609792,97.13150866578319,91.52429921533606,90.72399547196312,76.3555286133054,60.11809548978586,51.72821247079276,37.595820103083135,22.81148325478986,22.495125098573926,22.96779727864307,14.447705494671872,12.422242870226981,13.664943036567067,2.1164800597903115,-9.77138013569881,-11.564392283577757,-18.733420770642528,-29.331888850547443,-27.760028671262937,-26.153160482964463,-34.38822845865402,-36.58810308804809,-35.34326581004522,-46.35140980840562,-57.08712155312482,-58.81339548315317,-68.22198378270423,-81.8542006841407,-82.99940185770117,-83.19137218076806,-90.09617598379504,-87.24641939874752,-79.24780295971894,-82.8846899976577,-86.03724706163942,-81.0195815080725,-84.63314112085297,-92.43529419399505,-87.31741286130776,-81.89282273787852,-85.53856874611044,-81.61445952020853,-73.25964293894168,-77.24236122729195,-80.89121867350468,-74.62008639191768,-75.76305363226088,-81.81101406564491,-75.68835881144757,-69.50117824990691,-72.497246028246,-67.01234833701147,-55.07488432135435,-54.13210127321088,-53.64993749921503,-45.4138331099049,-46.21317816918441,-52.48357352838826,-46.1549617156222,-38.00300591646901,-37.134542259398465,-27.745625692909748,-14.038692466246607,-13.835984666769846,-15.016727976912065,-7.676700807513366,-8.3981217848468,-14.80558315148421,-10.394287006487996,-6.611139634605474,-11.349896727589723,-6.5516054182195305,5.141238220047773,5.889888913110333,6.777485344805629,16.735243392253103,18.429942774258947,14.035762314807496,20.599669888190856,26.80568260853047,23.911401369161666,29.06125779483998,39.05373820403265,35.721412248863544,30.34011259138885,32.90500086130358,28.23868178514622,20.87679816557431,28.641799741905906,38.41976572088331,37.97611965782892,42.29829465825955,49.03860036423529,42.443364560470194,36.183415477693195,40.94362292035025,39.30833822107747,32.62276958036424,37.66345899895202,43.1508743469568,39.691775671008116,43.61616915213213,51.924188845337596,47.18909675187509,41.53856931500404,45.94102337940929,44.48454332181477,38.15610833974683,41.78699257608332,43.77813576489956,36.2687184725379,37.20259203862463,44.77756857496223,41.644609915783604,38.71608787912006,45.42713930792205,44.47593920287693,37.0867778386664,39.6538764558167,40.71326822424387,32.60196177695176,34.38328519186962,43.15571774628245,39.59357551875653,34.662387837990906,38.54475049995062,34.780514406072186,26.239802999539506,30.12069000717422,33.47817921363543,26.300235809806974,27.127869975618957,34.88009589356404,31.78462731553106,28.332515542622467,33.435924011456414,29.99025920094379,20.612436357312383,23.17621842152098,26.174648140639782,19.15704122363922,18.76251438618466,23.45245968677284,16.794556723150272,10.75321082146802,14.802351144929004,12.25852732422356,5.322685930032671,9.593778469204972,12.43377628032311,4.194665661890118,1.9187949500926633,5.590427536930924,1.0759212362677197,-0.3398140732918843,7.98378295192325,6.800318769061882,-2.0643666511136836,0.24250071904612547,4.644001745675055,1.7767678826600126,5.542503774488428,11.41540460137476,4.187800235034036,-0.7805942599473638,7.320098111081748,9.163455898292954,3.2453590871837097,5.07625645111017,5.246205404007548,-2.624341539621023,-1.3254942126330937,5.583535833851025,1.0594635932150842,-2.100402384178832,6.407407375868196,8.40827561377173,2.652941502254608,3.9805063517008246,2.494822691840014,-8.061569500870805,-9.020391360088187,-2.9379202692820336,-8.118949466667885,-13.598925384406115,-9.698760401866613,-13.082346352187818,-21.47719126828713,-17.386492520455075,-12.15161799978728,-16.532079180422848,-14.574310899940926,-7.977353286582732,-13.45518380866899,-18.506236674768186,-11.86394478707751,-10.619787003962031,-14.224584002443654,-6.543411880711041,0.2020955174598853,-4.2482090496387865,-2.641806057622628,4.156885855484973,-0.4061470773056457,-5.179257064574553,-0.5608015409968004,-2.885994258374825,-9.745541922771396,-4.365919160475048,0.8352477195657821,-5.0354389767150405,-4.812559602958908,1.7103722292574322,-1.5803611520792056,-4.4443038850130785,1.583126736541797,-0.46132811365936877,-7.674055037213741,-2.0444953244522646,4.407652127983118,0.18321455786191576,1.4860950659142336,8.050323657629995,4.581127416101598,2.0870581914022455,8.984399122675043,7.846598859922553,0.4833292277213901,4.674005758308571,9.639935702108568,4.749287511199444,6.01229254778657,11.985020527979481,6.412851844172852,1.255255144420438,6.28612154903375,4.227723764634417,-3.4730992531108917,0.21959684529280432,4.08165029978512,-1.6807518431862611,-0.16378061543434352,6.676570844263512,1.1543002587572473,-5.159342297507658,-1.236546684088102,-3.1741400639109383,-9.2978390278802,-3.0984901191700214,2.856593717708785,-2.2551987336077164,-0.9712315746376414,5.907449549557562,1.159788057827988,-3.7215218229889193,1.6647628976546773,-0.16381148713516347,-8.37670391837933,-5.637304058540058,-3.161378788911372,-11.021048761583508,-11.116384788505371,-3.662742640131449,-6.67306862470444,-10.615850886189751,-5.7275456195989864,-8.382809588441898,-16.79774281758686,-13.115283889454119,-8.055254172400682,-12.31751167542579,-9.671667343915122,-1.3527974292222678,-4.698411064777046,-9.075651761704327,-4.2210928954521,-6.61528149236193,-14.725078269840923,-11.234141269653671,-7.552897312927792,-14.084804213959604,-13.713626510327527,-7.441260191588208,-12.234294703667251,-16.738075393556464,-10.795630937157657,-11.528464154640531,-18.05183847551007,-13.61203544652841,-9.693864108744593,-16.351375839005907,-15.919131034555349,-8.871345900007833,-11.995502708092584,-14.192168471912215,-6.336074127408504,-6.9053461323646275,-14.801830252711502,-11.602421783054844,-7.7645870281562015,-13.58087448186907,-12.725446871944383,-7.125334400360304,-13.232567903139328,-18.502248310834858,-12.795295861054846,-13.665851594079793,-20.22925838245648,-15.712390261464666,-11.300356739692496,-17.346610834143938,-17.433893173110803,-11.96605032827189,-16.410193808811922,-18.995664681488734,-10.057383470477447,-7.932869374663248,-13.022700516146184,-8.009266098277822,-2.5420711652958987,-6.610602172453401,-4.407722886703738,2.3472587114277146,-3.6170897362195045,-10.793039913896827,-7.310281704987981,-9.349257591392723,-17.09475421332175,-13.31658935625046,-7.254492648055887,-9.203550589434116,-3.6675450765896587,6.911266926285574,2.942140681632706,-4.62409765353757,-1.0686717099212966,-0.621283929679588,-4.799384009415174,0.7779126916909775,4.454341562799562,-3.874406418970846,-5.458910030532319,1.125410561914205,-1.5389735113727347,-4.643828026222757,0.9483923151226739,-1.4318497087199886,-10.56010079118548,-8.703676497511408,-5.670539278160712,-11.374257731826491,-9.856556599394079,-2.964027699757178,-7.581315301159265,-11.780417032183989,-5.015926915318261,-5.055035139350824,-11.896554411701548,-8.339393576238775,-4.588052354232498,-10.288777666439099,-8.305698096984559,-0.1781843871398765,-4.183564291226821,-9.50055180362128,-4.938271825005973,-6.391844596912704,-12.364316804656024,-5.732288415086641,1.8884489271994063,-1.1430076942884249,1.07445364686853,7.916377698952538,2.614636213540411,-3.879306346796901,-0.3861059073754789,-2.658044355405351,-9.642909637345177,-4.463222201149072,1.3035878669281893,-3.7347085172851338,-2.7279560330447072,4.811817972340635,2.2027887964123805,-1.0155609838302149,4.345968968719163,1.7960819079648043,-6.45964290716256,-1.7756786144641368,5.26252534170993,2.3200672030306544,3.729946325560694,8.962458481760896,3.1655529938059166,-1.5010954287231035,5.259350332979178,5.476499498510163,-1.2947078825116352,2.3396313272390272,6.390905603443315,0.26243046482990984,0.26923523088868384,6.279020707771957,2.343208849358144,-0.14733265509521848,8.463066140908891,9.121665112843239,1.025938232286809,2.9921243807418287,7.1182714999178245,3.55620414559297,7.421864055026443,15.747530175816443,9.76892282883398,1.12910953343683,3.369002558041074,1.5084590019291895,-4.367313547547247,2.1673562733837075,9.778788727343922,6.816502378169263,9.661614809561165,18.01228729217384,14.336814598858659,9.481327339063295,14.766882698267212,12.671111409458103,2.566244236272613,2.892174928752592,5.408177088787548,0.6363670175315188,5.02922118915067,16.424041121978117,15.112417122858005,10.609519694423913,14.775682463802422,12.472502448722064,4.311687995552852,7.611677597578077,12.547926620699805,7.892115352306936,9.231829739685324,16.526272186858883,13.010680597147589,9.101177223821573,15.526788513786762,14.754454959236542,5.767558011155822,6.491943098669891,8.796753504301837,3.0414385487512385,5.083656493689118,12.942624999604863,7.879223978142377,0.6842859196527962,4.044722936108801,2.3315461438427834,-4.680365894737987,-0.3029664204815923,5.0766358324523955,0.7610089254091013,3.1830741490977124,11.752807156786684,8.53636866442289,3.7795682530768357,9.600250220748347,10.217295849313718,4.5227168440020815,8.528940180038468,12.37455518327971,5.7185166845970885,5.233417165925174,11.074821227153292,5.385410099493782,-2.0374457066407548,1.1592151188079995,0.1529957130223052,-4.881438037092231,2.222135454921604,9.566170924371587,4.613952234044967,3.6605595559873847,8.109994353323192,2.3416038110322903,-2.3669271277753725,5.060961218028407,6.7908723578312795,1.3058284330311756,5.791645172786902,10.64660111182214,4.802020855320651,4.633187533583145,10.598987942961113,5.4462867900664875,-0.758869030542688,3.2725688922397644,0.6126237174948572,-9.18782085519356,-7.267044347903934,-1.8290075876407172,-4.195884448099345,0.28972110839480925,9.838519176468397,5.581129877046086,-2.140482386899172,0.28370050202227937,-1.5119627083314258,-7.841454248813597,-2.386119316190143,4.05630501561933,-0.5485952951031572,-0.16435513807612234,6.547683445651163,3.3565520456199547,-0.029671059456334303,6.883852559316814,6.768548827996858,-1.9558840294548454,-1.9130607607612093,-0.9698883621196753,-8.24398210056875,-7.2361783102297,1.1290457644016159,-1.863346123507009,-6.996900203014893,-2.2162893028633217,-2.4504450419824164,-7.9465319080709715,-2.4215110748877957,3.627875335591229,-1.023729387935982,-0.20081007313245092,6.15471794295469,0.6180449799070811,-6.183391172177702,-1.0007126070627845,1.2480825100215645,-1.0593863074456387,7.772253759901599,19.35737690147458,24.92045875087498,41.047374839450505,66.84435876166759,82.03570439912764,92.96738413363869,110.02689096543314,117.44210422773261,113.56489706843729,113.4095719648714,107.50898012286615,88.45733198678676,75.77857343719307,69.76433766621591,51.74136375665785,31.846827072489397,23.310777198564836,11.796785834348906,-2.81604909316194,-5.028655405235323,-6.555474690059682,-18.926257571775423,-24.742766249236073,-22.815578717217573,-31.963506259548573,-43.89906916646746,-46.01990429885393,-52.94694631595587,-65.00983328845099,-64.99758008062322,-63.415153491794996,-72.6314908104724,-75.70395632060709,-70.97230849592275,-76.69888872322632,-84.33571995470885,-81.72926938682654,-84.18429243469424,-91.95538148400303,-86.91141543158875,-79.22189270219195,-82.49104433009347,-80.91374412846548,-72.26483576556674,-73.4334964720806,-75.31919745963555,-66.65419743696457,-63.78710058520865,-67.28870023525509,-59.548549633095405,-50.86756201614671,-53.86849575033293,-52.409249970975935,-44.66447196773015,-46.77447292769871,-48.772263040128166,-40.091187129716914,-37.96325125897606,-42.79114518657984,-36.097295989111664,-27.11425812933257,-28.315300082895767,-24.646636053182164,-15.414883436384674,-17.52588932611653,-20.78379676134376,-12.68022421734122,-9.126180321551422,-12.21771515619049,-5.949605224914628,0.08033376907535716,-5.353269314230574,-5.23800102047074,2.711912700358368,0.7841625742638281,-3.3429075192260447,2.191870487415851,3.507394215584293,0.27284477654922945,8.414375914312927,17.1797714406033,13.690471309917333,13.548999527598708,19.484481308704765,15.860026454366396,11.658189033265717,17.87210030140162,18.35223382356157,11.497607663943395,14.297775068876547,18.16299937659806,12.371015466827167,13.112086353547918,20.497524413449458,16.090578492163953,9.404725243284872,13.325404245376221,12.334211904154543,5.070276284420944,9.077202607225189,14.953791537477379,10.070684012647952,10.639568185610898,18.254777708878127,14.849412595838736,10.132857076474075,17.012460852560835,18.120216875029808,10.439384525876534,11.971603313371554,14.90774722158823,8.128995162286266,8.247268611173126,16.751754300995625,15.060261325367835,10.792978116855332,15.361951058545307,12.866502837599926,2.9744131475272315,5.3445068051828795,12.400964507616596,11.35753885174961,15.739515648581557,25.456571951167856,23.10413255357841,18.418028198872605,24.386725276278607,25.281973094712356,19.184395530049066,23.622497046282245,29.664509312615532,24.93367218733448,25.0523378022038,31.725016315532443,28.177323973578623,23.414307174646265,28.44528156690197,26.659521577962167,16.83590489706841,17.613793132225336,21.654786330047536,17.17036581403604,18.305956141250977,24.64877385277354,18.31526392631622,9.652006059084238,12.571190849117615,11.903574539792842,5.901621457407612,11.44909768126149,18.61784415546834,14.624882306195705,15.083203266190356,21.237520793650823,15.833363236834913,9.130120640896397,14.442641863142079,15.430620682611844,9.19807202771274,12.351974346580677,15.76631167110548,8.007985790964865,5.787080396779169,10.920200935888142,6.01044943556332,0.8298862725700615,8.59361143129605,12.705650330790494,9.408871831127719,14.635739411019207,19.123488358661483,11.996561706585114,11.26524386464243,19.165257787237678,16.973128116513603,12.674159489021676,18.634694730308755,19.30423393644096,13.102699762835336,17.218504603353626,21.890508536631902,14.56349060473452,12.074598051930696,17.395801294026153,13.26481876611394,8.1808201961701,14.667272367165666,16.9744018025846,12.215231956044443,16.96337626677329,22.161286657893655,15.200293509739307,12.760274980612968,18.721413186183252,15.755678146621884,10.835320917243433,15.475530061680631,14.205089646403135,5.652889577271885,8.518955528498958,14.64422845234539,10.234024850279253,9.783306466931672,15.538346314823434,10.446209945733884,3.571637239631311,7.939895453604513,7.604728572643616,0.2595647970107069,4.201871029818103,11.15169058897705,7.646566265316392,8.315926785614224,14.721191880568153,9.275564844059652,1.3065303782368092,4.492068990632585,3.2667887030629883,-5.034450204457519,-2.473815154865516,3.050863160228334,-1.2082361988083976,0.04623093888726282,8.213661186600163,4.411383373656538,-3.12688704362737,-0.9877900669301658,-4.140090629301696,-13.924387980962152,-11.957391302913855,-6.907906899755163,-12.168062169521296,-12.722188910776103,-6.4224058251776635,-10.285551159161974,-15.56047942215791,-10.029011600888337,-9.982809135480956,-18.046340684961127,-15.607083810599457,-9.330133719591306,-12.074901799314562,-10.066931421258062,-2.412777528056256,-7.192609937133639,-15.267094832357675,-12.71031090994281,-15.063221595292639,-25.113783774342508,-24.679762700836335,-20.738110414270583,-25.091585326081805,-22.53724679197295,-12.278413201390762,-13.452394605077536,-18.06403664195862,-13.007147831529448,-13.677349009568792,-22.04557159024499,-19.568796714023296,-14.293527220658433,-19.463652448819424,-19.63295569867273,-12.702559026951437,-16.867973003410416,-23.508578591229664,-19.17974930965744,-19.280518203020822,-26.183375295622767,-21.80058134928757,-14.07795643598,-16.679857667374108,-15.06959306982183,-6.688926597551846,-9.373792476863828,-15.270806363693632,-10.651046813084285,-10.544806031892886,-18.128597142105118,-15.659711786353277,-11.141910779417913,-17.685933525944574,-18.520146389024294,-9.60374202683703,-9.71831388462089,-13.292777371513408,-8.896512418564193,-11.784041006802093,-22.86342463155983,-21.648992401036804,-14.653672424164668,-16.504018139978648,-14.217210858354347,-5.708106721864173,-8.473087380212158,-14.639701684038574,-11.307576993503638,-13.508987062607021,-22.97018087862094,-20.49130141435597,-13.163067012475345,-15.528774978475646,-14.815788438992215,-8.54233145982663,-12.505447290342985,-16.820541215555295,-7.859900928772381,-3.1723986805378868,-8.659729480592915,-6.617934988673624,-2.8601170898938184,-9.613284676303712,-11.488492972082396,-5.546762150164858,-9.556261799833011,-15.18562781891796,-8.670792667535682,-6.023446068607515,-11.989830687253477,-9.637067731579172,-5.513245348877037,-11.223561070421303,-10.780277759946948,-0.9700883453988349,-0.40698390074737567,-3.5085843052469716,2.0101182780527065,2.178917064508049,-4.746436375185608,-0.4242500985204667,7.3598925935859665,3.4815255240895606,1.6546692901008373,6.091213702271141,0.6526912688616449,-6.517749313743192,-2.082028647342541,-1.6251153665090234,-8.613727536822898,-4.725787896535206,2.8158849094888834,-0.5540196363595671,-1.0009874250215938,5.066342874116231,0.8973468536206233,-5.1819384183751485,1.0192841828800772,4.168207492399757,-0.2357983159232595,4.848892924244692,11.745964278689025,6.452532169119967,4.105318532730191,9.529506004240433,6.186642815388474,1.1384231709239636,6.368441484829305,5.24154832202859,-5.4604042237718335,-5.5123881100895264,0.010015369458724166,-2.906342378512496,-1.600215318979588,6.207111174473376,3.228655377690293,-1.8640452507893701,6.077465728729015,11.149350830554368,6.719648797490353,9.594480987419258,13.925137783278348,7.345611869822747,5.916677734177485,13.816368591588045,12.057364021717946,6.250733712595649,9.963911659256773,8.959300966198693,0.24357573610723016,2.2407468962698127,7.93151149723096,2.9385143777750304,1.6043957661110932,7.936233153661869,4.704102747435007,-0.6251994086969113,5.80578032091292,8.607339002063195,2.928657195546228,5.787677363816444,10.52135254584447,4.6084919748217805,3.953799103332046,12.288823466309479,10.320455743116579,3.1206078860772735,3.9925722937927755,0.02005392734329403,-10.045538420258712,-7.222782953813979,1.54124423499964,1.3264941262986398,4.563213917940678,13.541496193892769,10.376393267403966,2.260230934558798,4.42780450485249,4.6268830194925386,-0.18426644198782416,6.239560126982353,15.092462731578632,11.457439808070063,10.176479775798233,15.889696108459427,10.78803156941595,1.6136202594557556,3.004893729500483,1.3836753956536234,-5.994995451719212,-1.0161465123019076,7.766326638435136,4.135327885132543,2.4085922500040198,8.077842733384086,4.451115222322859,-1.7060866515689685,3.4773416007935096,5.155826729578299,-1.4256780845478847,1.4604026552808755,7.81497431084582,4.036183840592584,4.676938191859342,13.564062710518012,12.177828313110064,6.524644611186224,10.81475794876259,11.547137228043162,6.075044226910131,13.539865005721506,28.583745399497708,37.88350363752569,54.179792302436674,78.9857778724746,93.0378034887664,100.3634314821642,113.25436038919446,118.075962784597,109.99507860640713,106.46751090038885,103.78615277106388,89.69737480682628,78.77883167404583,75.37563491237404,61.17375788015072,43.140769639617794,37.136082287925696,29.330843992232815,14.810001909569014,10.900363131627376,10.920307781120975,-0.09407769843532865,-8.40976637553624,-9.35806954394819,-20.195403434001644,-33.78396089047911,-34.576607379505944,-36.339838467943586,-45.25504442695447,-45.68690489211588,-43.66228044391358,-52.212607253493275,-57.06392873353907,-53.94256215645292,-60.15151696528357,-68.97596340027593,-65.97549736901045,-65.28563717876047,-71.80969392769472,-68.9579918236189,-63.610214592949895,-69.27122401712703,-71.05186558665963,-65.14422034848312,-69.88485922347112,-77.97507451117525,-73.5897827595277,-70.64025164828124,-74.39460389814955,-68.27284564433901,-59.892968189437475,-64.03583539405723,-65.27978306131364,-57.386201813344954,-57.721802344186514,-60.48541462991383,-51.389131499570745,-45.72853540792868,-49.587570027036996,-44.87854391209733,-37.30201550564928,-41.230602952090976,-41.57813660477413,-32.9077534147105,-32.779890207153976,-35.01090475434278,-26.22673582465114,-21.779156870520637,-26.030907635899354,-21.01039352151139,-13.340588419030121,-17.131446234838286,-17.926716125618334,-10.871404000292808,-12.85355733647699,-17.187111591095938,-9.924386384892149,-6.720141460281902,-13.20235896702623,-10.746409540779908,-4.690566274905798,-8.923452355890522,-8.043320854551958,2.4910471156482,2.8664808003749713,-1.8395786000024525,3.580844715848323,5.789957890151746,0.1459762283866941,3.916008025117795,9.843656733851317,3.1415059788033495,0.2078296881910673,8.247636740033272,8.967399034885293,6.3020492835157675,13.271236111752211,15.472641153702925,9.602308839676322,15.009330476193355,24.736260615263706,22.263062995132472,20.933135850324568,26.29329674504256,21.600905496351576,13.394212788661648,16.992331223633247,18.840478077085653,13.434766682955162,17.780282623696106,25.280547628374332,20.31097095474795,16.8367873904399,21.82706632227775,19.256622722594322,14.385328260397023,20.248852115594904,22.090736659177733,15.359755782975698,19.099575869194567,28.40900100272724,27.685745857310298,28.47443557449876,34.65261286735159,29.564606165749453,20.73591841740669,23.785972081048474,24.520085532263643,17.27493944916605,20.68969492312652,30.27774823958859,29.9041319540075,30.297664618931215,35.427912423176885,29.261648433355248,20.461783564950448,25.924531598026753,31.013377763015278,27.35600639185979,31.134361295143048,37.666601034749974,32.82916810247842,30.65598542386697,36.44392204992566,31.96081265734317,23.343923510303668,26.576566644608967,27.749632178639942,20.661281335260682,22.869501406906963,28.827107453214577,22.74922414853583,18.08810671883501,21.071013493463177,14.386386394238258,4.063024624795082,5.979438267223528,6.728412887659595,0.8824350544575181,6.013965436385213,15.08506035651903,10.960519363546286,7.2213752334001295,11.294998356144577,7.304499061041318,1.7491412167818954,9.486361206907345,14.69359296877075,9.705516398693948,12.852014598967427,20.34928390234808,17.130935500322035,16.169560682680665,22.63911549407346,17.953269526105903,7.607623739745881,8.754955628591851,9.125563361661214,2.366956605839334,5.535778751367331,13.341710043933983,10.032938490653898,8.494753867559302,14.732916820824626,11.588663301656123,5.2873806773847285,12.274353400694416,18.384035409414835,15.349925986697514,18.992971832682052,24.170318654854942,17.591257339126287,14.568079511623498,20.96573660748585,18.090936322232533,10.240522745754957,12.31304374344351,11.353440408906383,2.7173870050398774,4.890217819382378,12.35875802609788,8.763241693105915,6.4546064089694735,11.26415654935662,6.956288922199597,0.25335251203253595,6.610094612248847,11.111756321106423,5.78767760689238,7.618687765232702,12.629358563165734,7.158467685400515,5.53633471861768,13.082016445616201,10.46332426767549,2.035105825362281,3.7365193029619173,3.0001653458123343,-5.492345292220561,-3.9387341744244777,1.9087215760268421,-3.9155284246329427,-7.837680190523892,-2.9864598615920532,-6.543718650733457,-13.923229921735642,-9.942555868025295,-7.624342588730453,-13.245816628363087,-9.413855299451011,-0.9263167130453898,-3.935462986990156,-6.402828843031598,-1.8430681322870093,-6.702372964686253,-15.396809915682317,-11.972522907800785,-9.98669950158003,-16.73956004930185,-14.8928093501456,-8.990961627667428,-14.614180971908072,-18.42190021363573,-13.751445623371822,-18.352080221292816,-27.410150071354195,-24.86055106406323,-23.551474555000567,-29.271672480880838,-23.903505522415607,-13.462146974255187,-15.76313174406255,-18.530759443032736,-14.551003978403855,-19.732614330796256,-27.731239247675564,-22.61070988816219,-18.578084833310445,-23.150193903349532,-19.262136231873377,-11.937568265355825,-16.830697746569886,-20.85226682834813,-17.144633638917536,-22.039211061055695,-30.24498434285748,-26.483974917807075,-24.016950291109957,-29.646602737656615,-26.32681589591705,-18.63231444411952,-22.013531769279467,-23.532277999973324,-16.81463734555304,-19.45639301639347,-26.07822109547749,-20.0067471842951,-14.910678895228507,-18.901519783523828,-15.352899843682504,-9.397325160727782,-16.259622051513265,-21.13446847270036,-16.27747965691066,-19.514520711416132,-26.863578598484256,-22.65785756181343,-19.5760419648976,-24.114274476521096,-18.939103261181568,-9.373874627927815,-12.095807829835962,-13.956127725087573,-7.448763916945403,-9.938202292355143,-16.98229745753025,-12.564352069627844,-10.013605062908063,-16.75271959503034,-14.796045519438033,-7.7975207503109445,-11.633636280830299,-13.453407579341931,-6.451098971923823,-9.093578232396023,-17.96206124598141,-16.590620571699063,-16.268216892975836,-22.966964594662734,-19.36260946595395,-10.32087437871482,-12.392297140602281,-13.470828300243916,-6.789355236103738,-9.400069983543439,-16.361852266394987,-10.998048238333228,-5.794196269208111,-8.493687060187094,-3.0553006597387093,5.231165088170135,0.7739459043609864,-2.1723177825265956,4.25294647223743,2.2027843988387437,-4.807673828716149,-1.4160878331346238,-0.21854602372776552,-7.460477147677146,-5.9265013938840605,-0.7201454570768417,-7.470823505151733,-11.935877214371454,-5.416192617313108,-4.885963216822621,-7.626301210633392,0.1268598684838267,4.061148150020926,-2.6698915335457056,0.03179187028332153,10.213668722920552,10.690274345869458,11.421638793657714,18.009838944611744,12.872062543887735,2.1534478270646673,5.253863621020364,9.618712072854573,4.858219435313884,6.5096823017342365,10.826032416577055,2.8389095423583535,-2.9182554187015044,2.4663629226842136,1.2359258175577734,-3.7344409914649903,3.0831919745443397,7.972264629180752,2.366634677621743,3.9182498386315925,10.047236507283797,5.9608392335640605,4.632455515884274,12.945190727786754,12.772851008525997,7.172670299470942,12.05068682215916,15.534794948427695,10.401144374938397,13.276757561112815,19.49159906165309,12.864746890736388,6.9671948520018905,10.736928656530331,7.533963261567773,0.8614951864014162,6.126877329747357,10.44281586144191,6.764529848743466,12.497685338502448,22.38015004291922,18.872678108567968,14.53909072074384,18.220051061836394,14.565470724821456,8.314737065708925,14.695617088624786,19.71818469376358,14.834587309705103,17.08595061245434,23.288810101012384,18.32793640859567,15.010256088699455,20.372078214509028,16.71022567337012,7.568065683380791,9.207323986844104,9.839542431952886,2.1817615831784134,3.5388197127979746,10.699976257921506,7.868986985873822,6.942160529472873,14.295550062083032,11.853298117936628,4.014398133526483,8.766309056181196,14.707684879933861,12.846495127492723,17.79837238917758,24.160526844354827,16.085780051025417,8.238804650214119,10.367411674767977,5.348400637795267,-3.5410479052111246,0.13905220873192592,3.7550580086619876,-1.2513068495071122,1.824851281142441,9.029394262640762,3.9274030822429844,-0.20843502567367012,5.641545286509848,3.9768282441580216,-2.4823318387353854,2.4185231441133315,6.643236951070518,2.565532927820346,7.263408968735661,16.381242725651514,11.968345170340202,5.722647703875044,7.755613157564278,3.6044014040264853,-2.788581525604555,3.183885212499474,6.687029659976846,-1.46223432520061,-2.545003338933835,2.5235758319723605,-1.4717180772991423,-3.0515842525980807,4.040035409337024,1.816566173794143,-5.962433888512303,-2.8487418695926934,-0.8308084676912573,-7.148883566952421,-4.091093785833445,5.308253869364188,4.166093603753135,2.8982483075682217,8.334507325389236,3.7162914164553107,-5.955070583832068,-2.2673899545530847,3.378288315940417,2.0842384015007225,10.801820584802543,28.663702998971196,41.75649000867996,61.38151240238286,92.28439730252,112.05729783853661,118.6665347100697,127.67847472940716,129.89393418870114,118.89160798107207,111.6239479656781,105.6111005608713,86.58667895133998,69.49557192042411,64.95965220050998,55.59395857739209,42.32810027582171,39.438456277874586,34.03888150106067,18.915984061751757,11.986419138894261,10.285471806707116,-1.5515876575089607,-10.473305525152567,-8.638788365971568,-14.84938844326563,-28.132329585473922,-32.40711713864899,-37.36167012200137,-49.076850219960505,-50.43800219684299,-46.121602641105405,-54.20294180846513,-62.172872312868876,-60.19686326886932,-65.45847281966753,-75.51205506909474,-73.79654310196551,-72.65686684843402,-81.14402557838488,-82.26315269952947,-79.24773681599581,-88.44394848847418,-95.26417595618139,-89.0130340572538,-88.78462610697986,-94.98434771360212,-91.76418961511195,-89.72910582905682,-95.79818210362451,-92.14002363080623,-82.38036050985082,-84.63813942877559,-87.53496019326766,-81.27576031473185,-81.86084601725808,-87.25472233796819,-81.38854165366455,-74.59255378275523,-74.83323671599221,-66.90247770347736,-55.07082079308224,-56.40510707803201,-58.84285007044671,-51.58320355265141,-50.06655017082145,-53.11870333077553,-46.360488714863,-42.18290129370022,-47.821791430323294,-43.75974077926353,-31.542257614350106,-28.754121143300857,-26.087146143592573,-16.68689858838976,-16.719563835878255,-21.821721095187492,-14.257384388351895,-5.513759126083601,-6.102207344242059,-0.9808099222742457,7.785136202650748,5.183875402201384,3.0426088720291142,9.324726533732923,6.457522772092938,-3.22256569741103,-1.3567178654654288,3.149386005791841,1.5132375754340675,7.843997601342552,16.806986896974855,11.332516263416888,5.492828827203416,11.34377595606562,12.946880018237106,10.099223323862581,15.675920175576742,17.484328481326934,8.992324618709699,9.439386757079806,17.645187603971277,16.536117063613865,15.826577082777117,23.0260972482478,20.563703475383196,10.371674584306795,9.769624982956511,8.966607456530642,0.07341529747763387,-0.3206992693939088,4.872004558051001,-1.3788470787927443,-7.111500234676751,-1.5584950883913602,-0.8500796691077943,-4.47565520206333,2.740811325726079,9.58694600613052,6.881226326963218,11.018840366000239,20.5505523071784,18.771368182893855,16.311419014075476,23.35063923821194,23.518090066151093,17.20477634453065,20.61299671644211,22.952425176512197,14.970481238279682,14.7420838835305,22.77778041267281,22.510927313141625,22.935834087601418,32.030586287762894,32.54467700597676,25.98290161423097,30.925025302583993,37.68002196188349,34.655439505595496,36.46671102800711,42.053373295071474,36.40676020559498,32.69625230266691,41.24818897329428,43.13661354512131,37.00295666147036,39.230246445279285,40.149345064076755,31.433097922643064,30.688845803760973,35.970627558893575,29.4481173760212,23.264713595886302,29.282069188283817,31.031886604730204,28.185889890075302,35.554072070986734,40.814728909300676,34.19615773896395,33.88412203274694,40.04242866879022,36.00082953695727,32.526888140757606,39.994533363140796,41.99447183833175,38.682406915891676,45.38510409298032,50.45206994891054,43.90576921622503,42.76283458990109,46.63034985335876,39.06576811149442,31.443719689185272,35.39598003466247,35.338702452567055,31.223741596268006,37.85216519372275,42.72985392565287,35.634918824488466,34.866777643087474,41.12287674873493,37.639922872505664,34.575306883650526,41.90329105764902,43.22025874237391,39.12911824643588,45.379481808597646,49.647249736544545,40.94606165268357,37.162334108671985,39.7700634060716,32.657119355919804,26.04961160978953,30.008311035460615,27.93680766588681,20.571289542056636,24.899144331378427,29.783634768491716,24.12049159682828,24.50752143127218,30.91919569330034,26.202151421364565,20.351734828903275,24.213614255456296,22.215937469254953,15.67976511683673,21.52722735054583,27.45879929632566,20.991591838914495,18.193159172036026,19.279622724367517,8.715538967472853,-0.7223263114685579,3.4235808008914184,4.292261902665119,-0.04761263218773859,5.003748250934109,7.619859002821594,-2.152953065334965,-5.27585358773994,-0.10103423909304166,-3.9565004416732803,-7.86261684103881,-2.104518494125793,-3.2883082075507355,-10.491169949859888,-5.987166704807678,-0.4408903087477951,-5.38362037512021,-5.162748979067313,-0.9016873415140152,-9.653963268755643,-19.311507643285584,-17.29443199124641,-19.698810477684095,-26.67196570325276,-22.112913058087397,-17.873070696421234,-24.892489185106896,-25.331620454307608,-18.467174406859474,-21.951447637762055,-26.316245994468964,-20.86754039804604,-22.073702003778052,-29.464936641574976,-24.840963386256654,-18.58615183410094,-23.122504113118104,-23.05979432303011,-18.78688179455729,-27.1092428929854,-36.42143604186954,-34.51751008661827,-37.327870704154805,-44.59256390887849,-39.22535840346556,-31.968465692949792,-34.794266428977714,-32.8670824940445,-27.104980192372125,-33.8178690701177,-40.74171059079512,-35.126490482658724,-33.16207062055599,-36.17515992301478,-29.048648147089285,-23.70584464786713,-31.17201930947376,-33.27341425649317,-27.99110645306042,-31.642939697730576,-34.45665234267379,-27.130241525734093,-28.165039443191926,-37.69672879533802,-36.12901982463816,-31.813894574573922,-36.559300806486384,-35.34345488893578,-28.301734484989595,-32.4775445829972,-37.19785079707917,-30.331017425236176,-28.83126068224017,-35.04913491072386,-31.793161156173532,-26.895217602677555,-30.770393555297048,-27.936812294158017,-18.818437146449945,-21.700575909714853,-27.226835725825026,-23.14291248979892,-25.092978215284013,-33.885635940092556,-31.964015792676676,-28.501818411622665,-34.584875506170604,-33.929497397051534,-26.395210515438933,-29.65526003566246,-33.722618913857,-26.91267474643285,-25.681915411378835,-31.266950199892474,-26.363820093634004,-19.40709940933149,-21.104151942975864,-16.56567924263305,-6.881548252972827,-10.093387374311245,-16.32992110602473,-12.994140080442772,-15.23736172659499,-23.77822963050274,-21.380760359507526,-17.3242717222178,-22.915242990000625,-21.966855264204227,-13.966262153748263,-16.54501354561068,-19.723529210092064,-11.783955250387876,-10.221972298757661,-17.038983291492237,-13.595012878922626,-6.825044887664987,-7.226387372222039,0.7407345655383457,15.955915792990902,17.58665964635618,13.641263677606887,17.594815735270068,14.485379320832799,3.2844548004407157,2.2028822746062477,2.6382094548438735,-6.799647702361588,-9.02844341839207,-2.569121675529929,-6.21279728800374,-11.381376320829547,-5.450512786223183,-4.223913590982517,-9.46330911236388,-4.42783148353722,0.9084488739638601,-4.941409236173252,-4.290026923986037,4.607991390780111,2.8191682812653966,-1.6803420184487237,3.173916898564184,2.399917890918649,-4.135439830824122,0.5686662169010606,5.435110235794316,-1.7959395095403305,-3.3309824881156898,3.7947462170689503,2.2908567175886985,0.028308444556925605,7.3113369436765625,7.54370823639198,0.09647305138889539,3.552775710204808,9.208240643110077,4.5643659237548295,4.918660794469098,11.75183324048339,8.357030068506116,4.483595291968268,12.301923076167952,15.092588969575903,9.613392621166735,12.145324091402042,14.801490005703698,7.878685398147567,8.347785657355008,16.94869133232463,14.62404907712327,9.15333492863688,13.218606950493623,12.902165709173858,7.479643169935958,13.4234211158346,20.180645143424616,14.579894805184205,13.247216456214371,19.505746047631554,16.294802401613442,11.708875763517902,17.20984475594619,16.85548676339016,9.500019491612893,13.545554585064837,20.558755163724797,17.48223035564136,18.966812690519152,26.30883581187701,21.769017011253794,14.157325274563258,16.736558551884492,14.931239647848859,7.75540389251641,13.173965411868487,21.45530936349659,17.968208084946458,17.30053304413277,22.26558184580488,17.18384819598401,12.328730452053328,20.083471929868963,22.753700036484844,16.59219686252253,19.336856493850995,23.94552349567052,18.86299151013089,19.018290760775848,25.305285097039548,19.980091824841622,12.372944889450483,15.846313965063697,15.04948578655156,7.905689862656443,11.890384819360984,18.582369397007305,15.329649662113166,16.59378094536466,23.524119296612273,19.13506551886521,13.017745654128522,18.44610845971589,19.816194910941604,14.175428437304248,18.558428500455992,24.5158616923147,18.74461487325643,15.799416336598245,18.264106252565387,10.508511191966578,2.910588643728264,8.439068651932242,9.949548452765093,3.1575766082267984,4.677152940851705,7.085454148877119,-0.28708578913095106,-1.2110195505520656,6.052009873121377,3.687201042267213,-0.41548726012261583,5.784519672702683,6.67512322012587,-0.11321426710748206,3.2526134121372428,9.0590933467293,4.492174733803891,4.824764476538938,12.584952875181143,9.641312389786318,2.8415004212763515,4.525914412779814,0.781225220911439,-8.284617227175076,-2.16651409052427,12.304297892386092,19.694432989396855,31.419959916946027,48.509640144569616,54.94934767529307,62.18432455739534,84.12400887328204,101.14444072308603,104.5524257016275,108.82674724354803,107.3744837167787,92.18733175628749,83.20449272765379,83.37152286829955,71.92775581008712,55.11558437705962,47.4701878819979,36.00258611611261,18.388862013069943,11.617859204531252,7.927504166995468,-5.653821493969953,-13.601489374010779,-11.966348223164983,-19.07305678705544,-29.43385570688321,-29.88910935786877,-33.99798338923561,-44.59810304624886,-44.458584924403524,-41.86373019473752,-51.156196669153346,-56.69442260943006,-53.68202789236102,-59.22321134822761,-66.25260804637252,-62.54125584840881,-63.967674033340465,-73.30421373352536,-72.10690757107903,-67.71598196032599,-73.94470434976051,-76.42523720759326,-71.80167540667728,-76.92066791261333,-83.9101248310688,-79.06277171698969,-76.53941628615704,-79.62929785204403,-72.26199668701223,-63.796473573468134,-68.63377635881,-71.0094332986495,-65.31001687359324,-67.0986628777612,-68.89895037232951,-59.48998975632811,-56.07297185819379,-62.022452004427436,-57.81505257083116,-49.15497037206919,-49.80989499326529,-46.755975522353054,-38.08388835295317,-40.98569062680644,-45.948011060513785,-37.916049138786605,-32.73855808889239,-36.20365086686194,-31.953682313908473,-26.266910900615912,-30.78147218174729,-30.024023759921707,-20.863399413657817,-21.209100804438545,-23.829285821584538,-15.241052081895589,-11.170087961921825,-16.41651032819316,-13.66238479146735,-8.974206159876264,-13.791347102028919,-12.17728645387703,-1.8585701233630414,-2.6118908897094073,-8.218017365354124,-4.6960065848548185,-5.620008678513559,-13.186342620799628,-9.332381839011111,-1.9436717701806523,-5.302116956948949,-4.468138209825868,4.649813958091763,4.499440855425024,1.513385648868454,7.9987629875708866,8.670487425603191,1.1604709023637212,5.018887653450541,13.998603250583859,13.703205529764936,17.123085972657712,26.273609372974445,23.11177853520097,16.133220431878225,20.423413739922587,20.708157635855034,12.658928208328344,14.610296972178322,19.940791402501013,15.15053408460877,15.300638556451702,23.47845362956999,21.07133076460905,15.552951517487008,21.601838963644163,24.066244207172915,18.255384866113097,21.731356682596292,27.570508587845186,22.543244577841023,22.300046417218205,30.644441760718777,29.092296941447202,23.83028482914813,28.162769746857215,27.55780601015732,18.67879329978839,19.735726645890075,24.4848550544099,19.48533236471728,18.772231398168575,25.451468202993276,21.856016796338253,14.935479206910017,18.688575310656823,19.391078157786723,13.65950040566662,18.78262128464734,27.057542594717837,23.63538533619981,22.546068280726836,27.98787040667955,23.904152555674766,19.02009785398826,27.062701383307935,31.825730805915697,27.61170963950927,30.812154752104732,34.900426285871596,27.412592336404323,23.800902302574606,28.38639269737324,24.188199638937725,18.060661733581263,22.501400095719156,22.132636065820336,13.713513186266436,15.913545849246338,22.399693061450048,18.560188272451455,17.423014666175465,22.811441098421852,18.624353685927886,13.010476671258054,19.903236722792332,23.266439483458793,17.302496015365236,20.019205520036994,26.189096111803785,21.825726243198527,20.719036908173052,27.156095437023247,23.718415466236404,17.069616879684133,21.679768377712293,23.206654284342193,16.55240811128113,19.255257474028355,25.578589462620997,21.254983918510177,20.217742152860012,27.03324929677488,23.889048443247965,17.546025264813434,23.37819223564269,26.966018835209397,22.262644253218376,25.733117897135607,30.872631609941315,24.243027810250936,21.53624412970361,27.882912724400647,24.609546520092202,16.948936782697828,19.52967278379067,19.4384690999267,12.740096330395357,16.242431837433788,22.357744522121898,16.091177854051523,12.063167165185542,16.191411146941363,11.623880733244352,4.481385898433002,9.01770436768547,11.040408177794063,5.7085191576573795,10.171484297437773,16.809662683254412,10.146821213475953,5.690611442069882,10.51525046781628,7.721207480992133,2.7027058616472543,8.217950671627687,8.708892154668948,-0.2563916302948672,0.2514208066576238,4.766646020972592,-1.330492582441269,-4.208525579194411,1.4814838756241153,-1.4953659849865224,-8.07582640831308,-4.641986307833518,-4.690766734515332,-12.175314385911621,-8.709170953055867,-0.24570120763488434,-2.6307130580412634,-3.046218342550177,3.7941089551546603,1.1382586467432478,-4.766969292795567,0.24944563848218726,0.9000099597838662,-9.143738310862172,-11.419748290445884,-9.549960087190424,-17.01239500727049,-19.823206666285085,-13.4927096699264,-17.030157412637973,-24.941482887042103,-21.204273350283767,-19.175980041679818,-25.145512003837226,-22.29023151733302,-15.754708275389714,-19.34314464941136,-19.367482268875474,-11.650735804893495,-14.81279779588883,-23.271798167681034,-20.783139851398417,-19.38450487618948,-24.795040879665386,-21.206637296663146,-15.247620255975956,-21.79716364893805,-25.995679922097857,-20.590410199831148,-22.661171197385787,-27.295815889251852,-20.14775691923924,-16.37408958540788,-23.587740775439183,-23.990760148425466,-20.68518799628619,-26.9298343488436,-27.978294339809267,-17.86669509596701,-16.480515492279338,-21.219070116586792,-17.10847015429124,-16.42672976742218,-23.89484940253512,-20.990430674360518,-12.797958154301492,-15.698732273006817,-17.427485526981318,-11.553646506027233,-14.478540927586149,-21.042324472217064,-16.81186541673957,-16.086767935291537,-24.708388095958203,-23.423254988125137,-16.057338483728408,-18.39352388247546,-18.76488750350062,-12.693524910622855,-17.340779671977156,-25.3856013063516,-20.021366825228014,-15.891582106463886,-21.4341264612385,-19.689103658674238,-14.707662425856295,-20.183004855014712,-21.173801992013573,-12.11834976189458,-12.995579690385108,-19.704191547111268,-15.773786688999863,-13.688173644309906,-19.45753598836602,-15.878673566126306,-9.006437966713886,-14.761667394372786,-18.857892286698814,-13.99067439147494,-17.52850683661515,-24.449110148985554,-18.969890541507137,-14.597712936255485,-18.650207412618734,-14.592084373129412,-7.41343574192183,-11.638758678184516,-12.850311318551512,-4.373764152187809,-4.4653016328508315,-9.827831952592277,-6.028497956341133,-5.414440056711113,-12.749351758851828,-10.061330713363557,-2.619048375972519,-6.329762617496176,-8.331057366565929,-2.4619603488711843,-5.510274545079142,-11.722668215982656,-5.996077968995589,-2.6485634192457796,-8.941697664651695,-7.608473310222571,-2.3522698550308063,-6.921707230024676,-7.291995489192118,2.4713497602725516,3.401274544695705,-1.6962779560731727,1.86104157025903,2.0877825619641412,-6.035175138764736,-4.285308087326143,3.07667744295987,0.1780347905014774,-0.47542195434241175,7.490760158779742,6.512031983298897,1.0405204813545637,5.953502836422073,7.489355233610221,-0.04048039025909311,2.623460762370687,11.287179040839149,8.624871003116386,5.534196147760389,8.221292014313368,0.9480694072012192,-8.856950197900723,-3.4015743762330035,3.308149176826363,1.1388006187447042,5.732882768998847,13.572228983350879,10.231120661612874,8.685346732439477,14.947063091595027,11.08457419733481,1.7403668098313259,3.8870720333528226,6.209261034223715,1.7362582227716954,5.993292031587101,13.443810550976542,8.651425322524432,5.289135661109601,11.183686856698202,9.148489914564472,2.4179738056867963,5.880373319751692,7.1676941459072205,0.8350897120471688,5.645091444739437,16.915806707130805,16.49030383023699,15.213549062524613,20.24089374424106,15.747156716845542,7.489412548942046,11.704139202082473,14.817522989985441,9.343979768018317,13.30442199997965,22.73808511513892,20.552778521810446,18.028982032859005,21.810045064545882,15.329938703137355,4.658819744499706,7.471962472986048,10.930292027387434,6.262484011993767,9.628810810900221,16.610526020282414,11.461144085750554,7.76088351626696,13.720432841131265,11.915272797952026,5.452162712010136,10.069330122573572,13.373150675905425,7.620721753233784,9.887656991703203,16.143240355461927,9.647054929339344,3.1050066874431597,5.660777871101614,1.534954943322623,-5.437353351608442,0.00971860792683854,4.3581224948222586,-1.1575283073623188,0.662454196769255,7.765860426639384,5.183238832727743,4.761744137895696,13.284973282648656,13.05635176594632,7.272282362098807,11.987387408172202,15.192441261135281,9.37707636759685,11.407135812682466,17.45835224838025,11.754173540960938,6.714668520085835,9.733245978954997,4.3012241008871275,-4.949027957569772,-1.9952506528725644,0.3303072477675004,-5.9948598413599825,-4.174725013210885,2.7145742093349043,-0.3710223980312559,-1.2154638249254113,6.72474798856971,5.344585358748153,-1.8984818980779412,1.9567533787288238,5.566548884359391,1.1773833737382624,5.242618137585082,13.962153558252956,11.593957838049356,11.556880595054997,23.353007332593126,31.18471845718398,38.78493041091908,61.04040592491984,83.31787599402361,95.40395385825023,112.34710328807616,128.51319825199536,125.7688642002602,116.32972199585824,110.13540523057596,92.98276669392149,71.31898429853588,62.692130650327734,53.75939060628488,35.50607119451593,26.004770416020023,22.98821898783989,9.534442668783745,-2.372660028290429,-3.904248807806772,-12.911557721858932,-27.54374904312661,-32.21397253139089,-39.60803678913945,-56.83369923778886,-63.88098543073997,-62.49403863753866,-70.46545899972057,-77.22990234897527,-74.51708450831853,-78.91591649895344,-87.01293690196377,-82.3730778816273,-77.52639254991456,-81.73668792110234,-78.22108523956791,-69.13653201723857,-70.73543156347314,-71.57124604295112,-63.044878869981254,-62.42982146781875,-68.17494165064043,-64.79381021625566,-63.64304815992821,-71.70829062090475,-70.84271073059456,-62.98791085691944,-64.15228242248536,-63.59354849804525,-54.31535387167614,-53.64001856166948,-58.83170736160505,-53.74312759612153,-49.523223073810485,-53.601845039221274,-48.895630047135654,-38.34122625179748,-38.899526284833634,-39.75909311221825,-31.854310510781733,-30.40661849076968,-32.67338236794614,-23.678569680609762,-16.449742063775187,-20.770362675067222,-19.427685488281888,-12.554103795623913,-14.888508673601123,-15.147766662454567,-5.923459271690968,-5.766945542594892,-13.362384300330838,-11.198362412821556,-8.063824225965718,-11.352519096351633,-5.7125701621031375,4.366598257619346,1.6192172401721003,-1.8555455639055498,4.559438865674331,5.564792833492087,2.870677423158136,11.27247156681763,18.710235789594297,16.453249685249016,20.394994281734938,27.382345556168005,22.145383434613123,17.84248090309668,23.6876321484894,22.554601959646913,15.56590186093616,17.991522021208734,19.487803159508,13.002051708728931,15.485370472185828,24.464133605374744,22.750840468025142,20.687044956181502,27.65884604848849,27.303728759757007,20.833786590688774,24.493551365532703,27.56121772148841,21.345571875784486,22.84271262133375,30.621610643507676,28.380840453888652,26.70468337941821,33.90070140648955,32.866908891262995,25.099507206513977,26.885106388236398,27.622430294577168,19.17421387933676,18.817236640897352,24.50160618031616,19.551197766814155,15.675940442740568,21.797826894119712,20.442727848840697,13.873881267413136,18.824988613513515,23.424326924931243,18.944531408550624,23.009071772910033,32.76502929854186,29.528674193181075,24.05178117005737,27.09934184313144,23.831183406616134,17.739576906301764,25.245924346929726,31.718320737856445,24.831543125122806,21.916198922329425,23.629356596968343,15.188846057647051,8.286330590550238,11.291109228993724,6.196188100679056,-4.579286433185988,-1.9723691893001853,4.057215345411274,2.4946914570845053,7.133067524807004,14.394598063102093,7.357003509231217,-0.6593623309437651,3.7148121845797473,4.9093044403603345,1.779178327140964,8.579971789624617,14.0483457620963,9.01543135949593,10.211875972166842,16.30432495521737,10.488726560126475,3.932110943948143,7.86568354723871,7.059190853362854,2.2008240085524036,8.294734341992822,13.373196997914476,7.863740085666305,9.17018437024202,16.519558283726408,13.516163810459476,11.349027528641141,18.966121611463006,18.353567806707634,10.436710564062853,12.902285985290709,16.400635693077554,11.69248957942108,13.939832708616095,19.958947405013397,12.37085378753418,3.4228682075461205,5.518158435477186,3.358957686707165,-2.8939674318199424,2.107047654517805,6.822637025396517,1.2342159766033811,2.5272658720886576,10.07237987148926,6.752711865500881,2.947528378207527,8.264201265888195,6.400428681772436,-0.6223459465277505,4.137714360759858,9.528110671030603,4.884395041894402,5.5313695015987525,10.616895925360058,4.498614422301715,-1.4243827338406971,3.109101962862597,0.8276911294157006,-8.002241334882141,-5.899970066368121,-2.557782903696518,-7.6040967284908065,-4.798406076395986,4.2960535756484415,2.0969387453510375,-1.2724115390271875,4.739189919442033,4.2305483513870294,-2.249835121833388,1.8785781476223828,6.140267811185929,0.4028495041375333,1.4314663751624732,8.996662966805692,5.902610726539734,1.239678144533142,4.200654478591973,-1.294444698893578,-13.158172128123685,-12.588473381280608,-8.744171567542221,-12.140530638329158,-7.856922458441201,1.5017684699589147,-1.8931033158337014,-6.961745736932451,-2.561254796059295,-4.48007308180723,-11.692199285943762,-7.697898893145595,-3.4442069718935553,-9.041050514937515,-7.726238912828221,-0.4381780722364077,-4.908600944985776,-10.81763013508985,-7.0711677481499144,-9.55995995404438,-17.56483206074957,-13.922666914340054,-9.22152418402529,-14.798517355315749,-14.842743023319223,-9.391542144025774,-14.404342979882818,-18.579634974369224,-11.35849263785503,-10.217609534702383,-16.085885026250253,-12.16717922552586,-7.24104360837412,-10.528953386127574,-6.436160996720753,2.755694648993864,-1.2248162189022667,-7.795739529265735,-4.976567053526895,-8.209080619112635,-17.29098682667006,-15.484716171200994,-12.710300960111663,-18.73637195395857,-16.877767465771043,-8.3201944272457,-11.53012032961779,-16.760436725589837,-12.304208214598674,-13.26100579191354,-19.091373676772072,-13.322854668665348,-7.118926741376799,-11.508650669007693,-9.509187777931196,-0.6052491130363418,-2.44678404672116,-6.618513832712084,-3.1400232811640088,-7.308297578792701,-17.088137391676035,-13.742313131302511,-7.419649448016693,-10.762374003438522,-9.392718111549172,-3.68940093912453,-9.482989603995382,-15.362673596849817,-10.235256498526425,-10.901462656423211,-17.566423069316954,-12.981741192271683,-7.208365780975446,-11.303093132554014,-9.057515109913378,-0.3370142834985672,-2.4831832057132623,-6.285058213136984,-1.7409230826950801,-5.250601607304977,-15.5966693069899,-13.916689539287352,-9.512104747763095,-14.091986172202368,-12.715518793215523,-5.521947340137112,-8.741785066778032,-12.148093078042542,-5.722789086504975,-6.505572387752903,-14.34763606299844,-11.153997370347508,-6.100980977799868,-10.158440073206187,-7.87426195767739,-0.10999825259912077,-4.1140632050107895,-8.97073244693191,-2.9800765800828874,-2.629279383252112,-8.598026641911444,-4.625435270979855,-1.6091807997900351,-9.741782453240482,-10.560975403748047,-2.706775026965607,-3.694080506608285,-4.802573796602713,3.145565490474254,2.450956048182696,-6.462907157171908,-4.70476394035867,-1.464707545183234,-7.244124725625621,-4.975591345360051,4.883913585553014,3.2195155987744846,-1.0206460204123269,3.8013609284631302,2.2895554726503864,-5.031743100846777,-0.4200269163274868,5.537686895544971,0.25049906788117005,-0.20399463967244302,5.761791523751475,1.5917277903404268,-2.9787347809530074,3.399699545108822,4.14678126193811,-2.0161678213343186,1.8586329790373752,5.933698163306598,-1.078193426750651,-2.238728232167447,3.706382994331257,-0.7594772103314624,-6.244289894487917,-1.05227683016439,-1.0358050366983371,-6.335054841126866,1.024514946106378,10.593293813885932,8.543346914396114,9.371719084446777,13.95668364393671,6.517875524553806,-1.4825363641365064,2.4764480246424343,2.0533069804468287,-4.32724327981517,0.13991442290117329,5.958316421498646,1.3406892894814928,1.581891657685694,7.218274300492358,1.5196766333462497,-4.858243025677088,0.933572405200207,2.856608396168058,-1.3303302908173231,4.532651366378245,10.635129268772069,5.189647710222165,4.68472197088771,11.514546240845878,9.112999999814377,6.118907123725476,13.300637251173779,13.701714041902932,5.388194749234382,6.228881751119234,8.6101090282353,2.0550577394547656,2.6660145060933855,10.684607337256148,7.847217348224197,3.4589544724269903,9.626004790045343,10.153808483429929,3.8515653989314567,8.168885350281457,13.384162674637247,7.488405883724338,6.8366619461314855,12.685586725866168,7.738982292722058,1.9410206204238953,7.643214615571095,8.367401096805294,2.0618608771363673,5.947587530799346,11.043603227353612,5.608707971775347,5.789331892919487,12.678196029568849,8.240002234000467,1.586056155774736,5.189736475254302,3.557204670034821,-3.969881438004007,0.596160760212177,7.522915639801005,3.6697245760778174,4.362170608208136,11.053896240309962,7.017827402874884,1.9464981757572386,7.5023641836651045,7.0693409328891175,-0.7910000846257281,2.6056693473435315,9.848814635333794,9.10832527629664,15.160891606550921,28.89587804777247,33.94461441865871,40.20435237239477,58.66681429680533,72.58952599615684,79.7497205913665,95.34070985219856,109.31845726931809,109.78969939110317,110.56436808199797,111.36598820732878,97.07152845933534,79.47394938397187,71.10604268189942,57.52142113201873,39.29218166685153,32.9158235830135,27.117178227465395,10.003229389714825,-0.7887545581778805,-2.881663381904997,-13.45625554740522,-23.917022283497214,-24.062573783270853,-31.04142964512935,-45.05453386862089,-46.42516196702081,-43.79599947454585,-50.744568447900555,-52.206272997788425,-46.75503295037116,-52.969589348531606,-62.51017675722577,-61.68156295263273,-64.53612441476419,-72.25354747368357,-67.75836638593812,-61.12110526094368,-65.65046242178138,-65.20082527462026,-56.98433635471507,-58.088756169983554,-60.760098939976885,-54.03188821745559,-53.7884548588227,-61.486968288709825,-58.59029727100197,-52.17567966583549,-54.67603512909466,-52.093360078929535,-43.96902714538217,-48.125489857915134,-54.05669228423241,-46.785978450916815,-42.1332347892593,-44.81249051534036,-40.05902997808947,-36.79114463100249,-44.85819592551923,-45.676741619784,-36.41434287243799,-35.59998439199255,-35.81494962342132,-25.2979120106925,-20.293373431809496,-23.398261453818257,-17.80402335458436,-12.4069733374556,-18.60667768423832,-18.872030418752654,-10.391442384671596,-11.814660806387433,-16.05064173609743,-10.884938272888391,-11.439241309093905,-18.750712600950845,-14.192052083328582,-6.937561482618096,-11.535280002312387,-12.814760551923825,-6.75584962879209,-8.869558457494513,-10.36807843133964,-0.00327072876977752,4.348140188728566,-1.3514651548614203,1.1244171566804697,5.826205117434279,1.2474513657043338,2.125111199824824,10.235882220890453,8.517374338210956,5.561413817262822,14.046799474554145,17.76946522638729,12.608533282935145,15.625563458239876,20.047569091549214,14.377487296153554,14.323055514723677,22.01492899284713,19.052762522500288,13.192566364559239,18.106790992359322,19.129680244758184,13.709861130142972,19.671661288783532,28.484680571129296,25.946956428979064,26.84635997176817,33.78002500003404,29.551824790927093,23.480541723440474,29.154085788212697,30.561448510416533,24.469219409893192,28.31945654539265,34.32405667881013,29.77725601342431,29.035985742275862,33.959346141085476,27.88063427142489,20.329152910568155,25.4423761339202,27.613374306247884,21.650118034490028,23.40952053749225,26.504370999123708,20.13789431225361,19.832594357592644,27.696445503753655,24.986673250222694,18.293235673349297,21.088133524998344,19.987416721219553,12.708153054754163,15.932881316680309,21.408431939655184,15.636132969313936,12.967005187866157,17.001621715548055,12.068075789498963,6.257894208322204,11.250537445638487,10.932533328513472,2.7142356643490455,5.180107344522913,11.477490407366387,8.338520504014948,9.884801036346387,18.70270380667984,17.613931936712728,14.007439680851014,19.448669049346663,17.534258561724407,6.660663671991284,8.091843470289891,16.085969626392092,15.062629998656151,15.70496699298662,18.830769786347716,8.49250419157189,-3.4392213554939297,-0.09722783160232051,3.240262584480387,0.040883746924724296,5.108934987881599,10.528784529451102,4.24226574025687,2.471050186654035,8.502023301007195,4.132701989059759,-3.3606748017956836,0.07266447243534424,0.6327528910086937,-4.733975185001864,-0.09496738656661607,5.1456756500236445,-2.3298445241255004,-5.945742321469176,-0.7784230848063549,-3.720538025192393,-8.438349393065904,-3.380859953803298,-3.559294375372645,-10.797015209486393,-6.909568975940531,0.05721062020902501,-3.7867142849845177,-3.851238211967315,3.1802685932184342,0.4275299607990295,-4.602811544912817,0.6387731852797431,0.9089466910348563,-6.508174920033008,-3.012911366559701,4.438893146487261,1.7013244707682738,2.7420943594295086,10.198662372840193,6.0592908434294195,-1.4976256574133249,2.603887183282607,4.558815079467469,0.7096322493088549,7.055336799611389,14.470161047395624,9.09930528243908,7.2863267723085965,13.982471008069814,11.564476438571747,6.5131746535138335,11.68567750472524,11.963371210859595,4.218992861364515,6.779656833882436,12.448015645291859,7.198410619927049,6.204634956566945,13.68861795279542,11.302313415077542,5.2774290568396385,9.858367241435998,11.090477335097757,5.04476556423523,8.63092965299877,14.235071284574241,8.345308018472064,6.414507008647134,12.668791453570515,9.223166282028,2.204623704977343,4.810284302548512,2.80272044350527,-6.8164671786446505,-5.759692655121177,-0.5916694942630163,-4.842638427331398,-4.1046374009280395,4.1035012674093245,0.999959065537789,-5.786163102642904,-1.0424419172951382,1.0564459543910014,-4.492550307608599,-1.8565776612531881,2.030189869455935,-4.598374846293262,-5.593616020283367,2.594381565001064,0.7039092358701724,-5.965258458098726,-3.574382194095305,-5.0604632951527915,-13.104985534103358,-10.775772447289954,-6.239835927803781,-13.20980559993283,-16.042086549437293,-10.397174558457465,-13.842952712892547,-19.38699538824915,-13.863537374301295,-12.476560955901176,-18.50508404576683,-13.784511461842591,-5.710144130058239,-8.650952312758337,-8.137410158357016,-0.6666553227444054,-4.317540298747528,-11.895630483571006,-9.076815621322861,-10.066502263410584,-18.088150388406447,-15.263405436233764,-8.946046434185812,-13.686787449577574,-15.559941688719686,-10.432311323913956,-15.200056924994058,-22.934868212444215,-19.758563777944595,-19.414877517059814,-25.13344184758534,-19.424555695408536,-9.756083244301314,-11.479432386139491,-11.898191508300975,-6.770237161590803,-11.493391935485029,-17.757575301205566,-11.540693300684019,-8.016610715496249,-12.472365553337896,-8.654435450842568,-3.8656732597760253,-11.325912916840444,-15.315876666642454,-10.881978503328384,-15.177940911075064,-21.51584473064785,-16.61034420224737,-15.632279279797672,-22.59885670487744,-19.151824045161803,-11.697590471901204,-14.714410500637342,-14.014453374507497,-5.433123312208554,-7.067912300708019,-12.446516371016159,-7.09151441758362,-5.4326145644195805,-11.732192518096209,-8.066730661792077,-1.4857175777704943,-6.589889404729421,-8.533574786316194,-2.5873657367318916,-6.400277107799718,-13.512325198038992,-10.01447421913391,-10.005863908771104,-16.228708144485594,-9.393857434314086,3.3308638376354116,5.04786812736886,7.285027874760481,13.041503495664077,6.190577686742872,-3.3990899166053037,0.12614276645225697,1.558723416213409,-4.882578607669734,-2.3291002250717154,2.784621496680851,-2.5192575495579126,-2.747019937758801,6.144444727440247,5.6294453007179746,1.45353128336491,6.979704990717362,7.5662542588254045,-0.753308238578577,0.48858781966199083,5.378830913692244,-0.5817314495622576,-3.4427422516418593,1.810835144397692,-1.5652032357321541,-6.935785211417368,-0.7934588302988619,1.1085528913010332,-6.468972619711737,-4.837171109216872,0.821694976459129,-3.6191216611038364,-4.060568401847215,3.486516290085028,0.7748179891536642,-5.236232904520441,0.3858151090821491,2.711280186583448,-3.3910988193412575,0.15755251545819338,7.339552529591426,3.531529115323801,2.8138548869242186,9.678616348596131,5.9512060656047066,-2.2329246983223867,0.20773366794619363,-0.09473805454844508,-7.433374531817976,-4.096195474167883,3.1400447410492855,-1.2544815480581004,-3.6000377048334933,1.6076802621675617,-1.9914597235107538,-7.119898217122847,0.9430930922413019,6.811176667300796,3.443820233797647,6.658365385113722,10.36207744475692,2.259072134188259,-1.0942249956972616,6.093187250226384,5.168805637056783,0.2168439433601992,5.2400214467340325,7.378343297396549,1.8625517645932874,4.877007520490643,9.634462199965945,2.351239775800143,-1.409339195450277,4.618593298722946,2.8132054550024277,-1.9305490735179904,4.267736931516069,7.80558397997528,3.9444845591952777,8.958987879809065,15.304850219943239,8.651516973241208,4.109744413159705,7.76591483694805,3.9486502090995605,-0.08903520633977502,9.226102540697394,16.13285601235382,13.763080315498254,17.870751207063257,22.38947582499243,14.409374319515852,9.107202536402994,11.319378791715746,3.6093352376898498,-6.915747685843184,-4.918190299114954,-4.030442327232748,-9.156721427895281,-3.6022597358675625,5.5816414779423695,3.2091746036883295,2.7693552620692246,9.465967045742879,6.631939619216001,0.9416545351972347,6.967262557860495,9.753949471539224,3.0098127737487967,4.401880903992777,9.75118475553882,5.595386176899872,4.847897647111511,11.011156241264551,5.735202520465594,-4.7337347695595025,-3.719182009284114,-3.2754371094619468,-8.803706339379284,-3.703734967965928,5.558982809908328,3.6722300235839844,4.109417148269449,11.394881588544386,7.346173842925591,-1.3164792758247974,1.6780278654214063,3.1637328631796593,-2.180357845202408,2.4071695485156304,10.018318856120896,5.268927398985306,2.367964075923253,7.615168618702828,4.016251330132317,-2.792980304029663,1.5317850564189466,2.8864629355783,-3.582012131664226,-0.1267179809007981,6.857823192614362,2.4693328100469465,1.10002680094698,8.58832807328653,7.80930422422696,3.8834220010468803,9.440905562556562,9.37297239151697,-0.21653100606162878,0.5306609671341564,6.970911215684072,3.8746057651292087,3.5339295023379744,10.050472403353357,5.7734299426081535,-3.2249221266411254,-1.4070472060566086,-1.3549770984954608,-7.8696580276362935,-4.0309538470724915,3.5970486142483766,-0.4066403355153012,-2.4979541680058936,3.388840138615325,0.9705304170561637,-3.5817706757918404,3.7750639719444896,7.945562362518722,2.5599129429476837,4.829034725938546,9.732677613912463,3.8538913687954532,1.9713694774509225,9.510933085100989,8.402163433058245,3.2795917012189224,7.727280942533562,7.774733879856868,-1.3695037731125854,-1.7443384007041378,1.97136064287615,-4.024846991786589,-6.27801492209862,0.2088688076881069,-1.8972357623267702,-7.351828297464244,-2.2202790480274412,-0.36400583772624184,-6.215681291542898,-0.9705844152730112,11.047603746061537,15.11249722309558,22.516768670953994,36.97467767344086,42.22625269758934,45.38535248279311,61.54871053375354,75.14487466084915,76.65888655879466,80.74220165671606,82.05564303751784,67.95947584955934,54.76279300359572,49.45332947897127,35.569860268414615,20.28833897687641,18.932197408700567,16.120123265748056,4.195736921830589,-0.4558325508698591,-3.3729654646528595,-18.407596679812347,-30.065532770294542,-32.02873621960187,-42.75768699094667,-56.820669502621264,-57.765584598113094,-58.89224552837434,-67.39323519864354,-66.83347851522274,-62.66948011989065,-70.18318270270316,-74.86400258583286,-69.01418500275358,-71.00047942528917,-78.01300284435791,-74.94137812023328,-73.42646303805891,-77.56066373422551,-68.974281113334,-53.8545081153307,-49.59149449400689,-45.01035410759087,-35.23203332442946,-36.57878387631429,-42.04117732547496,-35.90852334167963,-31.809992490756038,-35.994775942159706,-31.541427654128857,-23.511427884704993,-26.14149861309665,-25.748322643468,-17.292753251939104,-18.9509206402657,-24.912134576450086,-19.217184599993512,-15.61383755579065,-20.746724213546653,-17.300392379470217,-9.607604642704576,-11.574376868510909,-9.905526150773614,-0.4128298700020778,-1.9330897257302544,-8.828028960440982,-4.292621412072133,-0.4935543084182379,-3.8478602405568822,1.1220855849857467,8.11013639471713,2.764959561794266,0.23508008028602242,8.006997263784681,8.344576097014581,4.516197144359286,10.315978180307074,12.086750548245838,5.077345935600006,8.830797249784064,18.231536536246956,15.87319006805425,13.885354271680082,19.153876527143677,15.586630881482959,8.92093317582371,14.421095517095402,18.087674998838175,13.254225128590509,17.7355458280457,26.10597442967639,21.80480383993686,18.248404391575157,22.983008175021798,20.289293273037217,15.54300804149846,21.547735436608793,22.751118919145085,13.858077158817169,14.806257982596762,22.368387145613173,20.28836584646619,19.22489588869542,24.433335671795792,19.719499235506124,12.029678883289424,17.91394278867223,23.112880515358707,18.899959190901047,21.385669209813617,26.2120769529979,19.179774342709376,15.351140289535316,22.628880939838748,22.97033850905492,18.715460781509044,22.91209880028054,22.506936626472907,13.490969630840048,14.931106747363051,21.49870755255811,15.84827807059077,10.286370920416168,12.773987694810057,7.940004536045755,0.8996882780080504,5.223667981923597,5.885132917873289,-2.0771909838425056,1.6821864524827186,12.23947353359504,11.309635897351555,9.79304855320385,13.741541071078503,6.97873203885818,-3.432035890772861,-0.27654126990755534,2.58682559016077,-2.8512362994751608,0.7901075513318516,8.654740941127468,4.1841773557631505,0.14490604616097524,3.5247673171125133,-2.361060471962312,-11.979174375097935,-9.119283785323892,-6.373355125151071,-10.638177177765497,-5.931387482645424,2.538059792233982,-0.2729726323509727,-1.787245230478951,3.825246787124688,-0.08510771264153227,-7.601519483813852,-2.3385325112413025,2.806317924331867,-0.45899215402752036,2.4855560225363478,6.4749702393319595,-1.711828037395879,-6.282782176690018,0.20921577127290236,-1.4333189967541304,-8.965475276045492,-6.9774587322613835,-7.060432973997925,-14.791732591264035,-12.365547178792742,-4.311615757536903,-6.753120260858197,-6.867960577537426,2.605249733478608,3.420391563968559,-2.086614439399707,1.5532890195915545,3.1650110994617333,-2.6150867140871377,2.1332787647222773,12.224174203088094,9.928254921730494,6.882441674886204,10.65773383958694,5.536523049837079,-3.329052432400451,-0.6480211062465657,0.5002665010478866,-6.320646777584241,-3.34311027684105,5.119112665159896,2.4912277941345775,0.5687137152979649,6.3754628990002535,3.876012840231061,-1.2517978419725686,6.389902432553121,12.23923733568064,8.483860402132425,12.448015855786691,19.866645164168443,15.479039462616722,12.513295388298273,17.915142997828276,15.203207170338018,9.47122489402791,15.370837522319455,18.613155858731787,11.862186651104677,12.559667083923967,17.345546720587873,11.54161768236982,7.560225839436313,11.867788449628268,8.186105461026157,1.7736344697828113,7.769907903206489,12.207710668514201,7.5938530830126725,11.175201403515802,19.06854863795346,16.03678865484676,14.48546220405874,20.74683163522105,17.836513164352553,10.569031032732113,14.40620391401605,15.775968119071312,7.558864895872713,8.019716855564827,14.40868485169992,11.494994582003145,10.550623333992391,16.462799043205205,10.953990386696017,-0.9508862442964352,-0.9432828319588413,0.16913379387409022,-5.1507076780755785,-1.1632034063668755,6.507092961797469,1.4535210674465477,-2.4040857100916018,3.485497520739883,1.5978468079883528,-5.273236737531411,-1.8337842410792107,-0.07211934900966188,-6.735004321492983,-4.697308584154276,1.9929652740836703,-2.745538130456823,-6.254570389591423,-0.38015028868665457,-1.7939816326553635,-7.223927615461175,-2.004500596218647,0.44092795646645716,-7.631521367719778,-8.768923378691182,-5.392024038181431,-11.653457048149951,-14.731894791691879,-8.566247466117648,-11.686607766730274,-20.18892576085783,-17.077141194891784,-13.999251527939826,-18.62775867246342,-15.293748714938582,-9.057531360084319,-15.139738785275894,-19.179171151148417,-12.777243629365412,-13.493391051166764,-18.266675217502133,-12.047117271093565,-8.165189947197224,-13.946148883088163,-11.652038476712587,-5.168349677909513,-10.485007647448304,-14.710150579368538,-10.270575435845895,-14.229635071647767,-22.171978424766557,-17.569013554460696,-13.125422747085704,-17.185168950038694,-12.883095496514354,-4.092695213282895,-7.415578727939676,-10.191866329116888,-4.094956302833197,-6.074223861639295,-12.237040918673781,-6.631302435879178,-2.382170045834055,-8.019044730898196,-6.848218488820399,-1.791939328734562,-7.6174784146884695,-11.318869531153178,-5.443062410689041,-7.74952185571447,-15.41048545709058,-12.803332232484347,-11.597313547591718,-18.466352122258346,-16.105807430331605,-8.471970730468264,-11.953803045374238,-14.413155859936237,-8.483627652322346,-11.37813642566614,-18.836033519613867,-14.160073381344516,-9.867812833367019,-14.069632387767303,-9.95293741466482,-1.5482016949080333,-5.318633624103802,-8.833483309239536,-3.9886631571613353,-7.673431351642725,-15.750774602726246,-11.64123190823928,-8.494656853219754,-15.020966540699606,-13.815699265935622,-7.450119371710137,-10.882497048344906,-11.546086274901825,-3.4705461366036667,-5.5357140101806985,-13.421929775619647,-9.26915029612434,-4.947721425136974,-8.805764163632054,-4.8055674056215745,2.559390398260474,-2.3370217467568035,-5.7426546841253385,0.655723290419286,-1.091158636670608,-8.428343619939426,-4.996614692140909,-2.3386899753265302,-8.794358207118737,-8.111653305150954,-2.976549183720606,-8.228883188370135,-10.99456967752629,-3.0864225455429573,-2.358144256674043,-7.18286617794981,-1.7162186601157843,3.027973013973243,-0.6275095478485713,3.879174899721221,12.652079093364776,8.84719859645243,5.179678667092165,10.609001469965294,7.745470478617783,-0.18841313977001795,3.7671210238068453,7.24342238007822,1.5233945201904318,3.420896457772604,9.223969739706115,2.9699046982430364,-1.4718348769846399,5.172910834589131,5.110225288829467,0.018257835272260436,5.069876032753848,8.001903617791632,1.5916113414884352,3.8227898115562864,11.411408085846286,7.8288594121374615,5.490437986138308,12.359561332360778,10.732781128312324,3.5606912721971127,7.3629814262043585,11.512906927117225,9.363713878020876,16.50516895257483,26.611931883756075,21.78734450633388,14.677067319797997,15.492854469670842,9.554664494806751,1.0883053700996115,5.69089440794624,9.901350268593898,4.687139031534553,7.189343697419228,14.463900724890172,9.968364732590306,6.086046132256115,11.605952765543032,8.70581672965365,-0.31082910826662413,2.0178363554825336,4.397045552906197,-2.4967453302754086,-1.7470052609275446,5.053817199480999,2.0930269609008754,0.3316058763936732,6.9895862914527624,4.422871481538507,-4.694719699322376,-3.035700405142393,-0.5912743130389521,-5.114956213940221,-1.1641673202958676,6.964437610419191,3.3950396028467447,0.5898251061142923,6.582518599276291,4.463448297343452,-2.650307469405073,1.4024970919021151,4.929415668894949,-0.03989654247313412,3.0336287257931236,10.20916693336521,5.038411331906547,0.9321670941053533,7.695486878006998,8.408879817103436,5.447793402348083,13.949172093313244,20.647740594444,18.154823293726512,25.744480765073742,40.7304506475456,44.9193147287463,48.680724883620485,60.190799115564246,62.97070501887955,60.637154844732656,69.5420364797123,75.72436500345265,68.69755428627914,66.34234091146442,68.20208320373081,59.30588660190779,51.70068079257233,53.34347235849924,47.186165346606536,35.99038999498875,35.04317652626972,31.920637631346622,18.705690023860896,12.534085699645948,11.326963459867939,0.10731227897796991,-9.548128070174142,-9.697041529710738,-16.13895441489954,-25.851578282188107,-24.14209160425092,-24.355444652737933,-35.160191898901786,-38.39335796148903,-35.197996185611785,-41.579723993765434,-47.01460876574622,-44.42800335802988,-50.751460151685755,-61.383534868099154,-57.801141225289726,-52.62077093313833,-57.312542921841114,-56.09587811791552,-50.88080900792779,-56.86387172893921,-61.326438901554496,-56.03114695175386,-59.210036122537765,-68.53382808727969,-66.03629245766777,-61.7898531075128,-65.05652505590344,-61.19542602996103,-54.0331788118111,-59.34792863600521,-64.08897296850483,-58.62527982601482,-59.16262712980495,-63.35204093204776,-56.0864118641369,-49.45186803990719,-51.554543525223934,-45.461244354272814,-33.99323014142792,-34.10928950993067,-34.826933121852235,-27.507297063426865,-28.476088494270684,-35.19266184387385,-31.49044646695111,-28.385224373648434,-34.00076191693996,-31.133705257138597,-21.445396560875146,-21.73792392653207,-21.97103470042267,-13.781930013456128,-13.557076183031983,-18.955510983541373,-13.0991684968062,-6.2070142728081255,-6.457899072787195,2.2277088892649255,15.398245631770784,13.53873074023404,7.413697429335235,9.296629795862627,6.239766159007831,1.4771207104375104,9.845576246958583,16.66188136953277,10.452392726554471,8.977454760771023,13.512950596668908,9.604000410041717,8.365190767929795,17.622679136687175,18.926402883192974,13.139144268998956,17.11138478691278,20.721391172756462,16.03805519520001,19.8193100959083,28.85839412012601,25.620978100357036,21.360628435089023,26.224109942415733,24.295616681275998,16.964047907764723,20.57415814128128,24.798958941461766,21.218933691345015,26.471734481910524,37.42792486722648,35.61912060386623,31.659531152041403,36.24127251565683,34.04049402229309,26.63318691235711,29.74091084785067,32.316664540974045,26.736347351469092,30.516910950211063,40.17810368133764,37.2493074861125,32.75534417035022,37.09898376648088,34.6872854205788,26.969444679295762,28.81588514640284,27.956423919562717,16.863535384151398,15.849200879294518,24.605202324339725,24.601587673119507,23.741229656996637,28.872167305077475,23.557312945450928,12.457934139023433,14.560363730994295,18.582315430962804,13.786258493320986,15.460160992123189,21.51270783077084,16.721656216292473,13.471771704432376,19.86632875477981,16.861967857657746,5.788551984146337,4.351311340178976,2.6276963544615617,-5.384486273038599,0.4523524533548797,15.316615207237495,16.28182917492149,13.701331772887622,18.734310009878396,15.151302370002544,7.143200080651754,12.42387869780409,16.170422035586604,8.171633695773847,8.951416910733066,21.47220736833276,34.564880243014315,53.865474163830115,72.18884683991021,71.9445205217714,62.08057615188218,53.95797861904974,44.8561465559339,43.24451937814775,50.62272401214481,48.05661869167387,37.65976084730693,36.21472709973043,34.0426058600451,23.58916062144643,20.859244904158043,22.03053301818204,10.748648629306594,0.9780530038411688,2.973581096581758,-2.0870272862571975,-13.145310332933361,-12.032620905391166,-10.05372528108998,-18.02885451477016,-18.795756236438056,-12.864673626986647,-16.964557088245442,-20.335497640918668,-14.153478645861426,-16.185857577551744,-24.658195089700143,-21.180929312221032,-15.67067411263224,-18.0555488329365,-13.27164831462531,-5.187506808377328,-11.663981317051132,-20.29292737426365,-19.05104058621493,-22.62182969521842,-28.378464323527417,-19.972856818646296,-10.718270284935603,-12.682647335660265,-9.778065636584003,-2.6612426707630323,-6.784054293790504,-9.957966307108805,-3.2180002260792815,-5.3908728691018375,-15.21765559801138,-13.418868286359563,-9.210227252691267,-12.801519559002607,-8.96486874723701,-1.088471400579103,-7.711713166909586,-16.99812642281069,-16.652332547556398,-22.31516067243993,-32.64407332610192,-30.025353069352427,-24.735578011872295,-26.660258252536714,-19.87755005535642,-7.670413637071503,-8.959836774061106,-12.7662248606696,-7.125127939959169,-6.810903541723104,-10.776290924920714,-3.8273570119234943,1.7602808377526822,-3.9942229351984477,-3.5170274508264154,2.5907837351819176,-2.8150424495738138,-9.39976791905702,-7.4528619046103435,-13.02330134505093,-24.08554699294631,-23.382492145263093,-21.310263341417986,-27.240451409447505,-24.627585318678918,-15.27571692602144,-16.83349947320327,-19.108429704290796,-12.292416802698835,-12.754162547616644,-19.215568854990423,-14.577209957835109,-9.4367826933155,-13.764182776987184,-10.881098329207886,-1.9933958333149795,-4.607897687388231,-8.984689843865954,-5.8035271777426445,-12.439014363662956,-30.575232974113323,-44.04954949614402,-58.125705328961374,-75.88769827354601,-76.47238961841921,-60.89132933700989,-52.944495897931176,-50.32499814189349,-43.675663769560536,-43.83781389079865,-45.760204100942914,-33.534651605374165,-22.12598774724941,-25.017191893753083,-24.587523254050282,-17.908925351644648,-19.419273261693547,-18.715426813123372,-7.955847761579784,-6.08719547645468,-12.730579701512749,-9.936655870828533,-7.195955242829392,-13.491134249946597,-11.196845715677359,-1.3038085847715215,-2.4572113518549,-5.702747615754147,-0.7640446418996758,-2.7656395792480084,-9.427191216994155,-3.136463285147026,4.620045185613258,1.794002705881079,4.22942941958126,12.352882541138898,10.516486390719516,9.114775733954804,17.04552681839784,16.47384124791539,8.63413113201648,12.778951761148715,19.43360315177116,16.87297161837624,19.570562668553798,26.06398720820628,20.028399145468804,12.875651522652632,15.069486253178676,10.196697133566516,0.5457141641237659,5.169643121254502,13.682122541652896,13.993545444049484,19.78658076328496,27.989143597610955,21.936194982393722,14.793270690247223,18.948353921714414,18.344896607893176,13.609997196361233,21.10551720962357,28.681870292368803,24.778970284749064,26.047809048200886,32.05481246715052,25.679421887329084,18.269130494923633,21.441374693014435,19.099207629893733,11.822237058901148,16.242530288529196,20.980991555562234,14.875577417334203,14.759018120260349,21.19606359194896,17.656171949810343,14.599287461870622,22.21760621627495,22.739759828369586,15.743001733732282,18.715246271528986,21.760584174289026,14.97159032148627,15.867282159205827,23.944640685190556,20.641977302326772,15.329495918735379,19.065829652759152,16.28110278971897,7.871209409462486,10.740528624977687,13.138965329602748,4.265523105852682,3.0650385139314884,10.975364564718701,10.611915205454181,10.305265765530203,17.55691275589775,15.572568931218594,7.685227726093453,12.527908986904412,18.72525729076228,14.038946873364537,13.67683118252958,17.52875706738179,9.747779760186333,1.4174076186027031,3.8090119612654973,1.373998502831519,-4.61000727580375,2.9407396564263357,11.20805398512015,6.134342244988606,2.6872583914547876,2.099441955133307,-7.643931440565586,-11.447580549505144,0.011221681982795495,4.853204593852699,-0.6724302873031354,-0.11427832855795184,-0.5005406747839286,-7.951418946631727,-5.011547768810333,4.976032550929473,1.3732833308516397,-5.787581002283147,-2.2653098901165536,-1.298869764221633,-3.3375950384843898,5.274508156517767,10.579607776592875,0.2532082737989736,-6.4838518151415485,-4.404103660871473,-8.49381356544411,-11.09749125201706,-4.232374813464189,-5.206263633671471,-13.05841781983819,-8.458256710413455,-1.4667377772785892,-5.461595571008513,-4.552312103745054,3.0015538833251294,0.6684042052453625,-1.691483707982723,5.852143960171297,4.6321444183865506,-5.340738509763568,-3.6441497890608603,0.9762183905687116,-3.641378025301736,-1.979394448785036,4.888187120595064,-1.3875953349465426,-9.47696968304538,-5.933869908569649,-6.716503253712721,-13.152420401175812,-8.7832323107009,-4.119168483282868,-10.214680105009041,-9.737476639951877,-2.1619676769036213,-5.853166817193128,-11.539858581054691,-6.896110525381527,-6.396838330124845,-10.050710323304715,-2.586034343613398,3.7961434940958174,-2.150139596286388,-2.7824668072000858,3.1485684825059845,-1.2626568461060175,-6.874467621089509,-3.2996447379241993,-5.673535558357968,-12.600760610277348,-6.283493943591054,2.221870267097332,-0.9493966306374721,-1.0824362503502478,2.6763014054317154,-5.545611544553726,-13.336840640735149,-7.2770590332753216,-4.265534754561241,-6.822293251417642,1.491151782295538,12.849775909349948,19.8615463110997,40.746834198860256,73.86275637972143,96.52486914680836,111.84515249545223,127.20805602394479,127.67595288677897,115.92576821140051,110.57264613651424,103.3191210185595,85.51560086613144,74.76133189839291,72.1706390101862,60.128215103989895,45.554343556936175,37.882485226897245,22.55455268884218,2.3546712316412313,-2.409158598787493,-0.7782510337664805,-6.839221986896754,-8.272158840120923,-6.310824087410954,-17.404074522195796,-30.06360691562853,-31.071050749878395,-35.793602718870815,-45.84270644608705,-45.05622266936862,-43.35478212742855,-52.33818915258826,-56.52229050105247,-55.77656311761698,-66.07017436898742,-75.63095515533699,-72.64650484159202,-74.02755827370686,-81.4956871387425,-78.91668944572405,-75.2417767465262,-80.49426736373152,-79.39648888138032,-72.83761921302133,-78.41174191449228,-86.21666894443331,-83.41158727152597,-84.15117153680815,-89.3899414566375,-83.26951445337303,-74.82643258858334,-75.40684778200841,-71.12309810365882,-62.31781270498513,-65.64155329913636,-71.40485835888876,-67.20154785891714,-67.28723751993687,-73.16366201734255,-69.40945428843222,-64.48936384162343,-68.41384914904792,-65.04991751198612,-53.35336796886738,-51.52387227950535,-52.0186570461145,-43.363450737033816,-40.45450663110344,-44.12174460501018,-37.393463952237624,-29.379116643605077,-32.00405027727453,-29.41001689227353,-19.20298649570656,-18.576528161601416,-20.430393147756597,-14.123391641708317,-14.982562503195835,-23.208337838707752,-19.664564641990076,-11.585179293149555,-11.285424638220713,-5.899695971601416,3.720469280057139,0.8877251826993224,-3.5178497760243372,3.6951136959278332,7.110497403450617,4.617466166227941,11.82684290070575,18.980546643892765,15.227818190915494,17.07034669562377,25.34196128430475,22.282008540350322,17.125151960372506,21.99055583525116,21.287405806549266,14.433926528197933,19.023853619306585,25.18429118098531,20.702599894406966,21.671410347511397,29.097240112072317,25.565602312961005,21.002172260261798,28.013767937274206,30.712636765312922,27.123511491773442,33.005125067343265,37.922514206682905,30.86594780010156,29.84264415160823,38.21767202049104,39.31686189211584,39.60721746518765,47.95899613702781,48.21700407684445,39.534702568127464,40.271983587550146,43.07405848097328,36.26975150940227,35.337863665491525,41.90099168475188,38.59692821390241,34.42352597614046,40.836599999748216,40.99531152285994,33.840264669740684,37.95529990410589,44.39880970429888,40.12209885726468,39.422149515821125,42.52790041593678,33.10846099414853,23.17996865918592,25.85140785932088,23.810858073869998,14.71980231547009,15.975705746086298,18.578716861682977,11.484966618088862,10.951951633579714,16.433687855934373,9.31373862272048,0.38222897048042803,3.6438991272338312,4.239055873896755,1.7149154948807626,12.281069145813388,22.22355165347288,15.976808009245488,10.958548067532913,12.86963014897412,7.80636469081217,6.795834807821372,20.22913797688725,27.01010383558704,22.579699775343663,25.125521822941938,27.135687293691447,18.55038409585447,17.69055343026541,26.68837826209501,26.049352821690697,21.89702631269811,25.772405110186668,23.97358760835799,16.832322524375144,21.98716433176647,29.25335171228239,24.22553895249044,21.922014485142338,26.039641128626606,20.83364885503235,14.490102369166769,18.431535541866687,17.002813488993006,8.713375549456403,11.196692014909308,15.20467857392732,7.683779699711252,4.682816055399212,9.518757628506478,5.93012423865971,1.5480013448191974,6.5422859023455135,5.609788612742712,-1.4457902946172214,2.853562382191687,9.706104984409453,6.568434602174053,7.519496831422476,14.730073196550324,13.189058468836338,11.110457707142821,18.024360994030943,17.86643539403469,10.710672781112034,15.48319485184438,23.67767997637874,21.428328206002355,21.72417327760121,25.90530871396361,19.082368043126237,12.234337659919717,17.69259975770376,18.37500989217946,11.036394037100873,12.956090724720179,16.35222901799451,9.67453387557303,9.135620129133024,17.064393008554813,15.593285526349202,11.980973288229887,17.13976811169187,15.243235622809845,6.138107853785686,9.520124602402232,16.90580419150941,13.674300211863091,13.560966108039104,18.844744646877256,13.507060607357893,7.282866211191974,12.479154615017386,11.777522173964817,1.8757591901525683,1.1683068523158928,3.116913624503057,-3.6643926365303243,-3.9661806810607927,3.0990004922773404,-1.3175806497138276,-9.133344035573964,-6.575948933898474,-7.72978187939444,-14.345984582163691,-9.533754193577519,-2.466177948032804,-5.831305124011914,-4.432989595672362,3.2406925125413952,-0.690265521285292,-7.886695363120244,-4.384913256242022,-3.7820824651922464,-8.932294271512111,-5.022372466064169,-2.613649115092504,-14.761007144037885,-23.775284609909807,-23.376712910374117,-28.599369568573096,-31.896474194375728,-22.8815606492501,-19.033547792309697,-24.157280318296973,-21.001843089732958,-16.288065016242665,-20.88099798419275,-18.9704397936515,-8.827538069627778,-9.239304485308471,-13.78498407188257,-9.980213122748783,-11.350496376767255,-19.408059977353926,-17.283068252334914,-13.362100639220763,-20.55137657348328,-23.45731589867195,-18.40426750039351,-22.57340023834249,-29.320523543840267,-26.308295836839164,-27.410936900471242,-34.238552974008634,-29.896828518445275,-23.165456004883907,-27.257588468929754,-26.92659065716534,-18.66438103290138,-19.613516887102115,-22.804411898841337,-15.996832776053356,-14.400480404844439,-20.347583632220235,-15.842919066615389,-9.33552093619881,-14.55800866627268,-15.903359583854854,-9.987841873551247,-14.264993202522728,-20.98745909952042,-17.671894486058477,-19.827289464329354,-29.486385556988324,-27.819952536052114,-21.74587082424498,-24.330800347828166,-21.558285071724253,-12.177185238666963,-14.677247181622727,-20.91975541100662,-16.93255977661256,-17.182491432159704,-24.198772874655344,-20.56365175149287,-14.289710434220673,-18.555497211094792,-18.604394425982548,-11.901716489054134,-16.126827630242868,-23.614033204387457,-20.96190972886253,-22.568509262657837,-30.779367738250635,-27.595984099516073,-20.57044934669809,-23.58375298134831,-22.546441930043034,-14.580834112087356,-17.018971331719722,-21.96713298462784,-15.727131436640903,-13.44097725212886,-18.642312966442905,-13.353873293075171,-4.770846411101124,-7.13212504153686,-7.032704032328758,-1.9474914818194518,-8.632948257628625,-17.699861563343145,-13.97978720600491,-12.013748258034903,-16.45369206624696,-11.839905582050058,-6.553353266285845,-13.191238772234415,-15.389915896837522,-8.409886873982042,-9.047634658100584,-10.578865642949498,-1.3139486510418807,2.4640354335245083,-2.984145499646737,0.04564622862430934,4.593140035010943,-1.7406909535260442,-3.1075634339544624,4.221043903339174,2.774192897136553,-0.8898058118602756,5.296652439986559,6.39698929608427,-0.3901531936163849,2.3717861985503177,7.57257941758787,2.485199922551172,2.2708739808215577,10.92921579508097,10.900589066763652,7.258530431882633,11.23100560242645,8.78453710665908,-0.9104318167303198,1.3978980045772618,8.568265714093783,5.532869504671237,4.7852005225409835,9.748429780301672,5.322623316707667,0.30430106603019014,7.125387832824953,9.278519247231731,2.5654363075295965,4.7655146866989835,9.724277670221399,4.922413304419842,4.408182741297569,10.091606340874494,4.550245417672045,-3.19300470598149,1.7487054574578944,4.742419994343267,1.0447480861850764,6.21477003942361,12.286377804976583,6.411043483832736,3.9550396180112086,9.41770602039776,6.408265493556346,2.0481993556453553,9.587159577494209,14.096253035716007,10.507121681756082,14.949076072068884,20.48071948035918,13.983904296710614,10.320833625736356,13.998445892974026,8.618951313283624,1.6597949222929969,6.910313187712335,9.872234178537564,5.994385549093887,11.358069203392358,18.44556628220632,13.780323933263055,12.008105400274284,17.602932136045794,14.153974624972436,8.560428339634479,13.8391219253112,15.142018608484697,7.93124417393302,9.05399136282089,12.74444493604579,7.250023597487578,7.838022280210234,17.545528979121915,16.51932786791196,9.21144236789093,10.124760171750532,8.452002476369676,2.5289859175155387,8.704464915664303,17.792028649431245,14.303062173195535,12.252577186694174,17.05892064715531,13.025816283784982,6.478702882833547,10.143559150754841,10.482229218311772,4.468059905859079,8.890949415472194,16.11568910246654,11.8837215677358,10.521913276253969,16.70837617415977,13.827124308625539,8.502100067308222,13.076203444676235,12.032588571139765,2.1839241257197854,2.6729747789927183,8.036342621454944,4.448302666898562,4.712007549944217,11.43775428565235,7.125208697476755,-0.46200790881321474,4.173028764556237,7.365828811661718,3.5919975969015394,8.368681977035497,14.629599510792657,8.955473630322242,6.201516347609266,11.427088281085432,7.458288005830214,0.040144819427795575,3.1741350402231365,4.109237529677712,-1.0577352670596176,3.455781707571025,9.965159181729492,4.4420619419082765,1.4617734378416603,6.587307154708306,3.2410204503272504,-3.1693933745165044,0.8680780584103784,3.4538127848965976,3.290770361955591,19.000065839821712,43.05638823716519,58.58068859883937,77.64964260688578,104.50500118081865,120.17175472572582,126.93296564079827,134.87388961710076,128.38819148966542,106.42821962536979,93.16716007593945,86.16796176813159,70.21974075497427,56.77946676822735,49.02438783770633,31.010980337100563,12.002751470047343,6.604345984637971,-1.0104837146675703,-16.385197917439704,-22.41193269292933,-24.626384474141872,-35.41705860815567,-40.76194748234928,-37.98129689923168,-45.28420564279457,-56.35567573773401,-56.88083088404485,-59.60049890620948,-68.4349327827669,-67.20653806189732,-62.06186513880855,-66.43138558952403,-67.6736402035723,-62.545935688439656,-68.73035651495772,-79.38059269114055,-77.41235386734112,-74.74163747286438,-77.69470428192608,-71.97324853978978,-65.17812802984282,-70.00878407753167,-69.816205739986,-59.642817666743966,-59.25165851285114,-64.76364773342296,-61.492922759818825,-60.72460886018201,-65.38208149503131,-58.29729177310055,-46.80703171780117,-46.8213761704061,-45.57982899359011,-38.665323580628765,-43.02093005372734,-51.02608065917681,-46.71238332591259,-43.83568260765288,-48.57351565905022,-45.10133614165036,-39.30336798499055,-43.81583684469113,-43.57641442802809,-33.859530317772865,-33.31623645175838,-37.254980998565976,-30.966248323040915,-27.35978531219441,-31.442382592561678,-26.198389544918314,-17.312704489944284,-19.306549667023333,-19.46009204062804,-13.255627068711608,-16.99967239909879,-23.825235687768636,-18.420291715965725,-13.439759772085393,-14.720204088019468,-7.528755349493467,1.0553790586615555,-3.2568289394266867,-6.445888884770197,-1.8392196747192435,-4.773975088133811,-9.701484959929239,-3.006164804319504,1.4816625468383655,-1.8127782558192889,4.1884250772522345,13.501154575463316,10.807091761614476,9.911544772981003,17.042253681469592,15.537230825903553,10.627069162233214,15.487644098370572,16.220532258859024,9.05753684286943,12.558341099208027,21.09582220284885,19.311025608008727,19.925332795101422,27.044081371858457,22.938946172277134,14.748423598827454,18.30228028768842,20.31733743948402,16.240940891340596,22.677371761641833,31.607173997676036,27.34396276066657,24.406592813536925,29.51792572544243,26.262622272873973,19.680750186744522,23.189074701788705,22.9839925895984,13.65848931757526,12.614661849798908,15.87254596023655,10.008304475811999,8.19437071313383,15.729325181611372,15.358013247097688,10.952298543431741,15.548382631192126,16.2908962961441,9.118928219924568,11.715352962231666,18.71660026794209,15.12398338040158,13.687594122666624,20.125175858562507,18.358247698620207,14.049233174202243,20.921285475822916,24.962525581010333,20.712271215486904,25.14866783411404,32.752710249963656,29.208063343979074,28.283468317259146,35.92384343880706,35.14501120341173,29.90126858715757,32.69709873644355,30.133454558107395,19.188827562787793,19.6394733045266,26.96135483081182,25.32082639462474,25.85933623838058,32.87969023305869,29.673294513565565,21.80385845353802,23.824553413441595,22.928940340108177,13.966236839875068,14.452472833705794,19.963747693781652,15.808476257230229,13.918432583393086,18.97547723593259,14.419832384875416,6.21587684874501,8.943122625147218,9.497156560966488,2.7023051079954845,5.263448209795189,11.88056670537334,8.34933823029931,7.612273809706539,14.828344880068503,12.853809695766145,7.02367036340752,12.430813499449192,16.15875756759205,12.66010765947484,19.249848464218996,30.568226772546474,30.357990162284604,30.0633226337418,35.293812398701846,30.279781688731095,21.90050503046883,25.979587294124528,28.734739986136887,23.0137828272732,25.035727638053288,29.98453464804016,24.08251625782306,20.88250908975697,26.06672352123813,22.89029150372473,16.759907907726223,22.29347684095716,25.398755532561857,18.74379495626745,19.11540449330682,22.92379062781515,16.814925194571245,14.673195924957152,22.382039700934623,21.610445953910073,15.62974572293771,19.087231054853234,20.139213521328248,13.76753992508889,17.10435457454622,24.574303594358685,19.552670308562412,13.591796926138642,13.926177681358226,6.690883087033457,-1.3525253019165668,4.342439640483226,8.963106439063683,4.068476909214724,5.459596032521473,9.46285864951129,3.021693138620333,-0.4247862175770428,4.807310870571283,1.3227587503925777,-6.61331526382918,-3.9167242387283756,-2.534728222438088,-8.116503258883228,-4.268759031241032,2.9664135200110544,-2.786224060321009,-9.108269179937372,-8.665175931189033,-16.214198690013266,-25.25591507796808,-20.629945489238906,-16.849761602806748,-22.189577348699768,-20.39567449624778,-15.39922782104227,-20.710612896672455,-22.36418152376907,-14.826324037675143,-16.72905176631441,-23.759713665814253,-20.044864161702932,-17.904843361499687,-23.30959346740037,-19.16445959044937,-10.915161551708152,-14.671540305885674,-17.714951199719223,-13.550877342694733,-18.912962747789354,-27.683599669165396,-23.44114733817286,-20.243110952883878,-26.56021421548069,-25.791197407289225,-21.236138481678374,-26.342060396644566,-27.39505306819973,-19.017242377264434,-20.517167802056846,-27.985540146719675,-24.880858198844287,-23.286694579273167,-29.61927780163151,-26.52620465834404,-18.66313649097969,-21.651138737700187,-22.682441580522745,-15.511213289643171,-17.666537287177682,-24.66715603210973,-21.31873100820517,-20.794011413175348,-29.477424647641882,-29.34481758880834,-23.52967383817122,-26.699882593698423,-27.121139094036355,-19.7557112835669,-21.718750182424856,-27.684051820736475,-22.140676276326918,-18.42236149341924,-23.877301567077918,-22.071876156224956,-17.1164938264062,-22.660640595067953,-24.47760952113951,-15.944512771695496,-14.993344749670943,-18.609814089602242,-12.815302767577432,-10.831279764975493,-18.62005418201814,-17.377188613397202,-10.217277761263327,-13.12372963491908,-14.880658256849795,-9.612834958421718,-13.928149408172457,-22.411250256746044,-18.828301244392435,-15.811740932855987,-20.862167656591108,-17.311052195948815,-8.88823019468474,-10.74684099780638,-10.68483715608322,-2.7633851959039246,-5.052231436548469,-13.257809380405073,-10.393869030535198,-8.027304091384984,-13.315411745847557,-9.81565143904745,-2.2115605281263218,-6.4358156818160825,-9.42670469417346,-3.3077853445839125,-5.332256470979886,-12.519247169595484,-9.555052871705929,-8.061636247527385,-14.563953716973087,-12.230530214391576,-5.010876228122948,-8.415436271731563,-9.815191517593036,-1.5101789446486609,-0.5972897956522167,-4.6526122235300535,0.6389182772554651,3.006837437349787,-4.279780948101765,-4.229205047455624,-0.30905675152930545,-7.208391880977656,-11.234631344516492,-4.0571030041505205,-3.05435710044123,-6.54385898375611,-0.9982580421820191,1.1287641451841264,-5.504403534804865,-2.219543710575454,7.149165061508291,5.799191671523273,4.9779953401453625,11.615447587164745,9.413893808788995,2.7979138094948204,7.213632187884671,9.499730518921961,1.9333353040771004,2.001931829894287,6.929137435658464,2.039548590783097,-0.1746607210155534,6.773075673031055,5.552694915283961,-0.480002239372173,3.587594611955328,5.889194059530057,-0.30939824371921887,1.3126789009487283,7.211192790322402,2.550208827947572,-0.4271247932270959,6.032556298789181,5.878417357705196,1.8570801877214183,7.531868748060489,10.1414331602217,3.700328872677199,6.3229565818866735,14.467803927975499,11.618478923325004,8.551726423548928,12.279134911144642,7.769265760983613,0.5525428749889549,5.969261255075359,10.168871716708065,4.917220439477703,7.428104419982504,14.710871691214699,11.28225449490618,8.798714817093636,13.944871511254892,10.269049778931564,2.7425658196532297,7.588606096939801,12.085968430253555,8.119304739501084,11.685349952079084,18.63007420560013,13.672697739063922,9.726658854062983,14.458031425557989,11.119124239358875,4.026861321873755,9.518657330557597,14.798943483527804,11.139224086852618,14.403251332990449,20.375843302295152,13.518252371171936,7.380789104861123,10.865250649995128,7.287928457677332,-0.28121154197714304,4.1388113324472195,8.821608313938391,5.693037303859059,10.542116648877332,18.741973447858303,13.652981214525923,8.031897398155259,11.412399004499791,8.23600520169878,1.955057086023742,7.802788790109151,12.713531501364084,8.037658635536463,10.563340832628402,17.683758856446545,13.855154944746667,10.689267655939924,15.631865443193838,11.888216027749191,2.9083487739508516,5.30433981912107,8.08996151862712,3.200730358492476,6.163820862108345,13.133533237958385,8.18789642152168,3.614944377872657,8.385036606413278,6.535572478954066,0.822414620518126,5.97765484041051,9.007016859685667,1.9864099608919639,2.954498977714576,10.035425677475613,7.098735200786079,4.659471269106159,9.722176739642643,5.9478563932274415,-2.3923357396940377,1.4811263640922805,5.64392098921134,1.2271530910577693,4.048101511980613,10.870556846189395,6.1191436957746275,2.0599238926440333,7.242476607409385,5.104419032881101,-2.0020450297029826,1.2229364105317813,3.3548469200247384,-1.9174299600296592,3.7322432184010883,17.091165440633368,21.68673363801648,30.37308950738015,52.95043889703329,73.11441526446117,90.85884456142647,116.33125440101142,132.79906018736568,130.4727755010394,127.83348534685636,125.98279535827629,111.41229677765699,95.30021054964102,85.87280826574732,68.48324062574574,47.52869630158689,39.8736809381502,34.172515342232835,20.071531474021818,11.560982161036938,7.1933663338776945,-5.967171624711504,-15.76329059568676,-15.097761986378517,-22.42776119212193,-36.08125984184182,-38.24721113333519,-38.49619857725341,-45.48270241596792,-43.79469353601969,-37.27393170509535,-42.70812735353801,-48.23616045346823,-46.097399230120445,-54.00494068353467,-68.04203752083382,-70.00313349692547,-70.01942987507921,-75.40577525386827,-70.90878256801906,-62.20580635124979,-66.52342534603784,-72.06544884396905,-69.5774358241878,-73.53729494323495,-80.49047795724776,-76.11469643470942,-73.10400660945642,-79.26311006426474,-77.23963479372453,-68.46268591529333,-68.26918328248126,-67.38499479761086,-59.761567359300244,-60.59254723446225,-65.16265639722646,-57.61921698320539,-50.67276687201751,-53.73316079347228,-50.91742673926031,-44.265424767832684,-48.15330075731893,-50.601044585172794,-44.489077010324415,-47.30757917260414,-55.87391835063416,-52.65579012321941,-48.18150661221637,-51.07166658822594,-45.218578613231436,-33.266569249120806,-31.924626987335568,-31.229456044136615,-23.724111295208925,-25.76807931564281,-33.919807701369805,-30.305012372619363,-24.39334168352562,-24.718617998377546,-17.338453455047553,-7.4185732255224135,-11.704377454903087,-17.96967260715539,-15.889190575301463,-19.5580312802387,-25.771310894614736,-19.590604763952825,-13.30405747089355,-15.790645172526032,-10.758652976536432,-0.5159939507367457,-1.4899571125806412,-3.2381770990145355,2.9622577950383784,1.845909187576114,-3.559738524369176,3.0108463860792507,9.861440521712238,6.9969781817835575,10.26294817763579,17.933738738351323,14.155201765344078,10.82565808296464,17.744083537495086,18.36542981598992,13.69960422635053,18.62213159992402,21.00627499926818,12.92019612078153,13.95388159903318,23.91604274889678,24.613260951911244,23.934832524236267,29.387980958744016,25.729043131607163,18.02640371632492,24.75070546490077,33.38313668829558,31.55736156459532,34.52759309780208,42.00058025137799,39.326913356433565,37.71772145610538,45.032185382070146,43.097085434599755,33.426829883685215,34.143300128142776,36.40123166243526,32.14049951121452,37.231778697446515,47.18864678261942,42.59678279843942,33.9645051021396,32.377692713092294,24.886582720377707,16.399352810599247,23.302467909492535,32.1986073275916,30.975540434671657,34.27706004797124,40.70796714321212,34.34492293128416,25.837878362971104,25.475002019798488,18.842529447907488,8.151704326320445,9.91391758690656,13.55842924082257,8.46096332960374,9.188797262022367,14.185708485248924,7.752720588417655,1.1315177195351995,5.182225029087041,5.486619171060149,3.114523128113373,12.159256030470216,20.020003843425187,16.50946809427351,17.97333624061614,23.94816968370051,19.51010058549604,16.14926802945024,22.96276555733893,23.319680008466584,18.024957582722614,21.971001262957095,24.344046053355346,17.515213301965026,18.53591670969659,25.557393065524757,21.53543696840353,16.15424439080754,18.44302216439525,13.020936826451678,2.6575046923663557,4.734687232280084,8.404285166313944,3.3094972396197067,4.99480074893084,11.571193254480749,6.529668275795255,1.2305523708007768,5.855329062156453,3.882638144006711,-3.898727868009631,-0.9908566951358293,1.91033608095806,-4.879922912827136,-4.77980666382531,1.5996681006255433,-1.1174110053260278,-2.1366985232221154,6.439305672910961,7.159906018519747,1.375642767968299,5.413318009638437,8.797549200719855,2.5972984578694414,3.1481631505765,10.15265595399196,9.252106408147089,11.031285382203631,22.367752108270956,24.236487859196927,17.06165054931804,19.20843587208849,22.589925105275515,18.01660182372419,20.58035086792091,28.059822571120833,23.67092255279457,18.493666836564003,22.61739125457933,19.42496553977645,10.106899773117018,12.504555617714708,17.39278038889827,14.861623477303187,19.44452309193602,28.044762394853656,23.254954416359006,16.576482174485008,19.47568105861069,16.63585362775855,9.358281518340991,14.267517515599833,20.369260336235232,16.544322969847354,17.859658596992105,23.090410502692244,15.755927290758944,7.014102584150308,8.820326355683088,6.617727422044446,0.5743920084550833,5.288147682360032,8.830225537945697,0.6459174409945705,-2.241941963354415,1.5505249553290605,-3.1768586973901836,-6.9453800305850395,-1.27214542305932,-2.540588272307373,-9.325680289398424,-4.894205074731014,-0.23800691188897405,-5.848022194675448,-4.905321693868897,2.5991466313036455,-0.6158961698045688,-5.148741346108564,-1.0124865875662121,-4.14836989145161,-13.088483482493766,-10.24553111450704,-6.250963154705834,-12.633164224024437,-13.781100204208798,-9.381118456219331,-15.303585170503888,-21.02741366327773,-15.558118027628428,-14.56960340518734,-18.902917201354242,-14.011928173062799,-10.506674216353685,-17.22974096533814,-16.7663504831735,-9.396707739855705,-12.508253546895325,-17.04260151592068,-13.22831873138853,-16.26775275550293,-24.521625286941195,-21.502572990474654,-18.014649818910407,-23.686323908004518,-21.89893883809942,-14.480392914287602,-19.263695667372946,-25.484637254252394,-21.787199439405114,-23.41631266237927,-29.57884300080307,-24.49000170149067,-19.589058846989534,-24.7664920929766,-22.582669544288336,-13.695399377036953,-16.293766284942215,-21.168896411309007,-17.595738812926342,-20.432894264756776,-28.09446850247156,-23.225588508098106,-16.236107965520507,-18.669242154617308,-15.75185509969797,-8.687319619247761,-14.2804760887316,-21.7332914187774,-19.226616494019808,-21.22445175613008,-27.24913778303414,-21.942234376911237,-16.293863984465286,-21.028807665366337,-20.24999230796937,-13.753425631512233,-17.667661058752007,-21.90807140855667,-16.0190382801049,-15.93331027011623,-21.865912320783018,-18.01856694413722,-14.651946788734175,-21.56579229399587,-21.382518802058687,-12.437096661612898,-11.251355283450625,-10.818893674708175,-3.4050553854214414,-4.959228506503058,-14.111155924428175,-12.29678823074649,-7.608277026742802,-11.550633485412472,-10.897693662395074,-6.455603580083649,-13.535136077867417,-21.027195661076416,-17.88337029973681,-19.560506757157896,-25.45674055879427,-18.89593315641298,-10.552301081773942,-12.413969615323067,-10.101966871951863,-4.550252820900942,-11.340551731177296,-17.610719437132076,-11.25166917829946,-9.515946369057719,-14.00720267811442,-8.705690423548338,-3.4485556635318426,-8.428175035961448,-7.357389730274079,-0.46770239265619473,-5.279211740575888,-11.837331416201968,-7.922504716581688,-8.443175263743305,-14.260625577119848,-9.774934666193442,-4.572399377649511,-8.905840796262211,-7.349623135200462,0.2726150165805574,-2.1776805962737456,-5.508884677067929,0.7048250822412854,1.6333267142557482,-2.7923641141062934,2.902373168188553,8.851300409627196,5.152456140835734,7.74523606948927,16.544465449932453,14.363283087604461,9.68228083492762,12.53264051578676,7.800547817288328,-3.1736515954754103,-2.3809781822280245,0.9975528279795427,-3.7738054167201085,-1.2139320400597833,8.27175342919711,7.384845759993901,4.605145023030564,9.742386036952873,8.00139789788356,0.7762684281720165,4.992650441478364,10.377308049078815,5.725144973406057,6.803189365373197,