163.98383027100238,175.4995592712023,175.01537347914783,184.02841803069765,198.24923558660691,195.96674519926796,195.38226467868918,211.57723833962694,221.6572850731794,223.97590673534617,236.25551752733702,242.12331424628442,230.48621547407384,226.68849846044978,231.83331474482577,226.85908185137052,229.58074287165223,252.03185486880352,266.42718133356897,267.6127344185636,272.99907428767835,270.9721413393851,257.49029567031096,258.2392715881498,268.4466263314154,263.0514218442099,255.41465000740823,259.61114245672513,256.9269703918858,249.76796196789235,257.46041102145455,263.9499375214914,256.9855826423307,258.3121368301419,264.7793172715262,254.3592179960976,243.9941362154424,249.9810132527877,252.2669114001626,250.18088107661038,260.4619697721425,265.99311914143027,256.06768920289005,255.9526374258404,264.93574127255,259.0312072704288,248.91300789009793,246.41813175019774,234.23366765270583,217.67896628483595,217.68293325074947,219.1764606851949,208.90311439675736,207.16996272839214,213.76362856167157,208.72628176482667,203.40239533601408,207.52009473916635,201.63817452777852,189.61866855901997,192.8748936540233,198.91914641398225,195.59877103708666,199.97475262814956,207.46522366789208,197.28860902769952,184.17899118174938,182.78277459327344,175.64098888897624,164.4463541680531,166.50078677346644,165.9913043268623,151.97548406747907,149.11953526849413,164.14235919610968,180.43953255974995,202.15355532138835,228.29189744785506,230.4774307126555,208.25189833022876,191.53436735849942,181.80446900731812,170.5724786497167,170.7894743460918,176.0874204059558,165.93671324453626,153.57678720461615,151.6213858740183,140.84047480287302,120.95421860695961,111.8958181525579,104.45926092942466,88.53917336120527,81.99272797483789,82.5519700947565,70.79232917356596,59.51939547778277,59.40461090147484,48.981226112714566,29.238716451639064,23.610697962717058,23.886044319113786,19.500651244340503,27.338566360527306,40.5032411955031,34.24233962625139,21.39695830905501,16.99880192741086,4.476656593117812,-12.54815811909509,-13.982246773737202,-15.316071622983754,-29.372706096706086,-34.26598981631893,-30.95389692709385,-40.35296080177259,-48.55665402641805,-44.29869521864253,-48.86446164411273,-59.32060981390104,-54.71571615350023,-49.794951467486506,-55.79396512541072,-49.906495681279786,-34.27146913572832,-33.378802870393166,-37.82175996299042,-38.38047394899303,-54.502331746502094,-78.57749984421932,-85.1063930527894,-88.10188174092066,-101.67360068286058,-105.76911842390712,-101.61306212220546,-108.75334489429538,-112.70794575086526,-103.1305758841121,-103.41876426407711,-112.54764407475831,-109.38111913423081,-107.74516409470611,-118.78763640647435,-119.73753051036337,-112.04719942753789,-117.86030217614133,-123.97698587184573,-118.82852513889331,-123.44371934705619,-134.43631495964814,-130.06074393652509,-125.80541256014118,-134.48332232959308,-134.00526176034342,-126.0483730513616,-132.01937848100178,-137.70229796446182,-131.28925018868017,-134.0470040398903,-143.55141111313628,-138.67080402938691,-133.2630893862443,-138.3201030025375,-132.25841203649793,-118.47138631690117,-120.54691027992192,-126.21897921815574,-122.59441748616133,-127.66173603640503,-137.81523907053088,-133.03756722154526,-128.62778787720208,-136.70519010001033,-135.0989217546708,-124.85679336695587,-127.78980631362954,-131.4872114495781,-124.16884649259221,-125.29078453527039,-131.87454018028356,-123.45077009907224,-114.94191511989497,-119.51434406237881,-116.09052558734564,-104.70088036462683,-105.2516201008584,-104.72675565877167,-92.9669211341546,-92.56393496652036,-101.98380352569691,-99.05618190662453,-95.92395073681644,-103.61483015477737,-100.82819028464642,-89.12182844788569,-89.18219483730229,-87.78150732314597,-75.39169702550043,-75.35309188037508,-85.33787273260175,-81.23181039016274,-73.66446796965936,-74.45604843573877,-66.06119960251505,-54.28644630239058,-60.681746044048,-68.42965817893197,-62.32827377405438,-61.518625275355234,-64.13018721616541,-51.465573920542624,-40.29404282522452,-44.48324294146195,-43.42620138750488,-37.197595543426544,-43.40924277602538,-45.82882619458184,-33.25293974588915,-29.52616292430917,-34.50685178829499,-26.704788430347826,-18.98637158456452,-23.494361935760068,-19.832199744163404,-9.6472177322433,-13.024657741658102,-15.095732219969658,-3.5755642953079865,-0.6560727017551276,-6.165316163642153,0.8361573069064936,7.334360675254317,1.2152287282670957,3.207106523880346,11.853156575616017,7.090275950012844,3.429876781560166,12.495627861732965,12.643379283195333,5.035013242552376,10.413465727356797,16.213841629339168,11.603248621310039,16.74805455139902,28.19187315440581,23.742612210649575,16.60561757354339,20.121735289504787,16.762068540646343,10.360148752060075,20.679726760822447,31.688861954965418,29.134559263761744,31.605370527037792,36.64619550934663,25.64385369834002,15.546109882255601,20.03366616227054,19.307583520102213,14.857893278735707,24.085709379453696,30.711676468879315,24.31308386261019,27.525515555060437,38.54247646141512,36.66705685731003,35.28630750195973,44.679719223670986,43.83283000047798,35.57086320754273,40.17594086130724,43.58338050226868,35.35924405427534,37.06614164300292,45.94566151709472,40.58106958469317,34.68141894611251,40.06000216354916,36.865356050550325,28.248951607682585,34.36145069727195,39.66530052903197,31.676183083247963,31.831120431398425,39.22751340318098,34.59770329666455,32.86563248049914,44.82711012665769,47.84162826386566,42.679162393055485,48.80662658991236,52.253310104551915,42.38432899892503,40.70621468136231,46.42066154548874,40.022527648883965,34.66032224329014,41.583159183848814,40.843449361666394,34.298073448263175,41.52423815225244,47.67090213484833,40.005527211474174,39.348349130756695,45.42975925158244,39.72619972014394,36.48043909195602,45.63876238945939,44.65690247110547,35.29860209144921,38.98456970321971,42.82042868539938,35.432390248420994,36.3070309406805,41.59901983966407,31.060041040985766,20.895629638414892,24.62555213147874,21.44236874089826,11.292610929774554,12.776960017443127,12.73529985476501,1.959978201569676,2.9385860961563735,13.491653396223645,11.040321029045032,7.324391552839869,13.992361280771163,12.01374446912692,4.648297122197158,12.697851705728501,21.178845817398717,15.695392830058111,15.434874268752411,19.782938111534303,11.093719414190074,5.247664777663046,12.995299997351964,10.712508498837725,-1.0662374796927843,0.5476595333534524,5.780930770220386,3.7741666807110272,11.96946204980021,24.27443135337601,18.220270671012464,9.375077331668207,13.405430858232819,11.735136981289761,4.796107613800688,10.923625129792134,15.607116460546818,7.528567077986926,8.627436242199925,17.661445476996793,13.480727129619485,8.94018814254651,14.745984991334634,10.410025981741697,-0.19299059387559891,4.744349253935872,10.812001264238864,5.017505208919515,6.576051155645429,12.379574250867863,3.2053901388197343,-4.011068975298536,3.933147418505003,5.26402751823653,-0.7575796470936353,3.766362523567109,4.615685400599746,-7.026504697782385,-6.288445992942339,5.983335999604153,6.2915023165291855,4.339978329542626,9.447316392559717,2.5219662868759087,-10.03762671241855,-4.866696875940434,3.2658527692380623,-0.6641712965539854,1.2758661553706938,7.136348404130886,-1.1687823868881688,-7.327269028281806,0.949263875167726,1.5951410797735652,-5.892329103804131,-2.634420626366186,-1.696831419014426,-12.69560502638286,-13.035696171111457,-3.473842897578735,-5.031317411957685,-6.460499922932122,1.4747957518703658,-2.1137821293726122,-14.07430199520355,-12.187998591942776,-8.431048156719754,-14.341696184495238,-11.081033953172334,-2.426590373103156,-9.167621080352635,-16.436968591593576,-11.473742016309746,-14.091614979625431,-21.498608571563178,-13.521662754357312,-5.739499019062807,-11.449488242415583,-10.442162289309088,-4.453657136046456,-12.72221449069551,-19.501679988006693,-12.962556543117588,-14.794673480098188,-23.01981722490123,-16.73019401632368,-10.070239504546699,-16.171834286808764,-15.686662058778108,-9.241713157238252,-14.177420258223863,-15.426325404961608,-3.0594469156020745,-1.1610046344069027,-10.83358748229967,-11.147824981972114,-11.731516428554151,-20.623968701159097,-17.047968143264086,-4.744743056329696,-5.9425799844633875,-9.067394928446902,0.6320643755932771,17.20434447619353,47.82004713104211,89.95048341112306,110.46390349996737,100.21204710999979,79.20564391889135,56.71054981100814,44.4773628991508,50.98275478158258,52.30155429930845,36.09968610213488,27.501324031077072,30.367679151906508,25.886654629668467,22.41459740155382,25.597274042898754,16.497683659053187,3.5503577734408656,8.700394575402651,13.740623481150319,4.065065754160106,1.0537788324471982,3.499995730803044,-9.397171053010618,-23.351335480710596,-24.06834225635883,-28.436268511957678,-33.2361584444029,-21.43082777491651,-11.979947455141868,-18.84819278892593,-20.111666919540504,-14.889180196394715,-24.642074106725033,-45.28758076010667,-71.77130683675966,-114.80633247769767,-155.0727160207932,-159.52126721603145,-140.9734300229212,-126.66832860825622,-113.92627864910202,-105.7870719563564,-111.88243392898431,-112.282449866389,-98.1147641937881,-95.00958712696533,-102.54703569527385,-97.48335228487856,-89.33392554108315,-88.90088758925145,-79.14435796165972,-64.6614419366164,-64.28689273599157,-62.518736173739555,-48.626373795054725,-43.9969187871397,-46.82036529633372,-37.160184296915645,-28.781574050533173,-33.75435227432608,-32.43697511699829,-25.346456791823787,-29.623536678268348,-30.67837678430563,-18.57800171796675,-15.303900910784437,-20.021771129658777,-12.85445345909086,-6.25867803851801,-10.67809740304403,-6.329791037896324,4.26406247185934,1.6593998501825273,-0.3008719422584373,9.418674200517344,10.864850390147641,6.072323629030606,14.87395872978417,24.212364236287396,22.340750016248013,27.34602504588139,35.582464909190314,27.994588951844786,23.67327351105452,50.25123004630888,101.31857058099936,154.34270324065318,189.68758199726878,193.49723655416727,163.65654654674557,124.06558496937626,112.69783600793298,126.48608287759765,126.50377854199061,110.17011737168214,100.95818773218238,93.12475567567245,82.53209015044938,86.93908473334406,96.77877225162479,85.13046273437972,53.2331010270126,16.474459857723648,-15.895525187454222,-36.13860360563756,-33.79584300525559,-9.885001368434159,5.982635101373503,-5.088559093933581,-16.043939867394847,-9.85271728437431,-7.67024952054066,-11.247559591604022,-5.800233429790215,-5.293516141276497,-15.071427022757353,-11.895443562556455,-1.7097943721626216,-7.776742696123961,-15.010236401738556,-9.910376749756828,-13.092823965393046,-24.178713588616894,-22.781926279507623,-19.889265806487924,-26.399575580054098,-24.8220192810223,-18.18303623913026,-23.2189295782424,-23.032556000375592,-7.218232988532437,0.787317507665398,0.07896509435606092,8.95295517147086,15.604142639897866,11.648005545752127,16.191111454312345,23.708071456144616,13.626911908087884,-1.5312009558517756,-13.174917734026822,-30.98611427943564,-39.58761849536731,-29.152807743934886,-20.77633769441782,-18.33528070676173,-15.102240940709507,-21.899685241495078,-31.903772568764083,-26.601695052622745,-19.770207703792718,-22.95188220950132,-18.21172104953246,-8.619335967148682,-13.120589873274037,-17.996921718312073,-12.37044757270655,-14.756052273958124,-21.091226514209932,-12.553211275825973,-6.098770603431941,-14.617227417474986,-16.183753474461014,-10.325624944302895,-15.900907413198588,-19.971825756972123,-12.632599026075884,-14.380557979766731,-22.6362129817037,-17.016387672738894,-10.477713613878397,-14.359943891551557,-9.941342434825376,-0.684452002303658,-6.103143229241033,-10.740240909150245,-2.119813234569617,-0.9144713911416287,-6.4298736033700195,0.4335080827239235,6.128970056846231,-0.7568434359875238,-1.1070728468842976,2.211147828023768,-9.012903953788129,-17.964530420795498,-11.538707801067197,-10.151552120410205,-14.261876318704033,-6.719080305115032,-0.6813101595629452,-5.883331232076394,-2.727869172666785,5.9292217432401175,0.8734094696599439,-3.3097411576404667,5.412597426376514,7.46281295903162,4.17277533467535,13.688142860960134,21.747577000708503,17.200205322553437,19.166554379350817,24.37301862222279,13.992804610548166,4.269331449541925,8.56397071678398,7.358443051490225,1.4838375684360834,8.43570555200308,12.810386309590758,3.8028271154203335,3.9126677977832554,12.237780151234137,7.900976878199789,3.115966910465947,8.752839891886435,6.363263007555508,0.3601512869209209,10.070174643860371,18.65881516764678,12.367590496253259,11.373650668353639,15.900031602061095,8.766631775852977,0.203690117758069,-3.4708030159817405,-9.201470814825019,-3.2038148194177913,16.576692012145852,28.570790612075204,29.83744980976826,24.7007421617708,13.370155251163029,12.451452082026535,31.2083739834358,54.287830094475694,67.36427199028792,67.77439085626374,59.30581956208343,44.300990609226254,28.6759763490935,28.926560783822467,40.50035638970459,37.5821404896515,25.86698867820099,26.190806395475676,26.266385866166775,18.16984325054912,26.823645180077893,64.80923358559338,116.60617664126472,162.97876986664315,187.9455540888532,177.68151357161986,135.3385599216939,97.43147534429042,96.77927481164795,109.28441878857384,98.546199756018,79.27185888542536,70.65267657272902,59.54233738309592,48.77323551856896,51.1131791535189,46.96476612204293,28.57977745389632,22.716923185555796,26.35307782001057,14.173478560510954,-0.6870688190050513,-2.6203302158686412,-8.986995068970025,-19.443021592227584,-17.522694812618074,-17.528234427275255,-28.786477388660767,-29.839705045034243,-23.694378595410495,-32.05523831454943,-41.683008143048724,-39.84541706980523,-44.65077232717455,-52.576104863157454,-44.79756276079927,-39.07630407098438,-49.364418197029494,-53.30285532204109,-49.569987680750174,-57.031288412303326,-63.33350775337921,-59.78377414848703,-67.17265314639064,-80.18219968284546,-76.02825535801622,-69.7894331404259,-75.69362058599194,-74.35317478548916,-67.6757269045476,-74.93838918610768,-81.23579020099929,-75.8258894495517,-79.96422103930617,-89.48227014879856,-82.00465979609018,-72.77283173059664,-76.33110899176364,-74.13749003839118,-68.97489569470417,-79.20498316392249,-87.2523056908111,-75.40550686813165,-50.91234091375935,-10.229996566565223,38.4576890897323,59.11276985121125,45.18528210575323,20.44950693843078,-2.612881758959923,-10.506956865029625,2.6841626083097623,8.959578958024672,-4.866299479283338,-13.191845152141356,-12.5765153289743,-20.36883112655366,-25.325637607299182,-21.67496661330903,-30.182174305546052,-43.14203439946621,-39.054982375477735,-36.044297365846944,-45.689268929476455,-43.58850390747198,-32.4412011148463,-36.052086786366274,-41.13100857942577,-35.51034040714062,-38.825295764528725,-45.72602724363038,-34.31653970746319,-20.83159402981796,-16.369035923278524,3.607479806805288,36.582267381931274,58.43972302811028,80.40965641061393,108.44572411247978,115.30261854937942,103.63387205577729,98.25828477648577,86.85658662455256,60.39175409469888,44.94734331154766,39.31615159391542,18.997053670296307,-3.01072944810757,-13.507299334937041,-32.82722047370332,-56.38017581939247,-61.50654667839149,-67.10717619391501,-90.15392044320103,-106.41872285330047,-111.71194941790486,-124.80013700779824,-133.50571104999028,-130.88254254544012,-141.67356347328843,-160.54725601828483,-160.11108119569167,-153.0468754310307,-154.942568246174,-149.41197716302332,-141.46702821775273,-149.5658855355111,-153.75865636604755,-140.42393760381498,-133.5179521364209,-133.46594101915915,-120.61019702447312,-110.21451372624927,-113.44538629355822,-107.48437588584795,-94.91803157473383,-97.31902600468676,-98.86915219367802,-97.89365133091376,-146.61824892749755,-254.65674182108603,-365.7770673049962,-446.50209742035577,-472.6800490314663,-417.0561109773681,-329.29232415353977,-287.3877236283835,-281.86612918439613,-268.7516659852517,-248.0159220593314,-219.92165333880791,-177.79186907964888,-147.30919583791388,-138.07221633401562,-117.94021270129433,-84.84654952081978,-64.81279463281034,-47.786510859549495,-20.90261222244781,-2.8892907760771678,8.100446593264438,30.13341024172884,48.67516230102688,55.93759178886775,75.06013619154449,100.11849735415163,107.6852386160678,114.576354818349,133.75202359508194,142.15528339914752,142.2758483418495,157.1584407088065,174.47070932792622,185.62247140230033,212.64419774197916,247.93132311184752,266.0805736159857,282.4667903481617,309.7462608005577,326.2803220673892,334.57138164122733,352.7293592761202,362.1725909352997,351.9746269047554,346.7247981489294,344.40224861219497,323.4649645332772,300.3140055376621,289.0379486536882,269.26579522776035,244.9828232750753,237.6222769875285,229.3861193846264,207.4313972720295,197.10492519032923,197.66889577272053,186.27763522007095,176.3702305373376,177.5558863906054,166.72894777386665,149.56067085204157,150.38272595488579,152.25411818213402,140.2876163024649,136.07304614389048,134.76899448220502,105.37358209445003,57.21792194161473,20.957184305284535,-1.1275004506899826,-8.717045424410621,13.06586663489012,44.49042093935785,45.16258504266918,29.486288998720447,33.23303525477151,42.21644361361289,41.41648749966585,49.743484463546594,60.41583675321537,53.61742943333903,50.83949922551073,63.48842703383121,63.39478661795699,52.59441853845263,57.32165267537996,64.71351429503832,61.85467388283126,69.67774342560548,82.83168090772375,76.67770598224394,68.18466345850928,73.76728650091792,72.89686661163798,68.47405694343699,80.55974400736807,88.11565883106039,76.79930534621998,74.2561064696378,81.68467874033949,76.62719155746036,73.56867372120337,83.07568566592877,81.12544012030993,70.89017127618462,74.02453146949598,73.9182328167077,60.31379988952884,58.47833031383736,65.05805860305392,57.23916029549522,51.020114245072385,57.406546104370236,53.40668667916769,43.6867058902268,49.181023134175604,51.2629982921927,39.65607276534758,41.280659780406815,52.62734779374185,48.01116229673505,41.106068009191524,43.69332346983862,34.87001187849067,20.99358714234768,24.796970536593857,27.024461200453096,13.448124133047635,9.481241249435595,14.99482680867401,8.220872962845341,4.183008584946739,12.864072682809711,9.086149243767903,-3.999571480015923,-2.6827852474889964,-2.0754624989255905,-13.239889193124213,-11.874974917794738,-2.2987840499592855,-9.691580248105836,-20.12558374637851,-13.562464895955198,10.476958021139481,54.42525498893734,101.4535853835783,122.43766128213133,113.40442867342082,85.19471966547968,60.133936300609776,61.2308451803336,69.22093304092034,55.85382254048138,39.36098152262151,33.59213811891903,17.46448557789168,-6.373701515076022,-21.26347839694492,-44.79013341200323,-80.46229697117317,-97.234191870473,-101.62819613808097,-121.99584465741236,-140.3678496077119,-141.3719030984457,-150.34824048412776,-167.6686263785145,-171.6442661472376,-176.09026079316297,-190.1201256618428,-190.2628874597008,-182.6303149772586,-192.01804214991057,-201.89143784395387,-198.4240230290181,-204.06821557911996,-224.31118217772047,-252.37857532773506,-291.81360290771966,-320.4388462723135,-314.5692229005351,-289.3650137394576,-263.2343187137112,-248.34266090385347,-255.90915559030176,-262.5570872224898,-240.9229240283289,-213.193575392987,-200.722182374715,-188.59460356291268,-174.69788573901053,-160.06052257694233,-126.54025035714267,-89.47096667725948,-80.21627206382394,-84.9078972274524,-85.69038213193232,-88.40171345308923,-84.66619491242525,-73.45854533241265,-76.93580033108353,-86.27498778272721,-76.54343769733082,-59.59143320087572,-43.9911592585475,-19.45496216085784,-0.4786150967525078,6.253578460995561,22.44214887797424,43.33424796610454,52.1567586264983,61.67631903342095,75.35740823227046,80.89796532252844,90.18129599475634,105.09409624730307,98.07283915922471,74.25903934417374,61.353881886396906,49.77519149077278,31.300679979490916,26.382560387895623,25.510578382793422,5.157146003395788,-13.997157358484037,-17.653532687767242,-30.4513581465019,-49.86532921014275,-54.19256236799082,-56.88308880948934,-63.34928568906359,-58.523431048966096,-58.42315058163784,-73.10993400163164,-78.81154943931423,-74.08417156359063,-70.9739464953097,-61.9576724707529,-56.5351163036047,-69.35868708536172,-74.99282154378288,-58.783110858759336,-48.4963417541818,-51.593195528128085,-47.74651253640576,-30.20587473899041,-2.22974281490467,29.974404137944962,52.083455903359614,46.573670160570416,15.508784617536557,-4.810091526195705,5.475362667007872,15.74226396373741,10.29145857582286,11.425712982090554,16.33224660477464,9.422801545011474,9.635446314980484,22.318695693692046,19.464514131109794,6.602822873610108,9.119075746337092,11.601656228840223,2.8277672720540736,7.282327648149678,20.9295978919765,18.23580042756889,12.322372575623843,15.39320982084169,9.13239449206235,1.2700470303408378,11.632001758699847,19.134815036466527,10.85888579707174,10.73654974328456,17.592279711152596,14.238635113893153,18.757400166172765,38.8765546609544,47.273543886200045,45.26701537398339,54.07578182662678,59.954962699583575,54.92041567792069,61.92578084430526,75.65134323599561,74.28565052264477,72.98259540803024,80.60399975530609,74.32810723538448,59.926587775024956,60.95345146186574,62.63530443953998,53.28081633456717,53.24515067872436,57.006636997819186,44.8030192582313,36.6815030818915,44.86946251756798,44.69622296368216,31.539557957947565,15.862879160252238,-2.2782036296573773,-8.172786054648451,6.887737159681319,26.61081541362077,39.04584754032301,35.07947016358765,15.305701301384417,6.959239769432686,17.31984112260743,19.643058477950596,13.709468985114587,17.30818853982844,17.601083179124036,8.989625473743638,12.86184277444316,21.01955843993787,12.106590300453599,5.610567848256466,13.936641098243596,12.8439320271263,6.752196784049497,22.850810547178202,47.202750726022636,61.03710624140381,77.70405392539242,88.85624715362795,75.31307671100382,62.55081842845212,68.3799066450614,67.26452068224677,56.559333933610034,55.21631708373239,50.513092265222674,37.248615479565444,39.9415550218675,49.808616127620944,39.474723557425285,25.143562446360416,22.98312617936784,16.294787570307193,7.296494970996328,2.986402967161811,-14.935611945351951,-38.14327338668022,-40.93276802979428,-34.11011082854974,-29.26172722936195,-20.561490648949267,-20.713669449652755,-41.53044258594983,-78.99110394155534,-129.25429341045137,-170.9528884081044,-178.55706727093624,-155.573139541263,-118.87912742454395,-92.97320686775271,-97.88816637766955,-108.54768197961022,-91.92816529469924,-67.31705786871089,-57.69599851131901,-51.067536961640485,-43.89342638339524,-32.23264316548392,2.9880596608257797,42.03887727378517,48.63709036786827,34.82573720065722,23.104010463263283,15.092116074969297,19.96996164236484,34.682810449806745,34.97507282303182,27.172942793790988,33.28814799995626,39.28112465841133,34.205027431109315,36.319018199787166,40.046930085485585,29.191370643205154,25.102888550391487,37.58927265765703,40.19859856455105,35.0399352987525,42.75170173024944,46.59133266166677,36.07222712200843,35.46291279822738,42.10473003337697,34.33645029163846,26.903354346075858,30.14127895308626,22.929571174764796,11.102104365345276,16.693776322844627,23.384633078150802,19.06996020050093,24.261744651463527,33.42502277188938,25.544270072196774,18.138370294083135,23.250142643145747,19.165567707218145,9.855324985629132,15.895099751147566,20.854835037353514,13.630008873293102,16.14284132543212,24.334608390613013,17.637641378502792,12.731820518959829,20.32250589704594,16.861564998077686,5.552095647267906,8.404123588287309,10.75489795744313,2.4126336758332,5.467051636574229,14.644476154663494,7.911791917929092,1.9767721243605259,7.883610285187833,2.9258164908517488,-7.751454262773738,-1.904465398372646,3.8632079885077073,-1.63276363767477,3.8238639866787487,14.430852487275487,8.529998497317901,4.91611825252855,15.368191613864955,15.397482370962116,7.610706781282664,12.422488059658447,13.463790402564976,2.0382211560873507,3.660233155020868,14.805827858715993,11.929891081846522,8.050874842250291,12.182797563747101,3.0543656764951157,-11.798918577914439,-8.499153682403803,-2.9915289622357473,-8.021975797755264,-3.572883071907357,6.525684842066074,3.1302791679012456,1.1376667017604154,8.22062572794199,1.67451246551801,-11.799568162351935,-6.5092770412436725,4.426200328830689,7.043911257381247,17.23196577056415,27.627444176391876,18.29621197087784,7.958324106539656,9.341822905250694,1.0810293700709948,-12.60985097052666,-10.098758520288804,-6.495672029150382,-13.720761980813986,-11.960764899605625,-5.0544730362410295,-11.258061194379433,-12.792331148921626,0.7046022237462601,5.352434116634985,2.6214123599961927,11.95282590333022,18.92191555833498,14.762305479806864,21.422468347323598,35.8958950402394,39.703269237958864,47.45220254741566,67.87774537256252,80.82716456004238,89.68874153428024,112.09852137570142,133.88110426301532,143.69331509795467,154.94256777233124,161.48575376038804,150.11487437054078,139.365609333057,139.21148318186582,131.04113537134288,116.50613060488831,111.44049839170042,107.30053591626165,99.18556014531174,99.71962255649818,97.91287690982095,74.3892878163995,44.27654231453148,22.704724456939076,-2.3578109972183556,-30.175193660988633,-45.25170823179835,-49.7803393862134,-47.51377109634538,-32.88006930978359,-20.92790828777187,-34.84082723539844,-64.2263493224143,-87.21837913602586,-103.45811324029032,-109.85426352147728,-99.98620855692573,-92.44229408371416,-99.86197845939215,-106.59520837933573,-112.11074352133501,-126.55007308284675,-132.7955903056588,-122.51217338049368,-117.57796592129193,-120.08786171638155,-114.88733067536972,-111.79239571605933,-116.34065213573275,-110.15367000690085,-98.36908593179724,-100.18382042193083,-103.98354842980225,-101.86663835108476,-109.92980183492044,-120.10064387708157,-112.98069078036028,-104.45912468747945,-107.28058345441241,-104.7239663226652,-99.65293027176521,-106.3723883591077,-107.97005052960942,-98.01833850829422,-100.84868887019061,-112.07040174579953,-109.27755397006398,-106.68834209867805,-115.22466523454106,-113.23569066218337,-104.13412170188214,-108.7635367789142,-110.57698678417646,-98.96361053478282,-98.26625365960619,-103.60887111259096,-91.7112511163623,-81.7586094792394,-87.29302927375191,-82.59578166616717,-70.27506936864957,-72.97129001666707,-72.0895367122477,-57.4068535051921,-57.27628855278822,-65.74637873205079,-56.3205859405148,-48.18766813749306,-52.80261856095928,-42.81308826014231,-27.15907087249611,-33.70631705248728,-40.30524258114883,-33.762577675458644,-42.075641335885315,-54.393499652624115,-41.54788390530382,-28.123972028840267,-25.826005637474555,-1.1359948703531,34.92794738321654,51.20881452794211,74.67223520692909,118.78915953074058,151.6654153925871,187.80649344875837,258.67831563554046,330.12858502500205,377.22606720842487,424.48779728661816,453.9105532794556,432.07526831984995,394.7746268964564,365.0369424057005,308.6909964468429,236.05072451401668,182.2922753516702,121.91849783679444,45.34097999624201,-3.2735410458486998,-32.04793531665441,-78.95593337221995,-117.88873186801449,-133.1393363450046,-160.78512233774097,-186.3461146558663,-172.92623556279435,-156.99287999701835,-164.8165645552729,-160.0767750463512,-147.40511631995014,-155.1399695391409,-150.0539523708111,-120.49215486950055,-115.90485450903596,-133.24347558403414,-134.06939143496527,-140.74697965741777,-167.3432041919305,-176.63846350848448,-177.84320470607003,-204.39153704230927,-227.1147844252643,-230.4218526938012,-250.96290064894555,-275.6915433764624,-264.5354975838449,-240.42710501038215,-220.20400896186,-175.76897433227342,-125.86621020017034,-105.85796844098728,-82.32750129445606,-37.1633755183316,-11.583434488370452,-2.1222822255622398,22.9591826899847,38.5941677263358,33.59749982684491,46.358581605130496,65.03269677083739,53.02512820372925,41.603575930141695,54.683751978071584,58.62964951528508,56.49690604454264,76.08336517268643,91.09816018649829,88.32248616348255,104.61601396629034,133.73134948526115,141.97876153448507,150.24315476472205,174.23579409314192,184.8702125766693,187.3405422982834,204.92252591916622,211.9346570264203,196.93640579961087,193.74993238885554,198.80168995723702,185.16065069035528,170.3464944777391,162.9320980815509,136.15956215039483,103.5626872007669,96.58713083255074,93.35207919054574,77.9559925278038,76.88059888671098,83.07855585377172,71.14013859616892,64.35364634484372,75.10023131979962,71.95278820816162,59.48545375119415,63.91599642414124,62.84990681676718,42.73710997359822,34.4665784966633,34.483325847884835,17.90158965014176,8.45225717349335,20.942163004756686,25.618900371471934,25.66236080446317,44.397727976882855,58.399884610295764,54.38456352593154,63.09743962041963,82.0380014141229,84.0384366517174,84.75395555833455,96.36803551979247,94.80642931453166,88.2250458295311,102.74828824507239,114.16380406502566,103.6093060783343,99.13716503875997,101.04075347701405,87.98720846759839,81.92280964103341,94.04715355260079,93.4456554653269,86.02377024008163,98.26001933360834,104.57761383817332,88.67298864911521,83.75836359807238,89.92761040213945,81.8642364361704,77.61406429907703,82.62943861262349,63.57435394991685,35.29457988549704,36.932441096220366,47.7361325067114,48.85497996967393,65.90186902748717,88.15631452778962,83.67950097285652,71.49773934191589,62.95631307923268,32.34703070692203,-1.7758648339637855,-2.613442395253064,3.2575260596983995,-11.953459715381996,-28.198037101827722,-48.36610902490238,-87.48424045577315,-108.54382785978262,-85.25443388743554,-46.963781617641374,-5.1330123274263055,42.254222484880664,54.40956389782406,16.299504685238173,-22.896529268141602,-43.61608052915635,-64.18113850225191,-72.63909538457554,-67.52020643165864,-80.85279256504708,-101.65157768917268,-98.42272353111139,-93.74698503227035,-105.49633045987925,-106.9273187549333,-98.98237777866692,-97.37796268007185,-72.71597256573526,-16.721688300907935,25.477192298442805,43.98610203951215,56.37133610534545,44.227146477651175,11.46616870785506,1.4662303551371119,6.169103614034311,-9.441408454461477,-26.305593042288834,-28.90464660513206,-42.25040719692749,-54.97509780945647,-35.96065770988764,-6.633333127640501,15.055567647687136,49.44634273337924,-35.372512479993276,-46.11083139415809,-29.838088871621405,11.485160793193067,55.720001339677,57.29605239203255,28.74349106070918,34.41306930023718,61.98599780485551,61.53036839180531,61.6343872101384,83.13169700363564,82.14059679157447,69.49413100294234,88.75392528792132,102.71374750299188,85.35156896431405,86.34192145725392,102.89608951019987,88.84663841494518,70.21332760463959,82.71543591293909,121.94651935698934,189.00854251826695,255.01861123972444,274.9429977274891,251.42195479141606,203.5885389044473,162.93355373203534,168.7232771409778,190.00263193846212,173.80979872394116,150.73177706006635,151.70203982337694,143.5103556281885,131.81250602907045,146.59605396343443,149.05050852554254,122.03864564326635,118.74252089096692,131.55168686962278,111.26893102873066,90.81081095158049,101.04036354206605,97.87046228434896,80.15482424092077,85.99912353709006,85.41073614353095,57.39456427093796,47.86403110755127,52.1735238830478,28.20906736742973,7.14363194535141,13.845260362252985,6.251348431141964,-9.141001950091173,7.507729272340482,19.904249758170796,-0.25976965385756223,-8.938463087908723,-6.80685150171189,-31.641428936082285,-50.28983932036392,-37.83885383099337,-40.05519507566377,-54.70975596408582,-40.87445469758856,-31.940018585397347,-55.075211577428824,-63.814019651707916,-57.138075161009034,-75.93166938536336,-91.36575549192077,-78.82671982926854,-81.23395733094605,-94.13667175661391,-76.53377965772961,-62.18188251603877,-78.36143507779633,-80.23986857404036,-66.15511994370812,-73.13390143216031,-74.86724990688498,-55.72575926076267,-63.337238176470066,-90.33892720370179,-87.18983735878585,-77.66359578213968,-86.65145359921945,-77.25672529670726,-59.09571510340284,-74.55265809221076,-90.10224924459268,-77.10801657166556,-78.30401081769531,-92.37473016553092,-79.23580789171118,-66.7453494271644,-76.3767690739419,-65.24994137445121,-41.39887021274013,-52.47268183301239,-70.33956762000825,-65.84990105526916,-75.7791049705248,-89.91721920189994,-65.60021995283938,-41.11103446499533,-49.0852243608712,-47.787330759256655,-39.65742168966966,-61.658304958941045,-74.98230193899361,-50.747959536261654,-37.79934322079023,-39.54023074670688,-17.80264039026389,-4.5754766395622575,-23.18227307304584,-25.375363867339182,-12.396351355067635,-28.059358342921573,-43.04980988507689,-29.488066065712324,-28.41759939474993,-37.788077196064016,-19.927467472624897,-8.031340558189104,-26.888739323831874,-29.105215133477543,-14.257729056336155,-26.69111331668376,-40.71635235165275,-30.058780349030762,-34.44154202748769,-47.84859804681614,-29.208681135655432,-14.183410778458555,-31.44410010717671,-34.83160242504852,-24.34388874490338,-41.13159039903474,-54.318448581151515,-37.3737196711343,-33.71714719422965,-41.604205216563635,-22.24367115482568,-8.545098262149274,-25.861556934450213,-28.47586365831139,-17.202442485833252,-33.833909903697396,-49.22923678620205,-23.492338652101324,22.957636364478173,62.10099025520161,82.19116682587588,77.19896964715105,44.88331957869241,5.432300226246729,5.383299195203765,35.60620551277519,33.047977172902264,9.939986564095765,18.33356755742926,30.010191325298,19.275075097110957,24.51773996282586,34.714775639905014,10.327849351548082,-7.608895866848937,8.247192023016062,5.299039364261513,-17.1329898293899,-10.744449040692855,-0.8194370311758226,-16.093949306540704,-17.374763629241652,-6.029138246764814,-21.569946239634287,-35.025965379545944,-20.979496863108224,-22.129490132877503,-36.557693436554274,-22.93006242383275,-10.790051869144765,-25.973033945029687,-24.22448686081068,-6.54372993671672,-16.346482012184552,-26.192211266866078,-10.159688501544613,-11.648276189006486,-28.344848169982445,-17.187316640669856,-6.6679364185284955,-22.542541404126098,-22.342654233358736,-8.84578715421352,-24.225109574434082,-38.961277039844305,-25.102515270112804,-23.585297686060198,-33.41855920884571,-15.883690390745514,-1.1838467394610017,-14.166606407719312,-10.724064672016187,7.6519223963958,-2.6428701456205967,-14.90266874107546,-2.1886697599485707,-5.335527839461047,-21.135392496107414,-6.631173095178266,8.045073193951318,-6.3894228643865025,-7.761977518894979,4.6125724344033365,-10.147037456135134,-23.415073531745147,-7.6857526122777,-6.4071237759332575,-21.140594004157744,-10.809256977904155,-1.5421247697884235,-17.264931786096227,-14.847891585983465,4.958221438055248,-0.1979664691815568,-5.091784783134692,14.552794374461914,15.412706439967076,-1.776731277478583,6.681175625712097,16.09950002379126,2.064267766539089,5.276750051131481,20.503336464217753,2.922892527837986,-17.94752229644527,-9.64514776423803,-9.685454636822104,-18.010414554557887,2.2818392020469798,18.584115199925172,3.487267517987366,2.768626225408956,18.675530489426887,8.658995804655426,-0.6592232884808684,16.880207446640394,17.942405567597454,4.1525559995773875,19.920152102017827,37.09991497499895,26.42194846970773,28.669849059840793,41.586885793478125,22.343459095872976,2.463293395915155,14.03250046792412,15.114989002149951,3.1501079691753198,17.528595430589682,29.082310784784248,11.762574670251444,10.420675040390504,24.798791277554713,10.975315612872077,-2.9864187408964775,12.26622394162239,16.24733606536413,10.615279592673602,35.49300564655258,56.559886578188525,41.53559318985526,34.933181937982624,43.18085784938982,28.663014786069905,19.091202800938305,37.89486966172011,37.88206876515654,19.404421680552616,29.18607073131333,41.45146391158818,27.042999238900364,26.747710791755534,40.088438264199034,25.19570752395434,11.553917072365275,27.306038148494864,27.953348596219385,16.29193972924823,47.49088189291916,99.50860000677609,123.42179673665886,139.89569686711548,153.86662402258222,126.1567840773082,87.99107852054816,97.44711808408391,116.95799676417867,107.15400240650874,107.03292193801025,114.26808601231461,85.19287663484803,53.04248957885734,53.95224796251542,48.598990619885335,34.81719764316825,51.324410566216514,65.06282707422477,43.75138771594625,32.70781874588709,39.66210766912116,22.97307591771753,4.92005710333974,12.45169938113202,-6.2708656929369235,-91.08346522140533,-213.74847771375545,-328.20294555326217,-396.5848619630022,-388.7464749915666,-308.49305573726167,-229.66829914245574,-227.3109750427366,-259.8071047107369,-246.61214296743992,-208.5707459795358,-188.10801505671887,-165.06263841494757,-146.65253738637097,-158.88506922073296,-155.19892796688666,-110.75450177650464,-88.3902049133795,-99.79456602300931,-93.24118920149417,-81.974724380595,-90.40485108073598,-78.89384405620879,-46.933717423244815,-38.4947602504341,-33.58079233294667,-7.676682451981873,1.7868013160823777,-2.3816431085530336,21.674829493987126,47.50135039810511,45.035064238192746,51.13621244834303,67.67761004955948,56.78765004718189,45.57502811373145,63.938878848645814,74.33173890557131,74.00336228961518,99.75045440674518,124.4992480859114,119.92957418868411,122.14684824715125,130.46145912809027,107.77464588126062,83.73091727481028,89.3096643769797,89.34451305290197,83.44119872006542,105.0259410071338,122.27607018672535,109.33747514854065,109.32626015038821,125.73232538180496,119.0312408560207,110.61090144493745,124.2757412634323,122.79557873265142,107.92739966017749,119.65966809360005,130.057637306048,108.4832463734121,93.66790434351157,90.2169016304117,62.37872797352183,38.10667738284002,44.22224870482695,37.972950324044476,14.904656930273607,15.389209402248145,19.099307219784652,3.556811204157369,6.2735070621890765,24.09313179597285,16.538966692650476,10.647267292532682,35.00254025575935,49.794436350631095,47.57345325313442,59.765333987101634,-209.84943820172097,-227.89896455761604,-207.5676155792496,-202.72267573420763,-203.42521265549453,-128.66568941288682,-7.145963637202726,92.12682185333856,181.86990456444485,230.8096493652374,177.3486578041073,96.40065577929329,75.48561479831233,69.30646453681136,52.00339648465594,58.67705017734481,53.44576946133022,8.995622818878967,-10.59945029114975,-1.7989283449143745,-26.648110696734907,-56.13551380349735,-51.128420552761526,-63.03281075416132,-93.75640565862865,-88.29269542437925,-79.68273325421954,-102.27045388576272,-101.26270587740952,-82.16963930967015,-108.19122881863457,-140.65805971767907,-133.3806663651573,-138.44436156499012,-157.83160494769643,-139.94910783345182,-127.56147783969092,-158.27058387831883,-170.19243202063052,-159.44684291016551,-184.43405251924068,-210.03877020157051,-194.52863378629607,-186.57650227666852,-185.00186170478864,-143.47829776127324,-113.89808389746163,-143.48178343118138,-173.06047063469157,-184.53375085160607,-216.4637791636294,-226.13593709566092,-180.08103247575167,-148.0780314002838,-145.43352011960806,-117.75983361305256,-94.72591205639038,-109.48730742352586,-104.70470944633766,-80.18226812769731,-96.92816678082734,-119.52705863672516,-104.06544996739231,-106.24988817256718,-134.26026981163065,-132.85314679686482,-132.15759807063228,-164.60855516094406,-170.18634234560673,-145.7879197724746,-153.339550044421,-162.5468047881378,-134.74174714127878,-126.66389043239596,-141.46502768685917,-122.71636897390317,-110.50291856107589,-140.28659146067812,-142.62984551692352,-108.26633219037683,-95.24509972782617,-77.2671925202213,-34.249452016164554,-32.31524973551511,-63.56102355453266,-53.47182561060522,-28.943554697391995,-32.915352607417944,-17.989368207994907,13.92613384525243,5.648902702393313,-5.286014321832466,20.33675729554904,21.761847658724243,-3.1498169370775813,12.071197685496772,37.61246298521705,30.787692564767752,35.051440831353176,37.81978895559686,-12.874311815836617,-57.58449918968531,-44.175059964453766,-29.52623504396956,-22.388471317618748,17.79858550954045,43.68710386005161,3.824781452976353,-75.06450395896977,-157.83289547172353,-216.2381535889234,-217.31959300743466,-143.7056392482343,-36.84504556664391,2.3305367922951015,-42.36945847720872,-70.71745304502724,-57.42727747428207,-52.56153558455807,-27.96641494052014,29.430941455375894,44.7136422574699,29.374207738980584,59.70041203700683,93.27675348557322,80.21411837080471,85.6160530884959,119.1588079808686,111.68625392952714,92.51100313867185,111.84882611563796,118.1591020902473,104.5029115233053,129.3002771724138,155.9337293248185,138.55941563676743,135.56502832197057,154.81417784603937,136.91128347610876,121.51348072718233,153.4893547447103,167.9684887328542,156.15490855921598,178.50070564977023,196.67660380895296,170.43875974086558,165.83964571885954,190.67292450862448,184.3569077261623,182.90569584279277,223.16967981458407,236.4242963782688,214.33474711280044,223.00502892947304,234.9661099145671,212.87120500657448,215.7240489165329,242.18293322404517,222.20503190686344,193.18078555429102,208.23042961141977,209.50323560807075,186.84444603580653,201.1963935080198,216.22099009558633,187.9021922895404,181.55200885033454,205.43742015383773,189.44274057705104,165.49708937737773,185.34780368301605,194.80426694164666,183.47721556926996,201.37230035805024,201.86007911712133,147.35519742937723,121.82277153250203,148.15622004759544,153.31399625240613,147.83323227976575,163.58086460265244,149.12291712444323,120.6518010530747,153.04587590940525,192.6746262911468,172.2863163307088,157.32472075567443,172.723781564586,160.46496630653982,151.42091700276993,183.82155422600286,187.6392139238334,158.0737909798097,178.30910427733235,227.10988099312175,252.68291904224992,301.78270243703935,365.5078137636946,355.0041735552903,292.94420298161367,242.17926751195017,167.15741552884518,87.44292794720239,97.31409004721135,160.82894563838946,191.54333430385088,210.9922117943237,207.69285583619464,124.53804611077739,42.609759922867084,47.29566220316007,59.05917809334086,38.11705197211172,49.741121682756784,66.57940717252464,45.111890884365096,53.74731190674571,87.04073701337731,51.76430933893765,-6.857426096809377,-9.365809763898294,-18.424905701585875,-53.112441400069784,-41.31777926845998,-25.59780094779068,-62.517332916575256,-73.11680139244461,-50.04821026897383,-86.98338935095653,-141.48791964868218,-138.98110601659872,-145.47293160044927,-171.24305815660674,-140.44115957069585,-111.09397364288546,-148.8858090556214,-159.50226398117317,-118.53795262549818,-120.98738902714688,-135.86962869927746,-102.14431893792438,-96.98960946794506,-126.94134338627273,-101.43982324622556,-72.63722709732097,-112.16012746095764,-133.47016458481187,-114.08485757813986,-143.5951482967803,-183.67860754887045,-166.01983250993146,-162.9581159438516,-183.21100098763017,-140.3030210041219,-91.716943549066,-120.16546987822286,-145.0467034805997,-136.25914278384133,-170.11019395952795,-198.69446160059744,-157.7834819612298,-138.24616105824373,-161.56185351735044,-135.95951145171313,-104.5114636172612,-135.27429308211552,-142.15738161437056,-107.59583969284697,-126.65633631649985,-156.53910760989007,-124.80485780244524,-112.19274638504324,-135.0786427904502,-103.7340838591716,-66.83621036623134,-97.68832096885187,-111.51550480921867,-85.3219229519078,-108.40869004027616,-139.07015600915219,-109.84519195017072,-105.2422500424315,-141.06356531986893,-121.16967945550037,-86.4142348810438,-107.02514015627396,-102.79000995766845,-60.57641647958694,-75.92716939913028,-104.1773858640478,-69.81744737090256,-52.890020108014376,-75.31714440353598,-51.716713853324734,-24.783698601697647,-60.00868948076928,-74.61653850312709,-50.4555635993122,-76.80795369944369,-111.82562219482304,-84.08904354297681,-68.58371359779633,-83.33472487027186,-45.98668106546755,-3.2000812131328296,-24.8221243871586,-30.688669712868588,-1.9160580097665854,-27.32148627307582,-61.3747696767074,-28.10150016899545,-8.019745146249175,-28.799187060138742,-11.20159295783639,2.014870035503646,-46.77881127149253,-62.169058968790914,-18.70767248801378,-13.302510863876336,-22.224369368850095,11.696005968383723,12.723887715478853,-24.455108849138348,-0.8095017654902623,45.59693766454142,39.584812629066136,35.44648160530095,35.97266574821921,1.8289236771259425,14.0191365767392,88.930451069984,124.35681878951196,120.2798823314059,106.30660817255497,49.95043906272057,10.45018148333362,48.552022324498246,73.86178885933275,54.31797140179998,72.78597863252841,97.46571023259781,70.0673729319546,67.70745476347635,95.823934028616,56.59005857141467,-0.22972413644130185,10.870508778452159,16.73009130966374,-2.80058357090312,34.465217214977486,72.33466522589333,31.98127209152441,4.025963783774868,25.07935224546263,8.907039727553293,-11.26018825573725,27.439791782960597,41.0590587878913,11.064758020077205,31.140287079899927,60.38130382888335,24.99561203477559,6.237049629576778,29.025583502333866,3.2523182855629784,-32.55353902350537,-5.726239908936154,3.6438402267640613,-27.102272345063675,-7.516915987036143,21.596624516204738,-10.231186837167527,-15.898559229914156,27.933513087483934,21.895922534958245,0.22723944879765412,34.177796809812406,39.8075487364399,-0.9693359132852954,14.13672012782388,43.74735625945514,4.369212221297662,-21.657020981855382,-3.1553855920233715,-29.741227867704758,-58.606609296804166,-13.711187825765704,15.001413137202166,-5.960570653391045,15.703231906829897,44.14778633182776,3.876065791241892,-23.320774414938708,-5.816319275210345,-30.490095499349348,-53.501860132815544,40.997006665841084,234.00195216411024,434.89698647182723,576.3387358388794,