73.42257782796779,65.88374900801007,91.0255800745866,69.59112339335582,41.21753602903247,66.35813772055833,69.7705574140193,35.68063503260324,48.05078390652068,73.07996545354438,51.20627160081935,54.77768096748428,96.1532824983645,88.02661877536636,63.514318218377596,85.40358407814121,85.29645594656671,52.61607478226106,72.02616800790717,103.83544448087815,82.3667040216877,80.9844810287806,116.51272431141543,104.53656034559111,78.94527277676237,100.30407963289409,97.08998367089778,58.60463445937965,72.46975768877923,102.17497483485768,80.67456638402498,76.61544462235088,106.19988082682147,87.78180427569907,57.487438149509615,78.23839224210418,77.65349646542077,39.891368759903266,50.41622777016447,76.46436464691266,56.35011742167123,59.98358835823311,98.22782316824373,83.49601246000262,52.315008410985875,73.21234237607132,79.47095903928965,56.918055094350834,86.53397995184672,125.79835640499005,105.9804802604863,100.62210706453523,130.01709276691489,112.58462756526353,84.95506559531887,110.2703801760915,114.8972232302796,83.42019668164367,102.8553984713654,138.17503839368652,122.1448302936299,122.86714887015475,155.3287358431222,137.29285049621035,108.16585924181109,135.24942313494978,145.73086018263177,119.12201006197935,137.81988717952044,166.79605776657175,141.5891438418801,135.92106436149462,169.07223699727865,155.15717662998037,126.80073102600622,148.82696100989392,149.44180581507442,112.15475128804108,125.4983562103312,156.82635114147482,137.42027504222762,135.0371096316752,168.08796955898828,153.76753001913266,126.80711725856051,153.5676585568417,160.86646524667808,125.27153716314237,131.77480204885234,153.27168479293925,127.31515269263207,123.43825683668643,158.3225600190535,143.29859523726338,107.88918700219588,121.34457881808825,119.1865833731466,84.17220808315669,100.79438595482645,135.06311628157215,115.75913634730375,110.12386448076977,140.47260676316728,123.76632217813275,90.66005485471658,108.16396753856722,106.94630562070218,65.79347201171835,71.18352348394895,95.30655634281824,70.36091688887805,61.702146297743916,88.7450748845854,67.14871913469081,26.71913226079339,36.66640850483503,33.42760642985578,-2.652593195908901,10.667640038526171,41.72715453212994,19.7849473417209,8.67178673559976,30.33630707366025,3.9177432127649023,-38.66949179206467,-27.070347686762453,-26.46425110491703,-59.085946580634605,-43.57644351028378,-13.143797227758457,-39.12313054928835,-54.005126679960725,-31.733777982420563,-52.23002690344095,-85.53978098216037,-65.2549669315564,-60.43734646009513,-95.0540165695745,-84.9100637791152,-57.11327939972995,-81.11014129083145,-92.75335662533755,-68.97996416850228,-91.87723589109588,-132.5269317563691,-120.98015482387711,-120.23530149038652,-152.17696768969546,-135.91671601651458,-102.73935234582945,-124.13069793043456,-135.78192107006168,-111.77912271128767,-130.11920650378772,-160.3316022705812,-136.01087143111846,-127.70037967658791,-161.4555473714826,-152.57146336240152,-125.40262055333704,-145.4195312205451,-145.89662983425993,-107.0949978629875,-118.12387130290531,-152.22205131064493,-136.0074595113796,-131.27211165198287,-160.46754912191838,-140.9356358767488,-103.65471191448744,-120.980331679524,-126.27019816141114,-92.68005606920403,-103.06083737259188,-130.62556483731117,-105.8576502274761,-95.1622063972517,-124.0543192573395,-108.00428093223536,-73.0651072502053,-89.1834732557168,-89.42556274972634,-48.06128075772759,-52.500482566965,-79.78641096607723,-58.95714685629903,-52.589664550167846,-83.02780790482598,-63.053581474001966,-19.221223076156125,-28.2057309496874,-30.07041305753537,1.5067775353570845,-15.3513416885903,-52.39769353445197,-33.57036610258288,-19.58928655217807,-38.24898841110832,-10.557850542186294,32.956019907725185,17.11644143596843,7.3077000921995,36.860229598594,26.92177258081358,1.6442079412477248,29.635004816143912,44.013808479780955,15.700291311316965,29.50519166237638,62.747707469191816,43.117612190545614,34.46163916587257,66.89478023915206,56.929407214152214,25.482653001783,42.90046696152088,45.74894875155524,6.828875967320455,14.058511461254538,47.187133324673425,31.071320600149527,24.760530946426215,55.9371128735475,41.787900468571834,7.826069688488394,30.18234169654557,47.113417199554476,26.44014544289767,46.46649685095645,80.81792039344228,56.06207316600808,36.854817878637675,58.145180288919335,41.7813535748392,9.572092036550504,31.70556588951555,45.14403915628301,18.067313739264627,31.32922085489662,64.16789790872963,44.425178061190664,32.56068564466047,60.27815639658934,47.150059937003505,12.810371274849087,28.43254221899458,34.17145149718263,1.7240156544520495,15.586186274495297,55.008111542426285,42.54313271605189,32.3353334143528,53.59300718194217,30.088999998797206,-9.582009950203922,11.56178486832022,28.627012329437996,0.9419576764228097,6.575415359934016,29.5413191562769,2.8264438335892876,-9.783732964580292,21.828033920234137,10.966911138800183,-24.60511542489809,-8.937931206043636,0.6073806829821873,-28.060474522334005,-15.67635100878731,14.924393936674338,-9.971309451832553,-26.69206485683345,0.5276777122250973,-9.824913832763201,-40.54407193683249,-20.668476693738704,-12.102974174754506,-46.95468293360767,-40.415930985171016,-9.78971050169661,-29.725549248099288,-41.378532838400815,-12.545643212801224,-26.916245791795205,-66.27192369305077,-53.820524792325195,-46.32121544873329,-75.76493019601989,-60.43120008431261,-22.147356716623026,-39.099371919368544,-52.01449760139467,-25.69516906587633,-40.090674545264136,-73.5260778456888,-49.27352932488202,-28.858684047933885,-50.26761821514461,-33.97414556343295,1.3535209172712044,-17.61496590663788,-28.316229638912716,4.449020890745581,-5.3523037003112,-43.56140219238487,-31.670977080899082,-22.051535557184618,-47.57821483812372,-29.656931944550344,9.58463364593534,-8.371949690294771,-22.71941692520947,7.689012595131219,3.5428629159651663,-21.384629475748447,4.802971440704612,22.497319641508987,-3.4865006261765945,9.775427015110925,46.582425108872854,30.89251405354804,20.876284885229058,52.66144905575652,43.06528295431602,6.866212255087335,21.599189020494364,32.466170783300036,4.990879716268578,20.559463550139025,61.61639650326102,48.98414525524762,37.18064845911753,63.101655106345945,48.777767868042474,12.715048285782972,33.24791106210954,53.047941783089776,30.86204613044174,43.529451553158054,75.30667959515907,51.6724443996655,32.79235179314035,58.869289948986975,48.45950887267145,13.529839347839292,29.013509406694986,38.318150419797405,4.567022589950332,11.313728559857157,47.1349484486712,34.678665319024105,26.758970040305947,59.082130671536206,49.70411434172759,12.308615563221222,26.13515547306085,37.960741398127546,9.972550143712732,22.458266425260884,60.1271748835112,43.05114786511245,25.919978601406818,49.41570766875042,35.733574212086964,0.15271390519699501,19.658686693586496,35.902564902073735,7.271966243638827,14.843553572677374,47.85891600283149,29.320252349976467,13.46615351615736,39.8241223092609,28.0043024688811,-9.07959517602849,8.13456542582947,24.81505698400517,-1.5344136452202566,8.027151448576106,41.16632806218996,19.924733931326724,0.3713719041678054,25.149344621398264,15.161909334583934,-18.377293887464923,0.36530797569752593,14.209117800446563,-18.582339020986858,-15.718493132958756,14.811352852932275,-3.87221814032047,-19.87750245580456,4.039819107806604,-13.010621507882242,-56.040922900343595,-41.82363036736531,-22.966503793086584,-44.356077720529235,-31.75484204577608,0.5616532434936676,-23.91016812618399,-45.833786936514095,-20.10639699688285,-27.411524018261428,-59.83586059732416,-41.254786434710894,-25.732539719096685,-53.481520948998224,-43.23267626253294,-6.510698718642232,-25.244087755233572,-47.01265839229849,-26.82813964230979,-40.95947993446843,-76.86583140470556,-55.79351037767657,-34.74909982974417,-59.56510011924249,-50.59650822228874,-16.72826787312825,-35.267600636970755,-50.396691276905585,-18.420512590906586,-20.530903528333557,-49.41831381488079,-28.46777215242866,-12.63035799570477,-44.16725459615334,-39.53047306494102,-4.3329070859001995,-17.11458724797084,-26.690079864428505,7.530128573915178,3.1350083404645623,-30.864248379765517,-12.587300770291218,5.744735102089033,-21.454934917049048,-15.686757740536404,15.281119918951266,-5.531062624273453,-22.70493662628478,9.113815037813303,8.158592591770628,-21.871153436920828,-3.3042047669168912,13.366472724496447,-14.170230621723823,-4.7112360189550735,34.86820442296001,21.888606277778784,3.6487487774511465,25.31753956146384,12.939165566444649,-21.499806732473616,2.871739632360157,30.81216083710098,9.860300070759495,14.705568915263427,41.51496237540654,16.624091950681755,-4.511075474946691,24.70235558326999,22.990398565218882,-7.0814034533925145,12.63591889520028,32.3075662388622,6.920861779374041,14.719261548948428,50.96114548866173,36.73197654151119,20.421118756313945,47.78602242042797,42.194565126631886,8.104143000483251,24.42554272604706,43.30658421732467,19.11898157203874,27.870946330787767,63.5303992724601,46.65803034623197,26.164139041449197,48.876348255644515,39.7154595318342,4.510944509327999,20.84321367439664,38.212933777265604,10.344486451445995,14.744351573480017,46.7101171909435,26.04007297739278,1.078276131800953,20.063851650067768,9.386260365945613,-23.426668341483353,0.23424500513543833,26.20927621650199,2.5590259716135364,5.615057663277792,34.1462338872199,13.331297208967197,-5.47874516025086,22.310608351338285,16.198117036827185,-19.959316981431915,-6.027213404011475,9.433655021604507,-19.875380109897492,-16.38949959654724,15.328945629261051,-4.975392664559282,-28.412865055524012,-7.048478715476808,-18.227207392490797,-57.0485780516909,-40.212586467363344,-15.949586204068948,-36.40820436009906,-27.48996675773487,6.862422326876436,-14.28303098860674,-40.98928250807173,-20.430439954143065,-27.487431654869525,-59.86471911824246,-38.697374920788306,-16.008601737450185,-44.42762270084832,-45.72225568028149,-18.041461879353477,-38.59588034524929,-58.54192020590507,-30.686747472863853,-35.62389364172164,-72.02484320245621,-55.65167462040381,-32.03996860588917,-52.77810302773549,-42.12574174899411,-1.9479426854329667,-15.151677456917525,-34.80127172753452,-8.58101267834444,-12.500987224414994,-46.04579154020289,-27.404648657646938,-3.414493234532487,-26.922235109947533,-22.50536366334199,10.305533153043053,-8.81123430264753,-32.01135563331824,-6.1500251080982,-6.933347413966866,-34.83682512384656,-9.078868153875856,22.48369134145303,7.010314355358012,22.159911920367136,70.62756356221328,72.30173942959341,73.33686270133552,124.10510582998305,145.617818051879,132.62479128485876,162.40940270147425,189.4153972245974,163.9853084527328,163.10915150189768,189.0446873629894,161.02385386851665,122.67196984592167,126.32136792866292,100.29117635256475,45.35112480609991,41.69816881417412,44.703133479011484,3.923810688685929,-5.062586163234018,17.8518247097798,-10.818864397003797,-47.68786657822726,-38.3566565158481,-54.000596562877114,-94.95666092234696,-82.64319663585242,-65.21279338654308,-96.90629947586777,-102.11458555247856,-77.16426901800654,-102.35345819126697,-133.1026585996478,-114.99598512467243,-120.74176417516333,-152.56414236150565,-131.4676758447626,-104.64924449269043,-126.19820021676945,-119.75968469117619,-81.51578761826163,-92.48842874611229,-108.45255922357978,-76.81003996227625,-73.77663288507519,-102.18066434687105,-79.21091555756925,-48.89055730837009,-66.41216273088844,-57.61385262854074,-18.907027097552643,-31.93932938026994,-53.47541012001334,-29.65213817720462,-35.3560681557158,-73.34670830338287,-58.86814678757975,-32.62707534935895,-49.30528871318024,-37.49632580894917,3.7300773151099396,-7.440437733271878,-26.549339837162442,1.020639391396557,0.5691410461515423,-31.342238775853428,-11.835473324865058,16.662812274706045,-0.8581631117373565,7.711554143676083,43.81457873357681,25.584000052242146,-0.9137876739797726,22.934521307157798,23.64613965989827,-6.475012389138236,12.356444061843138,38.27148045225458,16.40447080549957,21.0889798527376,56.89720800356673,39.3649191090626,10.908442449673583,31.390616187792446,30.548453486185704,2.7299292417982635,25.82204537075679,53.13852039913756,27.27261235610494,23.422304416451986,51.467816180915754,33.564910679312504,11.182325531263407,37.524820367339885,37.36642959091018,4.288362803724466,21.290155642875973,48.33282907723705,28.808740131315734,34.14060212465167,69.57610497265009,52.97029225963363,25.35596286431783,44.6231667568446,40.79381091315493,9.588381214166017,32.66793290121948,64.94261280716024,43.83123584933106,40.37286575491011,65.49140981328705,42.83706019129401,15.852192566577456,40.6243171922446,41.80394183667026,10.541502120286207,28.7511245738212,54.68380569364554,29.07050545556681,25.531413526265002,55.212378851883,38.7174181233996,16.39016817129972,43.433807968896595,44.23819918589136,9.989321242309662,25.3785282502305,53.07796470953737,34.19904427854391,37.87366569042542,70.3624637169685,49.284032470486586,15.815864415869228,31.34230550257366,27.131046973171507,-5.068416279048018,13.795974701165521,40.98438409093131,16.590443344378986,12.445955066507366,39.926899129629916,22.094377384363163,1.111629058610851,32.878123632914054,40.54346792558042,10.948693148948973,24.55276605191691,44.04479393143746,15.096687106649279,12.951060350796363,46.991574740384834,32.7497683639771,6.4267138558296075,25.081615213948197,17.959627590701203,-21.599785698066064,-8.979642673892517,17.795629423047554,-1.7975574092748676,1.0821335872548765,35.16222090449296,19.630517464068404,-6.205705678256735,15.991272660193685,14.503144990369597,-20.849447742235306,-7.877511466290028,16.611786096442962,-6.13593455196599,-6.0111642870222814,27.306137783632018,11.981698869502685,-15.103054029822115,4.853431268183915,1.8402674349661012,-33.63596332452323,-19.33858101330506,6.815176124704165,-15.53819131545336,-16.05531519136096,17.45209362200844,4.189964732968553,-19.408906488373088,4.273786355220013,3.72659395795138,-30.34069525200694,-14.005093354219444,13.799787155792586,-10.345374368378048,-17.02600625466707,8.000684605196032,-12.692226427793845,-40.70075364904724,-18.407076759499912,-18.488715193771625,-52.51884962272553,-36.609475098843276,-6.600457656043968,-25.440361679976046,-26.63627857247,1.5279983257278769,-19.396864017479615,-49.33954192039243,-26.778449212792044,-22.7416032029814,-51.59373343938006,-33.29594804165647,-5.045826443560442,-27.68291283756507,-29.998277709191264,2.7588183731526783,-10.782541079216845,-36.372385939253206,-14.906242521242316,-15.911276257278557,-50.468150554546966,-34.47348073280868,-3.710782550235427,-22.78004101075631,-24.776406848386145,4.683932823760028,-14.29606161493711,-44.95382402160864,-24.515705601151943,-22.034752362293148,-52.600041650836054,-35.70657717999823,-7.3031865891159615,-30.113560418857166,-34.72973386077963,-5.147568680437379,-21.77880728729813,-48.82016665885023,-24.49669644074048,-19.418000591681533,-48.66277523454477,-30.92789164967656,-2.2316596257393506,-24.03692904848424,-25.83111768390838,6.246801106143042,-10.644944970879003,-40.651287855024535,-20.06432622304522,-17.508002333612794,-48.32978052485695,-32.213151357604445,-4.871477214706102,-27.89373287197378,-30.74142801999446,2.554901794399207,-9.833307213056667,-35.12017374377067,-13.04381585083759,-12.65565080960444,-47.39568854471479,-32.81355871627841,-0.7865606597135706,-14.786872739049258,-10.592154298848987,23.5461128690676,5.81435449480869,-26.97425090144212,-8.674379503262083,-6.603177963253186,-37.96010408718298,-22.993661061266486,4.286397713060361,-17.600373422586287,-19.069507986181883,16.43557227977286,7.132483399381627,-15.714108015806552,7.746363576289852,9.380484944625998,-24.472195180594866,-11.38373930673099,15.498889886463363,-5.932433672931191,-8.025167302324089,25.17364400085249,13.246408812063382,-11.195058949269274,12.201861852895648,13.936884230630213,-21.501620044811272,-11.121768183975032,13.306269979924835,-8.802802811253637,-7.454841143930268,32.50229126970517,25.454071194564108,0.3823283065059542,19.463614412311024,17.25008296760119,-18.832831584572947,-3.8178269296243865,28.280475330630722,9.099642752945659,4.513748783650282,33.55504940708756,16.79425634857042,-12.089293192174559,9.886637683763682,13.245458987176807,-20.10630560309778,-7.46999143476193,20.322697522773424,-0.6910829391085702,-4.206069081464531,27.462544858798278,14.630298982288707,-9.225601720394646,18.624706589629703,27.51616003188456,-3.0912024614833253,8.556529348400959,32.82246172715952,8.162668779782141,3.9458845139760523,37.73088621749469,24.526794586340106,-6.052794109912671,11.379149124305453,11.352426974355202,-22.971292765216234,-8.513048943288673,22.98036602750983,4.792373501355442,2.0317005726039303,33.773116359231906,19.817549857934505,-8.600757760321795,13.186797097615921,18.950339886846095,-10.779088561463453,4.0657277684701825,31.987429628828107,9.141366279971075,3.0480547025874802,33.157218819088996,18.88050681532812,-9.10597107528897,11.753146133183897,13.451487991848584,-21.245209180222712,-7.1303352687667125,26.835870797811584,13.471592537739149,14.652452254037199,46.72964946038948,28.667155189906964,-6.259718158823556,10.125904616060799,12.654369230400475,-18.077674061415486,0.37632405024214854,36.90618565271259,22.549534027901863,19.16377575549378,44.64216074610445,21.12544502001235,-14.900779060835301,4.45457421864341,11.490027599477962,-16.20338292386475,0.866692660825974,32.41160283633739,13.644134494491515,10.033154909599183,41.26747008943464,26.242845292915536,-6.0867365061618735,8.698310361274668,5.912584343023847,-31.620174031870764,-20.33743195335149,9.963289061206662,-7.03500079661606,-6.29499991297756,30.787464470993015,21.219666302927372,-6.05698200199055,12.725910627898331,10.309206773134164,-29.83856962193953,-20.402447310700055,9.536575591924425,-8.383190068025568,-9.29708145153328,26.537591937365868,15.536540286826973,-13.622280052595523,6.131212497576399,9.797445438299782,-22.923054250813113,-8.823717566478061,23.203866206533018,4.4189449558207965,-1.5915872198943326,27.54718871574881,11.707702972225851,-20.01599530267503,-0.052113125295187857,6.576913936741591,-23.892653183952216,-10.879690023298824,18.13746998902412,-2.925465762180071,-8.40375526331685,24.545615852781395,13.326558814603759,-16.321231437187652,2.089408448536336,5.0564988222576055,-28.78787039071213,-17.64432817046671,10.82731327666766,-9.755059283453111,-14.064539719694086,19.789062753441275,8.531186844767763,-21.664181122476,-3.546886346768657,0.19587879656313456,-31.001227448332568,-15.53823529101126,16.891275843021912,-3.560533879597317,-12.44661317162094,16.437453429147745,4.126592137906063,-23.115394973509154,-0.15283429256152026,7.289460679180372,-23.599237465223524,-9.395112750313887,23.9029326361839,7.045023070789261,1.4544018156793723,30.02896764252404,13.399446826636908,-19.842005750415495,-1.8532853041990087,2.6484619547603003,-29.74197042700754,-16.101582916368713,17.03472714715588,-0.2822597054578644,-6.465895192820753,21.647249967692957,4.440442781036424,-28.9457903454235,-9.01793415588032,-0.22644255962182058,-28.670619495646122,-13.53284028815243,18.973181283733325,-0.9788197234796563,-10.177175860182077,17.89734339041962,3.2661437520795094,-27.62821973273836,-6.2909340957595585,1.5728554463202304,-31.01825948107162,-20.981720157785354,9.029665512035715,-9.016193883998557,-13.286065334701203,18.910599993547883,4.659185122885512,-29.137330813129253,-10.526367058426885,-0.919806392965443,-26.940766484603643,-11.223676722017554,18.582560121177956,-4.249146452661483,-13.305071143137036,18.33254206516288,8.633086051988588,-20.831000887794886,-4.377431062485821,-2.530323347592313,-35.07134455313342,-18.34458542737756,20.30513901475752,7.601510603113894,2.4076845043096786,29.04285002064433,9.98547159620382,-24.264259462957398,-3.4891211116609426,6.890705970361571,-21.012611612815768,-7.086319557924931,23.8124593311668,4.503030885975408,-1.1277355580932844,30.769260864404913,16.39145209677656,-19.530397173880083,-5.065857359207774,-0.06344586193855728,-29.876311522588995,-14.509862596119168,19.136559288816265,0.29084500172680094,-7.555342497046254,23.254728076083502,11.410148342252317,-19.63910400213467,-0.6536546501251657,6.423734927228018,-24.695513307440276,-12.641283009713566,19.28515274528112,1.487413820715764,-4.987177086993892,26.18242294994085,13.439354482361827,-19.50806484956449,-0.28297457091623635,10.863402892603604,-15.29363692352427,-0.8033476265028128,28.64325064722761,4.438400702411942,-6.260633564260196,26.410188688962435,18.448082393078263,-10.15321687048531,8.722461284870564,13.017336266807078,-21.586193325723546,-10.289732961169062,23.349806527706253,6.388546192288018,-1.1769393795061875,27.11752734719415,9.766556040005945,-27.43402007883741,-10.3675381833661,0.7948791947878835,-23.142054364401677,-4.956575462907612,28.566709291688934,6.67766164127822,-7.375145558402936,16.613135419949426,0.6144601717543221,-31.06966372819856,-9.267674472361971,2.522584606998015,-25.502162355597974,-13.06690100700076,17.378636216580787,-4.079246560949077,-14.700944248230176,14.905254994994607,3.3298371154405437,-26.575769354659837,-3.469134201811009,9.82058171231649,-17.407528268737494,-4.927611349739868,25.308782667204117,3.6523886064242017,-7.639219800003179,21.524335629955637,10.965453095423722,-18.648960885467087,1.955049368051112,11.776227500905172,-17.740969675603523,-5.072501223979501,27.974745348098004,9.023038384870565,-2.4406230913689972,23.06385585207,6.443224862465126,-28.12427849873887,-7.990887792095611,4.483958275605467,-23.689539710680492,-12.789893349756573,16.676681644938053,-6.020586671898272,-18.260617298677456,12.356783116076837,3.4858972317922046,-27.53940786185125,-10.064511597460806,-2.443957126660653,-32.66742098340967,-18.218096543625833,20.342881493118036,8.37954662816938,1.8383513308129389,29.738171621258775,13.579562910813527,-22.62968084450689,-4.855499193955501,7.070704365568982,-19.782975587997598,-8.454496002234587,19.137135307593194,-5.781228687726623,-18.62012851121306,13.364748300315922,7.655925205936292,-19.80544155460054,0.42729053821628327,10.364989097323685,-19.130545519876442,-7.455278079000049,25.95099289415717,9.070993919803831,0.49738763685967774,31.66123630575462,22.403860710761364,-9.03197522652707,8.150353660296057,16.368935326509327,-13.446470221876334,-1.4063514542872149,32.36904702321239,16.509365979256433,8.994477670771774,39.28195389956719,26.836445488891684,-8.381703358181198,7.413258416283927,18.01699350604191,-7.7241313866521,6.659895801777067,37.58224862652493,11.97128021565402,-7.8322282218887675,15.784323433630826,6.0926997142707275,-19.44886619288973,7.1125596282567844,22.421466510787347,-8.35487317187686,-3.7119933900182005,21.974412136035404,-0.14949683491899002,-10.412176244158776,22.757359872223454,16.761910682254015,-13.58597870039236,3.180735045155984,11.974939737183604,-16.821367960864148,-3.359820704327179,33.327014826414484,18.66688817078451,6.943229762154291,29.859896076517234,11.342724477853587,-26.311171724287615,-8.22396363806516,7.956801581927274,-13.74307892698838,0.6064682223265603,29.847433503324467,3.3638969853081093,-16.22468154023996,8.31754349302075,-1.904062102060168,-31.909874783241687,-11.47071513866886,0.9440304879450558,-27.61137553679996,-16.4717781257999,17.17515704529991,-0.31986518583265067,-11.522444047835993,17.698504633380384,7.404051548162837,-25.976274047101022,-8.657034583568327,3.6243887065085003,-22.83337708567014,-11.123345398022638,19.004159851693757,-4.609689214027492,-20.986996838632173,7.386981531848825,1.5439093866244455,-26.649050304497372,-10.15000651212559,-5.76754845258548,-41.17214756512026,-31.159223404201597,8.299462587171607,-0.08087657379681623,-5.006241608351092,24.77220032544239,11.54313623256517,-24.924749270493102,-9.713960158381667,1.0747493869976033,-26.71160798116516,-14.495506782186629,20.13275441158409,1.616822027518845,-14.723554310686142,7.828137964351267,-6.309056550387384,-38.760943850253454,-16.0946110454557,2.2841083508539692,-22.88612027364602,-13.953524930937089,16.395855231430815,-2.4629871766187055,-14.269719176206818,15.675297190013707,7.20416111541093,-26.217687601753436,-10.736385190573577,-0.29042082069918407,-29.322471044728733,-19.1877260439202,15.198619763891806,-0.08096391352799337,-12.199967498611501,12.090674882256181,-3.60502271835826,-40.20748662961562,-22.294898785089224,-6.261302341719132,-30.245955384131534,-18.21409049496028,14.369958439978186,-4.372961933061273,-17.02992130677263,11.598529808247449,1.207595726672963,-32.79523610083747,-15.365175949252963,-2.7037111907486056,-30.298746055684017,-17.92628659914631,18.276516728501363,2.2282583205051587,-10.903500122344692,14.649009177439021,0.7317100742914349,-35.04753814359933,-16.25084058456906,0.24554622745751375,-24.780521872047373,-13.411835056428691,20.272355340231222,1.6655236606755501,-13.46099626174315,13.603361885674012,4.674715996882295,-27.216737711292577,-7.416986983487076,8.418627664730025,-18.08598384935758,-6.5795852676516,31.07011446992767,18.758211085406078,9.406512925388675,40.73687756144815,36.80530383247033,14.134334966318889,48.75839293927137,83.75534979557379,77.23407478755585,106.07297375908018,157.0218248182825,152.73635463900717,144.7364361680398,170.0762994675847,151.75026669105202,105.78969676029745,108.88634154576691,105.27082285402429,55.483024861954306,39.491393685648774,48.60449030167423,11.703969973515942,-16.745161293709057,-1.4330228482302747,-23.313702312323223,-71.18065678949078,-69.80606565659514,-70.66157722231486,-108.92726756725018,-105.69524197001701,-75.38295525162121,-96.1943781350061,-115.97185824990267,-93.8305463110799,-104.09710374793255,-134.3142831070409,-112.47145282824079,-96.04700482354497,-125.12566057927161,-118.53036050650039,-83.91329251873594,-95.88039188257858,-104.09094935337123,-73.28643134887051,-81.86202502848379,-114.86643621778612,-93.53309159467636,-70.27158609117738,-86.93700963576612,-69.88740681657796,-31.719620020927373,-45.013618782061094,-53.23693387559992,-16.251668342203054,-14.379288672669494,-39.45914322269403,-17.21237454381519,-0.07717441055478025,-26.099836136994572,-16.570758412453763,17.077363757794807,-0.4316384805168543,-15.216587594020918,12.832438637922147,6.037668342304512,-25.087521140895646,-5.153978284762223,13.714547998484306,-8.15851436613046,6.439888288286822,45.92018169120451,32.72063466092867,18.41339271323419,44.47568436936846,35.263461783902635,3.178587042494195,25.460415457101064,47.76278187068452,25.31895078839922,33.516728307765,63.13371524440954,40.51085091733143,20.821525531605573,46.999031048534775,41.48646232247792,12.492205673864834,34.44148483108361,53.71035322523987,28.0373891094285,35.12080079928205,66.86614537572582,48.445054204345254,31.856215379771594,57.675469323712086,49.45889256032364,18.60247183069503,41.02656999058165,61.51953466253714,34.52938478588749,35.98858425456491,59.52037809074929,33.78033639839038,15.009194757440259,46.053011544304795,45.93706188179297,18.888657323059554,38.38817595902066,51.75561729694614,19.468606679516682,23.37455593021254,57.18210197977487,43.20988624217464,29.81537326868896,56.99124715842933,47.26407121860609,10.175519614525964,24.24835034769884,38.92628753927538,10.906640192234008,17.47746113507577,50.37730400257652,30.598819105630042,8.549602278021318,29.011051473753007,16.46499472235258,-19.51292568275143,-0.40255464616689274,20.81331269472079,-3.0691652951367736,4.5147215970516115,38.31229657963178,22.054157150682514,6.449340104241647,35.082852741382155,29.821931176565936,-3.3292103655918055,12.83743649026509,27.69871080429034,-2.529703583599943,0.21951296747828142,31.053237146250954,14.106733034287181,-1.9239786400644245,23.895044471819293,14.771420967985065,-20.698141822815487,-5.2039723154676345,9.419878353152084,-21.772547453232377,-20.321083960618118,10.69833313396014,-3.633820069292149,-14.49379571368905,16.59786768337443,7.4308385085445305,-33.41257308667729,-20.737281088538218,-0.316464831231575,-18.55601314758114,-4.408424118879317,29.730999535558833,5.751480128572334,-19.677442897157285,4.647201792238006,1.6329879939873457,-28.67840011013801,-13.63911063834832,-2.570527799995504,-36.50351425459578,-35.02141232159133,-1.6957893562384623,-15.532131505879494,-30.239448071183173,-1.2223684104170136,-4.221618831092089,-35.39124097281102,-17.964819990244703,0.8493953315460576,-22.795551061743105,-13.928445800328772,20.674425407472377,3.0508498948298772,-17.05955168850866,7.9625861517586785,3.6505619287108404,-27.232668734301054,-11.052433056002661,2.2378216753794327,-30.51847636734918,-29.851783317001722,1.9484332894681557,-12.389232603569559,-26.386657308035076,2.5650597494696292,-3.159181424022467,-38.91430577661283,-25.465847099701875,-9.169369204274766,-34.622150125404794,-26.039711364570564,10.863210147133175,-3.916973777104465,-22.952670838498744,1.213741702512861,-6.5791896681462525,-42.179530338271235,-25.415299158797044,-4.103945608943235,-28.858839516499675,-25.78686735589936,4.033270781906163,-15.166590907905352,-33.9968504561694,-5.216759228312846,-8.32046295920598,-44.023049704814596,-31.20833628118284,-11.44401472627537,-30.504403914081276,-16.414978269685115,22.91495867382939,6.690172322617055,-15.758147041556152,6.807268151219535,0.8603801995396818,-31.485662180809708,-12.677141041766223,9.88475365068777,-13.156545564228498,-9.393409021834293,18.721333123098898,-3.637631378402313,-25.89062082464372,1.3836346029668256,1.1035273764895495,-29.464229607812435,-14.272141189895212,2.36993634204613,-24.326066642573537,-17.9530445897104,18.865251136797333,6.23619202344984,-9.863957525957169,18.33628427657198,14.678765300121443,-19.204649349064038,-2.700191808747869,19.86654215341024,0.2500771239255126,10.909232438708553,45.81247443299556,23.29424101843723,-8.585592720425993,4.523586436292247,-7.260736218267723,-41.66745407339018,-21.21726402452373,6.4723509358324725,-10.77840974547037,-2.0726341296610338,30.75069746064537,9.959849303318137,-16.79759619704537,4.143988946645763,1.5818640518194558,-25.921604372446208,-2.570458699234454,24.688751706322513,3.871248192088201,7.902120483506893,38.913958210703036,21.045297396625685,0.32345253391370044,26.26541282764147,24.22156175046657,-7.2042167061207305,9.00025945648363,27.22143856041363,-2.0644107600990296,-4.756649331616117,20.944812277092474,-0.18062272969729598,-21.597512653256146,5.143082487885092,4.006528820846403,-27.253622820147996,-11.750482933936372,6.440380925142186,-19.413820615846944,-13.541893751328876,24.049534532767318,12.246697974699657,-7.857818166541996,13.335750857108177,5.816027547640044,-27.252414419704174,-6.337434877949013,20.60485003054107,-3.009407476669079,-5.938964205394595,17.133207154157546,-7.218014913771643,-32.192932159171896,-6.935463626548037,-8.384245827906943,-42.03282677038686,-28.044539893430944,-6.7339739287452245,-27.728440532040345,-18.492301488045392,20.121729692264154,5.962942443608168,-17.56674163520979,3.9249327675449095,0.3267381723874987,-29.040090544896312,-6.349337927109966,20.953546836724904,-1.6785521163286603,-0.6568666715252149,28.085811804159793,6.998234759946799,-19.088942495495488,2.974746515911642,0.3975183797185933,-30.703876885053628,-12.503903196225913,11.051146833783815,-13.523698870638325,-12.900321219571012,19.821855433573262,7.676719388216906,-9.003978105703013,19.431763387133344,19.035360796456885,-14.861975171017972,-2.2717092211569216,17.780618551420517,-5.9482468270915785,-2.9878195543920345,28.5330504427643,9.277825166773226,-17.587721721713123,3.518908672274801,3.0243374207174796,-24.226531754650786,-3.09938874383222,21.61799855530328,-3.626659617340213,-5.0074566218283945,24.605934062781863,7.474297252248103,-15.335710184675996,8.729679894930364,7.573208233179531,-24.111396486806246,-8.14677320154686,13.827481057961107,-11.317940451934135,-10.97603520347149,20.32083678301124,3.310513887212263,-20.451857469429836,2.5737636525593786,-0.9737493152451924,-36.56043779562556,-23.07558361725758,-0.14022464292114467,-20.72813585048771,-12.229487544772853,29.281326043680117,20.586957649314666,-0.17872770066094112,20.55864070092916,12.4131784666013,-26.42277787522709,-12.272696013911238,15.163394050161465,-1.0684552821432973,6.122554007468374,39.63986950487027,20.720857952673086,-7.56235812108353,11.872175432634041,8.812620056571614,-24.007536747096474,-7.853335297591113,17.274739320613538,-4.447040255411311,-2.260951710037726,31.28746687592018,16.557130325030005,-6.566244475426342,18.187081259041243,19.481199091830117,-11.68439824428003,3.467912450799764,26.361605870416867,2.870193283371032,4.211717115548113,36.140352442637884,17.74917771654819,-10.0131959597689,10.56239291497282,9.22151831956165,-21.902630422994783,-4.786411830725143,19.27094626557353,-5.491843242118566,-7.027425458363933,22.857447949218507,4.68380411833509,-21.131139534568405,3.6324875011401367,8.5953288525462,-17.88845859975332,0.38029412556928044,24.33611570789917,-1.2177242482909243,-4.631430155898284,24.07074872364447,6.129336660078318,-20.442776813038176,0.02187778603933843,-1.8153990363267676,-33.188492838159746,-15.205717986599677,12.03510248924661,-8.163106570806246,-5.694918654083567,26.721783091527826,9.234769598665531,-17.56712772154484,4.6878339575243935,5.74139513494471,-23.80047823644044,-5.542820619963482,19.93066227955451,-5.074277133438798,-8.125342973734558,23.418433546490714,10.424525304693635,-11.592175079952703,12.391336376757188,11.505615797220015,-24.039989583599166,-12.610563030621023,10.987805153260824,-10.009324460534858,-7.0559541551828975,29.124444517473954,17.62023463044391,-6.575005098515549,13.678329275039326,10.839844123716471,-23.62718955778567,-8.619778549851514,19.551887247955346,1.1239641854333762,2.4402449351493196,33.379544867766825,15.21650885677744,-14.837267181007697,1.9483012797828927,-0.6395748201370601,-31.254253298148168,-11.377347963521862,20.521187620451144,3.7893502983257665,4.196837098708637,33.286080321388184,15.206189351358848,-11.621702730066964,11.072720377715244,14.126986080891491,-14.65346592698816,3.0296709524759358,29.519880956976404,5.037592764867583,-0.5767023765616015,27.45063567885278,10.071410993820281,-18.50895682614862,0.9030194867144647,0.8916436416320339,-30.714266737198383,-13.822395626709605,15.038813730010599,-6.456197059913798,-10.303921014925248,19.628534450084366,5.812138194912119,-18.70706534428287,2.967434587205288,3.6483850175709387,-27.599444165716022,-10.619495167020794,19.034146586586928,-0.9750787320266525,-5.122599377259268,22.72401201115665,7.539036571210246,-15.83091506625806,10.0183038661112,13.928437059184503,-20.53731143853957,-11.591838628360247,11.505859869855964,-9.506380598471367,-8.393491606403988,26.34606521588439,11.803102458531642,-18.936072614230348,-2.5826326564431135,-4.130139711199605,-36.977222012271945,-20.307481353061064,10.735896740441197,-7.27450888296579,-6.897275492798505,27.21793605471894,14.007518845595087,-14.001891897573604,3.940510184497704,1.2054743709622144,-34.23091799866629,-18.93056607042211,13.874873773452618,-1.2833309818317264,-2.6302949963417896,23.62585888267109,1.4296577370799373,-30.11285530150765,-5.745619113672701,6.033824999898647,-16.473596382420517,0.9348732371345037,23.721066501319488,-6.631715897447382,-16.425038664599462,15.501266673108466,7.483882684282005,-14.384490713620231,7.322875567517569,6.577310203139544,-29.05274350703577,-15.517222412166307,16.314705324004596,0.7776532428642717,-0.7138626619405466,28.524418278082557,11.81288881739735,-18.18011868466525,1.3851783310919288,5.796878932362289,-23.06294594055548,-7.249387055600785,21.139668385711463,-2.161471479427437,-11.782926163767844,13.637490474328159,-1.6006903698719288,-25.56738450815079,3.364139101348931,16.115075455507117,-9.953134161726451,2.917530609392447,25.585747460015966,-1.9511385449481775,-10.154091025716191,22.045188654754437,12.559233967309371,-12.93756127320502,6.733586186037444,7.294866609036733,-26.511101234888653,-11.766461223209719,20.642573818300864,3.435621662233853,-0.9287990583853047,26.94052757748974,9.056701311013144,-22.771484055347337,-2.11414512415916,7.145755207574848,-16.808955073012807,1.9347606362541558,30.844366125669726,5.365968917348898,-6.6623478273813,18.862621114234084,3.503535942030311,-25.39920511934499,-5.073966512579748,-0.4332978194518351,-31.42935235890198,-17.128732903759648,13.932616814237925,-4.9518815850231555,-11.32376846360984,16.298577083948313,0.26176720213081595,-29.097498966211706,-5.796488648153964,4.877930107968628,-20.84182019152263,-5.34405835965562,22.775894113664,0.1325699063762169,-7.418067216239926,21.739408603333125,7.3386620699369605,-23.307730178840572,-4.994707668369887,-0.7248165440260232,-31.079379058212652,-15.40486302288215,18.09016285609096,1.065526351634917,-4.952989889152983,22.43650849682767,3.836243120760038,-32.95328068422414,-18.901557430273016,-13.931712542554575,-40.38523656165393,-20.63177748218333,16.17721594721812,1.8835663697929448,-1.9616366539342414,27.915754313046094,13.717398604705075,-17.904245403747048,-1.7581811002598666,0.5287687959401999,-31.705834374317174,-18.46764530925023,12.762384620831416,-5.122594873484866,-9.89303993944974,21.167063731558734,8.42007193773256,-21.720794436768948,-3.3332758747593854,0.4937215855239778,-32.106327617541695,-18.556350470267432,16.50604100104608,4.19076661994518,3.452459590817535,36.24472970700364,22.507031842923144,-11.022271163397392,5.027207079332104,9.500545166570914,-22.101259250067898,-9.450186488475635,22.928387655456426,6.132498401674093,-0.33663263194031334,27.94517101100402,12.719519464212638,-19.516392356977644,0.35764427483569783,9.688075099935993,-19.877758283639857,-9.420944283112785,19.909376258590004,3.2693983423187802,1.1273828102049954,35.50080382170383,24.586827316977896,-7.6080485245618075,8.462807431941489,14.422603880515393,-14.962205845871397,-2.7730386248037835,27.121366300487292,9.003673494087806,4.196439489120033,37.8204182488293,28.58130096417147,-2.7345732392292614,12.591929997068963,17.49076980647318,-12.374609589414767,0.9086614320017858,31.773545649180843,10.335982831134208,-2.798551321580016,21.55520867583926,6.612340508482594,-25.62350073093499,-7.993467027173218,0.3049231572959838,-27.008730691467015,-12.34634731206828,19.718151907689467,-0.6347314690021104,-12.232617763099636,15.73282758581995,5.7625882294203254,-21.95642375809006,-0.11013650883195858,11.352245618181305,-15.873455090284262,-2.9565666365342747,28.795866986151143,10.063683852869605,0.38696368399001746,28.981932955622568,16.369022980788735,-17.775409648644402,-3.0656962404501,3.9391038393429256,-24.306558479000095,-9.760972061171142,24.2855213970673,6.070011429886826,-5.586157384718967,19.45500129154569,3.8207115196197794,-30.492888818231478,-12.975746815637919,-1.988415968292146,-27.957861647334624,-15.081915759613988,15.146469397678514,-5.896959643021464,-18.586283207700284,8.471772256630985,-1.5421247546840338,-30.380357486776088,-10.863121800038755,-0.7195936650314382,-28.60458762115156,-16.7642886598493,14.59703662664566,-4.393715851354372,-16.32020390376529,9.528858544889774,-2.4016869973618693,-31.908796530475158,-11.307360256924554,-0.07618777326176573,-28.557326792964865,-17.53461370950316,15.544067225032741,0.527656690293691,-7.666612142946905,18.991970856520776,2.651046462522583,-33.67995406675671,-14.685511747368265,2.445481872230641,-17.85526959047767,-2.148747421843016,28.648130027808357,5.25996735630801,-10.177507738913047,17.549485491173883,9.213412552569645,-20.273109802271925,-1.92617366876663,6.506260984245278,-25.917683740724478,-17.444305950559638,17.166566137497426,5.318259139164,-0.5561016758520326,29.23467574243396,17.059105786601993,-17.6912595815986,-1.1922074157484008,11.277353622050846,-14.054613328834364,-0.8804471873298834,32.03393458255579,11.218322545738955,-6.590193218524282,15.453569801859507,3.0139299019129275,-26.891985970199915,-5.8260602165744935,5.511968029527198,-27.735586616451798,-23.909325685568128,5.844528232104235,-8.73704198302741,-14.445154043459887,19.19144570646137,12.727474872067523,-18.441216635697863,-1.2506063023720628,12.052951766068597,-10.269447938905214,7.702156327598077,45.7490524335167,27.49794273508676,7.748866021989323,25.664660113298467,8.978317741636406,-26.051001051378154,-8.854001520018562,3.5462103050911526,-24.51626566115442,-13.923719697229728,21.48376095495272,6.76473709780549,-5.780164199765691,19.65197670680535,8.110565727304897,-22.922246003310715,1.0245493816641869,24.977839608746557,12.285097075057287,38.83205324979812,89.06119911439693,90.96233015653128,99.52915981017952,148.82490890779894,159.45697665455737,142.3475832469537,166.60048400134897,177.2530768303407,139.6854209669897,132.77368770191535,146.06242129043122,109.05727703339616,75.41533227860478,82.02837064425684,53.72704270590776,4.409278984887376,7.687579817679066,10.160272450514366,-27.485492272591088,-31.496094721067138,-15.48671708959588,-51.35737230145091,-82.63621169548013,-68.589876697475,-85.53956328926597,-123.74919591657465,-112.36788452276727,-106.31135091127345,-143.80597470788416,-146.17917427909984,-122.80077215689815,-145.74598293181037,-161.57905096376956,-133.03004343978932,-138.90218752512124,-169.07116523548365,-149.03174574003503,-130.06964235365473,-150.65453655109738,-135.2892075494409,-96.68257161413078,-109.36406954599546,-119.11511093037451,-85.71089998123779,-88.28179790887766,-119.13992650211345,-103.38945089322843,-90.45182522286575,-116.53109431419817,-101.97798109256794,-57.94314405729581,-63.64263054361308,-70.53381657943781,-39.42606005163154,-45.80082261603292,-77.10632716741443,-56.12271268235863,-33.84911367254291,-51.37830414649387,-33.44411035514808,9.194986645698464,0.1534103772111095,-9.825503752383408,20.751468802154513,16.996601824654867,-10.52558358255267,13.41951964588703,35.58487855451172,12.53212069895172,20.230449813729138,51.923243683501966,35.07143797842386,21.72312397148695,53.09260947755999,52.16310059851423,25.27620135262972,46.645469191306375,66.20853215000979,41.69226008423006,48.11755196914912,77.52198811200535,54.804293086165146,32.24297253577598,54.89524148042583,47.68957131407481,16.96282799270503,36.644334841582555,55.73730260230262,31.46223776898469,39.513444750124236,73.00436280292061,56.366749346587,39.78380457101448,67.22805532208086,63.17728645571107,33.387696101629345,53.28719673871159,73.67799639195906,50.8522442374421,58.72523374258101,90.50537388996526,72.26493581239178,54.993551057480225,82.13847876179776,76.35788059982713,40.8980325601987,51.92042937275546,64.14811624553171,36.78515279414164,44.503190102323686,77.70854599391403,57.38381987031768,33.75090047646903,54.33993711783414,46.3093009842856,15.722545877708752,36.69419855214262,56.808381370677864,29.46500166314314,30.444966786980856,57.30828704337092,36.936355255291396,19.350493414819216,48.31544884145379,45.754525433050446,13.650065893652677,28.42155716139049,43.81110619508197,15.8849437256269,20.030492579613075,52.01847954334053,34.0289672492578,12.933482089429218,35.608807420149645,29.058412055407295,-2.1650523941174633,18.110696490899535,39.21550437452257,11.850014012597228,11.706830402876195,38.65241067768701,17.633993472370797,-3.2008541590797286,22.08797542696245,16.218019422434516,-19.58032143178142,-7.018602955421015,8.731386270731397,-17.363100925964915,-9.383748976555147,28.13759267569258,13.77205348494721,-7.407520289583375,13.853985238067839,6.227318346174851,-26.976779016504675,-9.668833714402808,10.247012162721111,-14.695778549704457,-9.203111350734805,25.444857815131932,10.068461765127273,-12.360188761890598,6.444842207892302,-3.6595260386375994,-39.842738903679546,-25.02961874857038,-4.21024127011243,-26.36706370024964,-19.656194525529024,15.300674606285316,0.8993776128064166,-19.908559948042953,0.8628766413285369,-8.090142168296612,-44.82212125937263,-31.88011435637324,-13.34536791323438,-36.584629990038856,-28.927826134538677,7.876553563767191,-5.022940129369234,-24.77173166502039,-3.1832307858785267,-12.002320730667563,-49.183559688897176,-35.1224311022662,-12.882517474278684,-32.96290294918003,-24.911914614712718,11.190086844965167,-3.414958198409641,-26.70357740393084,-7.114196412310184,-14.61136307748281,-50.46800804017662,-36.35644867426363,-15.383785488628206,-39.454231495529456,-36.04579860184937,-2.010728800518395,-15.808036491697475,-35.99902822064001,-12.801504668162046,-17.683372807328343,-50.51063773549762,-32.69380459011005,-9.7285889491804,-34.43366911448226,-32.69440819361566,0.9478168688080828,-11.447103685736801,-30.79872837900547,-9.775573367755587,-20.16182304772727,-59.36764515228272,-43.3133204304269,-13.988766727886048,-28.472922179194974,-20.313586945005504,12.689188137319537,-5.419700397436525,-29.773948398328567,-6.443594509470971,-8.04813681960002,-41.14309099295492,-26.97286524282589,-4.2227797464627175,-24.895237754060428,-18.922513825255834,16.256473507174235,-0.27779308412082315,-28.076099799550754,-10.69623523363084,-15.32685222416937,-46.924671784213864,-28.835109060821488,-2.57776316595883,-22.873872971436153,-20.709243724803173,9.430035104942988,-8.198905096629515,-30.169557217711965,-2.0868841309034174,2.7777247802870524,-25.980932922742298,-12.97212020870571,3.8322103163382732,-23.660384301166676,-21.12470966304684,15.792860140560885,3.3422047963840065,-22.053509733868196,-5.283082712471051,-13.556753856698752,-49.95585695877633,-33.28640470805456,-2.9705786105016934,-16.739760195632645,-8.476979164048515,26.252740050676547,8.604548372128416,-19.60898502160796,0.614921241753505,1.5068318895446966,-25.569222974998215,-5.74438505460885,19.88420194302419,-2.448696905734158,-0.9140547551069371,33.2366626679786,21.130991025821867,-0.9370409044536876,20.65824607071432,17.413358655605432,-16.089113901296788,0.14410134850993828,26.454515473284822,4.506132703804868,2.8538479789486257,31.971379753416933,15.24411626005737,-9.421800441142729,13.633285055948912,14.95490154852572,-15.354012866855806,0.9577267925352135,26.0317082751588,2.2222444248299826,-0.8923384816686628,29.37252276243472,15.716344854828982,-6.570443858128445,17.18446024573439,17.217568245253165,-16.027363793515846,-1.9415216900516405,23.086865301658484,0.5915039035348393,-0.67068324258006,30.426256338942718,14.61260871210441,-11.672778476135647,9.218088112706873,9.225402812065456,-20.941595209998432,-2.008373143286816,28.236227582069844,10.31926273667878,11.085839499435995,41.338514914390174,22.740252841456453,-8.399063996531678,7.685322873826893,5.96928495481459,-23.69855765511215,-3.5561584615289057,27.90423478794788,8.67599457825668,4.938539856955042,31.2104816231438,12.926402604730239,-12.376410922747233,13.44528036223941,19.885857420351964,-9.076476650907388,4.170527727256157,26.08883300534144,-0.24213219398009045,-5.478351632416526,25.586678047354713,14.979559633872292,-5.492129033802931,19.91728608436841,21.885518988535434,-14.088554840251014,-6.672585920316764,14.69038772228806,-8.904422760804307,-12.353858028148439,18.62272293402796,5.859807477579828,-18.094073007814515,4.521147276098622,5.223379517567583,-29.466097132329256,-16.876305493217775,13.806222576361016,2.3447834831307564,9.184481941697218,43.13115765788704,24.23653875575531,-12.012157051177583,-0.14335752968545634,-1.2580214351504209,-28.76974252009799,-6.305577075771961,28.911265365754538,12.180976619760854,7.1082426980603035,30.023464836182484,7.317870237924103,-23.463706587301758,-0.915998958180996,6.3497675896611225,-20.45533915624042,-4.945722818046576,20.138532899265712,-4.7779666539061765,-11.574041302655251,18.042968451285276,5.156053809847859,-20.376467273402064,2.4714366763888176,7.875343029754612,-22.80570937215816,-9.844581744162495,18.21656959300344,-1.1288148410885235,-3.6053522917329923,29.228714282634783,17.00465595398662,-12.660826291354184,2.7776616982913716,1.026560912526691,-33.92789193762709,-22.283824768329588,5.773156116418466,-13.210045616107953,-16.166232238023248,14.271286749468457,0.1546278443025635,-27.229555073454723,-5.085852125851138,1.989693233977572,-25.154241262554127,-9.875520457869216,17.07449251019097,-5.238396473604929,-10.331064767040338,21.05339383676006,8.551243195416768,-20.88329256504179,-4.149249072402501,-2.428521484108156,-33.07249708229974,-16.951448898351835,16.22951109636415,-0.40949956926126774,-5.9724158930830855,20.652683734307587,3.5003257512951045,-26.19389821625897,-2.6122884355545093,9.69361570293336,-13.470032760371945,3.2390718062312747,31.51619846784599,9.653388428790596,2.509965573504191,30.451689611554098,13.780858026701434,-19.56229474446057,-3.1295707055625996,2.176907791340253,-24.855607552104246,-7.273279590106048,25.289849644770698,6.945387753101688,1.1776226023957719,30.48492226466632,15.549455848781733,-16.374414270176885,1.5948438240716865,7.496168226884707,-20.892119819199234,-4.515644356864813,28.574851587425638,11.576102591966777,7.363112253745013,38.31241460073037,24.143142778699357,-9.227625074148852,4.96662675004233,6.378195774051671,-26.132002440463065,-13.255453513981967,17.891084012682043,-0.044253927689810624,-6.053250013305403,23.319155192300585,10.130356366781735,-20.13905181473023,-1.658867122669582,4.480814380366411,-25.355086229972883,-12.148499255969098,19.84338718752387,3.933553814490809,0.17889470806711794,31.626452809048974,18.56851154651458,-14.501122599398599,0.9730221809517001,6.715203094706538,-21.68517591516119,-7.770721928493854,22.201090525659993,0.09480436624453503,-12.714443046297554,12.637757603661868,0.7615106433768002,-25.81601135188036,-2.7790677965247266,8.106340419206058,-19.560302321508317,-7.213204525843059,23.04394021965557,4.088598242073202,-5.062275567274351,21.233480418219614,5.7034841680377255,-27.62636259371977,-10.359301110470643,-0.9196736055675888,-25.50094610593592,-8.32034316954671,24.816298960075766,4.9024141836231365,-6.81938136611421,18.984101357975238,4.784481716053206,-27.953056977012707,-12.180381054351406,-8.006425011096375,-41.08709169452075,-29.36654294953829,5.7230947985422365,-8.46417870948828,-15.618058119862782,11.832583527092348,-3.836048958416548,-37.34735452447728,-15.477308608295361,1.0536168080033952,-21.85600728556105,-9.748228899500685,16.05365861685278,-9.663225794706923,-22.12307772397295,9.841998953674842,4.483219394526136,-23.12776872039776,-7.532224746065851,-6.717938965053621,-43.91628689192147,-33.69828106704469,5.366790987022581,-1.921947149141122,-4.926787764036634,22.748691915685043,5.012358304796045,-32.4380391484344,-13.56703279469429,3.2839973396232054,-19.056189948608207,-6.486506872101579,24.0754560774041,5.353971034634101,-4.469575801315357,25.40626311197778,15.593568656471698,-17.50275004062532,-3.009850876233905,4.596225462131059,-24.445615296639694,-12.633198953688014,20.82623555362958,4.6518820545460215,-5.386545701588651,21.612930150283898,9.37603395508179,-21.899527705623758,-0.7404062496081991,15.47561428967739,-6.695788846195157,8.562550219854806,42.06421264954119,22.225387664362568,6.182404025281904,28.826140532100677,15.231672986431105,-17.08459508270695,1.0978922370893578,11.875424473690153,-17.251948751242338,-6.856408514956101,28.12752199299318,16.429642490966618,10.491196618302926,38.76504237645935,22.724280858667143,-16.936297475800743,-2.5828834359867656,12.833413744659584,-6.001945936075067,13.496046643090745,49.40360968287936,29.158043785045987,12.964597197789013,38.40067761368971,28.931045555091146,-1.0351462842710717,16.895870496617515,26.148026820263624,-5.33634695492589,1.6107810702938377,32.30037257783515,14.906728834131329,2.9039093643503477,28.96017051917924,16.431550066179923,-17.722240678201892,-1.1487650552108644,10.682770671426978,-16.574963629453165,-4.818660116646841,30.359265930818797,14.285628641895915,-0.008284670447571418,22.871269259220693,7.974007320520316,-26.617583043136932,-7.686070444684974,6.247045575573612,-23.964438969308375,-19.51242796110909,10.346390505531435,-4.503366051869536,-12.09971064174424,18.871878077646485,8.543811033010236,-28.20103440898764,-14.825922740905165,-2.405850243695771,-27.438614593542418,-15.100194687519396,19.972432566900473,4.102855969962199,-10.16501348385926,14.402091832791514,3.2599646654973444,-29.13387242656971,-9.434579930309834,7.165408828927654,-19.64298280512375,-13.399195558680029,16.335970627585525,-2.3545958042237825,-17.263217829505344,8.962614707595996,0.34907347134218725,-30.404921684658397,-9.160886932805742,8.96573321117052,-18.703440836904626,-15.816137167790444,10.819316671937827,-8.552874667623124,-20.996133901603184,8.569399346701465,-0.6056398606775364,-36.90741436912815,-21.93226970722613,-4.806476629437134,-24.39379865620333,-7.958874047436479,28.06983112499637,7.2944861793746,-15.438267021804897,4.412227841850253,-5.113349698446258,-33.35321764818619,-9.93805311636011,8.482255771291806,-19.810852396690887,-16.23478920921292,12.84158956309031,-5.497329829866555,-19.890121772362328,9.16670517664912,5.116682705573568,-23.262076925322976,-3.535774176324386,11.339461841512861,-17.83823847849539,-12.315725210947216,20.874101481613042,7.879180733449397,-2.6361526063780074,26.10276830896238,17.33494336070453,-18.460441994059426,-5.333998387767202,8.200348176709603,-16.878971628460185,-6.8933161872951345,26.326132321351075,7.265663633600406,-12.452855057284317,11.49895322879323,6.673252263695995,-20.033688052805136,2.050158725949414,20.251509199393293,-7.342784368817636,-3.2769741950206726,27.890758776105223,11.7970805283116,-3.1487430788618567,24.77864900400907,20.115601219651218,-11.277374458306108,5.276923333302985,21.34725391426958,-5.147082555086861,0.27312177328666287,30.59791095071735,11.255812113911466,-8.117208295569178,15.572104392145018,8.06878883720358,-24.468898944149988,-7.322580219001297,12.249615398960119,-7.788990850564431,4.505201991700057,39.41591755370047,20.667126121833867,-1.039486528621877,22.37198058133154,19.281757655628645,-8.161725943773735,9.042363640084513,20.606665866700034,-13.350362364222253,-12.60745328176518,19.896160889819573,5.993638420651275,-10.868226239509914,10.910884727140512,-0.481259619711766,-35.1409351727999,-16.932610858907502,3.0619236458376866,-21.26562902172057,-15.685145641064077,16.884183233322034,3.4674503905339993,-8.945716415357847,21.244982690858805,18.294009777274646,-13.614497869771599,2.3487432107953286,20.747833673898906,-3.0848720715156794,2.89775310152596,33.3037705668161,12.357054983767767,-12.399254993441,6.3964970264696355,-2.1170512184971777,-33.719235164055505,-14.122831535777824,7.022305692669117,-18.311691504370366,-15.600400938194786,15.168404197537992,-0.26729373318020144,-16.78625747338054,8.753703877185778,1.1666310881406075,-34.88632161901109,-19.289630761090653,2.871761318617798,-17.505666944321224,-10.756000450530237,19.286644186904837,-1.235361159361343,-23.490783997415782,0.5043915143785966,-1.686362158828791,-29.538717345061517,-10.07451352687931,10.112936348198259,-15.834195752849611,-14.715923797185297,15.160191996226441,0.5134907304039427,-15.815866770541897,9.122649239764394,1.2457471345774733,-35.901218442548725,-22.037995932484982,0.2868421707507265,-18.23740347533986,-10.12337191257225,20.875095678220703,1.0328618344809133,-21.26767520456965,2.9246743501780212,-0.08341147031027596,-32.26630530727668,-17.958820996992067,0.5887366826849121,-22.66437251154855,-15.388610610885342,20.70827823052651,7.191788167340682,-13.184368807565276,8.233485194986349,0.9607527801045528,-33.9188480925692,-19.24617857599272,2.3441378011052754,-17.34810119813193,-7.829299077146825,29.12086938272297,14.549661127750989,-8.662982929227315,11.668625551035909,8.221291428259995,-17.629690245780647,10.28807198741218,46.490962923220195,40.763297950320506,66.53004812584462,125.72346154350548,138.4056475603074,141.82139002210664,179.75328027419823,178.16477533035558,137.54767645769147,138.00083489744225,139.2176587683597,93.15612901781543,72.54740939340783,81.80919245893797,46.87068648873386,9.58587790114341,17.14607428069905,-4.001544239575145,-56.18739179738345,-59.20823015421209,-51.73532918473979,-84.3739265688901,-89.23552989548938,-66.79504450836114,-94.03777560164656,-125.56613739303944,-106.99725350612512,-109.49719856501581,-139.7108418461817,-123.42061833936687,-102.84688929717807,-128.0564741897854,-125.42176007556915,-89.57373313634861,-99.36281223307384,-116.44924806780607,-90.84653623358321,-92.49100576693354,-122.92551969034994,-103.38600368416712,-75.44191200849326,-92.62385138531567,-85.96106658646589,-50.83232657070056,-62.937178822476255,-81.61503275553584,-56.33976039397353,-57.33789533586227,-86.1024619112989,-62.446966719751515,-27.80165304944901,-38.197152105842406,-27.669259791476005,6.383721453361677,-11.315225984019396,-36.044294529877504,-12.07255167683084,-8.818853198147512,-32.60976516534032,-8.372297397129607,20.46559350064518,-1.1110484836534464,-2.2106775900045514,25.76021482392911,9.026233279121994,-10.416829757877426,19.607104890024843,26.258597764342362,0.8745750864737722,20.0613192930127,45.09875469866931,23.411874381357492,24.852224689835428,56.648412975688984,42.83986977184054,22.58122778554096,47.975501228690845,47.84586846985373,14.546256370494683,26.822835602540792,48.683185483714645,27.41531493185785,30.824714814182013,64.56321495699409,50.878313009924824,28.318315880325756,51.0425386038062,49.453119213117695,15.954188873284222,29.768607447820845,54.34767896848902,34.52891346434704,37.38874311679524,69.69523890176183,53.2378228794702,26.290363591053506,45.22408780901283,41.85715668241241,7.651373333977865,21.26565730002117,46.12330862712991,26.210454735156976,28.393186350804225,60.78320524141972,46.0805353173375,21.30368126547859,41.37475242343848,39.20556288719061,7.432619760042591,23.621759208449603,50.65412426178498,32.50499233027063,34.29087271517084,63.379933101489925,44.31184435479358,16.234300130351343,36.10563132005016,36.88721538547897,8.01148209291036,24.938740576547083,50.34137509623455,28.26354676781113,26.420830586006584,55.1542638222204,37.4599013360433,9.543134178489899,29.022931182646353,30.356443669908654,1.9732601431182033,18.38082787705765,42.062176141329054,16.65907839385174,12.13058819842734,42.092768535831055,29.028576878351398,6.221643531775712,27.49390332845297,24.561576520764604,-11.18023886870247,1.1575464291316706,27.134156287837193,7.8608915456711586,7.920911402270404,37.34721666899625,18.26961862085742,-13.165020459194249,2.6814600701322657,1.0225056681557767,-28.732927248172736,-9.174713150459965,22.390111736098074,4.702753175521275,2.1365881877686177,27.404865388261506,6.323499422807561,-22.96959407557814,-1.8461910940694999,1.1975483149318773,-28.002122969286074,-12.628770208743694,11.637079153303695,-12.399429542588175,-14.434100341120796,19.043012479181733,6.989141282869988,-19.51027529167913,-3.308518254005964,-9.064997983818406,-44.682042561779916,-28.312816514421073,4.1763650433954425,-11.636939850055901,-12.988933747624724,14.299360862973096,-4.631430930777723,-32.95160914757629,-9.898942159757834,-2.533362399122682,-27.70021704380197,-10.73910440042016,12.302922437859124,-18.03839237640342,-31.000459285522464,-6.422466883473039,-20.916543203529123,-43.388373151892296,-17.215382605895186,-11.84058783994788,-42.72855819266497,-29.33387166080027,-3.16326894613265,-24.96692602096332,-28.763075410986225,2.575532369573649,-8.027534621151554,-30.198767701878516,-6.324351390915487,-2.3563789446151855,-32.99915820160267,-18.698768590953364,9.749591598410078,-9.570734367138359,-14.450765865752604,10.410742479698138,-9.883745857322388,-40.12999580157017,-19.259703599577072,-14.093316431985103,-42.90309777662624,-29.503176128708095,-4.999314055434574,-27.263275960620568,-28.883883808586177,6.5662866460768345,-1.218494853748739,-23.914205324288215,-1.999544195573618,0.09629195172380767,-32.47421862923283,-19.792297691688795,7.0630140424615435,-13.384797529746217,-15.444298689211752,17.93619145241165,7.296224890230748,-18.10933157599401,1.847778325754252,2.5881670583993395,-31.43562254838262,-20.400888756824834,5.686948485030106,-14.940112982007976,-18.619721358765595,11.97847509827656,-1.146739708173957,-29.16386297459513,-11.225678652312604,-10.188834112935258,-42.06119233112362,-27.060573612040834,5.633777128093733,-8.242304108692862,-8.863757325131896,19.928806659182698,1.8681767615788534,-29.168747974208298,-7.335905299254685,3.693944778625372,-18.07331381336523,0.8321712063704148,28.367096813708372,3.165782515418325,-7.494922736399051,18.58379477659445,4.182587201199948,-23.41492956845292,-3.1146805604740475,1.50850688571433,-29.500793187224744,-18.373554562142893,7.790950831683702,-12.258913608129818,-14.650006665668569,19.60766181756623,9.617311839648396,-19.44320065510426,-3.428129768243096,-0.6148150595139199,-28.116054853288162,-9.023146011554434,24.935190123831013,6.701898918308466,-0.9603829244873765,25.531930407609963,10.31042063689453,-18.697578358997745,1.7524002650879655,8.003397492826146,-21.66339664133017,-9.644129808032666,16.488018788113905,-6.3851790456700535,-14.542147224276636,14.162228728935972,2.3509052301509374,-23.468764045453344,-0.9522257076083367,6.298770432001532,-22.98137481884975,-9.205987568877909,22.689355908289134,8.76322694756508,8.449978022532722,39.962180700081944,24.047071275618585,-11.091660973926995,2.810388994184974,6.524602444545551,-22.838235227035533,-8.653444972129336,22.35843117526613,3.9172926141118367,-2.7602874000189965,26.894407904445274,16.279874862247734,-8.608786769931568,15.978917416997875,24.785984621384028,-7.807712049763596,-1.9612597359343305,21.76074729481266,1.895090841460993,-1.00094424044766,33.0657664880696,23.212353326477224,-7.777482408798331,6.086996853490113,7.445779740475592,-25.36925480098119,-14.09316255023781,17.57037578787166,2.7779191046900724,-1.468111242503061,27.526375500774446,13.213585233195232,-19.278380436781916,-3.3857094305428337,1.503307816744205,-28.6936699606115,-16.009765288593037,15.96466935289703,1.1689842628072586,-1.637080844243981,28.871409820306045,13.319793469032218,-21.624315590873337,-6.416207947422218,-0.054122131480280444,-27.379570480786903,-12.325673246389744,18.860804919759225,-1.017422312434702,-11.337543669106768,13.948943417202036,-1.7877630061048357,-33.75576092883368,-14.199160668037056,-3.223022273398768,-28.06945371353614,-12.758381009164083,18.724061966359052,-0.3229882524510934,-9.3246390797114,19.08409029141704,7.986482928716624,-20.543536742530925,-0.20161359661445033,9.093130755916693,-19.234345245350298,-6.29925607620067,26.45772877356675,10.334765947820207,2.5929254735632394,29.411990463552,13.60494051837168,-21.904639063616663,-7.642504943212603,-0.27933389179109586,-26.71901579495243,-10.921999183890382,23.97038008830019,8.540099878307625,-0.02500562127170436,25.993495258491723,11.014077333391453,-21.726527908235546,-3.7840793452858748,6.146318334795457,-19.509075037051478,-3.3325551078047297,31.87001186124133,15.094845681745664,3.1805603084941554,25.5349770022305,7.2213924521817265,-27.83735235140202,-8.520172155510581,5.682958887883716,-17.477223311376875,-1.8628663664587322,31.73597843539971,14.24047868441037,4.241599477202856,31.45377380192041,19.3654913452002,-11.368700266552821,6.718655899428265,14.809096873987114,-15.351676432074527,-5.096810836552207,26.348239152550704,9.796068163359653,0.7945635089788533,27.072198233598144,12.972686484864548,-18.596567028734704,3.0154649160086073,19.212699006227837,-3.3957033284564346,9.524269342868024,39.090890749447226,18.11911481519291,5.669336617796061,33.38667368827121,23.6981275412681,-6.588791956281666,10.575745631618812,17.860986637575394,-15.391064649251396,-10.268959727423756,18.11558502905698,1.123983174288071,-6.698679166950169,23.568544092093358,13.518817489244533,-18.834162907992688,-1.7335990377482204,9.2718619886912,-18.45365904165642,-8.267443270697852,22.692273168686892,4.699558894880042,-5.8485376755141685,22.172159585487265,10.938727125980146,-22.02289700824214,-6.1957740763523805,2.8843541964735757,-26.15943930449567,-16.206881422173375,15.944252345520495,0.0065258890490635935,-10.274975157736298,15.695907799215801,2.957146106049395,-29.53195127764753,-11.79212858541255,0.05690945841862427,-26.535109513033436,-15.447375682196927,16.534634152815542,-0.7424862482948758,-12.565359835015895,13.310177644479676,1.3409084295354496,-31.14883812531594,-13.669730219374797,-1.6704003085879844,-28.103995777779318,-15.923439742930539,18.869877998479073,4.378603284165717,-6.151826828235897,19.569133717130114,5.935631965503328,-29.10789013216407,-13.373289728222527,-0.6901221992407187,-24.057927509651538,-9.506190626583226,23.131538120591546,1.1669938049909643,-18.404014876238552,2.924881707139459,-7.917033216694273,-36.09524963098173,-13.957179498869248,-0.3982253505083664,-31.174695478639826,-26.31655486994275,3.7265778011956865,-11.197650374291246,-17.62676208192693,17.062675082467464,13.27233572760708,-16.932561931813396,-2.1291992073520536,5.707568693188723,-25.42838235867356,-16.764950537907755,18.309654718534787,5.307304979505305,-6.9706624014354155,15.45071630970438,0.5111115777803725,-33.24067313800937,-12.684866077818263,6.204960294983403,-16.65961910888184,-7.133977453618622,24.36902637190616,8.82713201171959,-1.9532893812188075,25.192572295256046,13.754795041011208,-20.80025428360749,-3.072301965317118,14.314809450624214,-8.161239885444804,2.545994278260693,34.15191553712351,16.488908092261585,2.671124730517724,28.065906773199387,16.21425556863989,-19.443633830942623,-4.169693502830132,10.70716017518424,-13.617349629969072,-3.803985385462447,28.244375581383434,11.276240188991839,-2.8956211818937287,22.219184462838943,11.776028435236805,-21.102332590017674,-2.458496912365664,15.41140790511139,-8.485877173921471,-1.8281574974025556,25.423633796897068,5.14112440289489,-7.856276835159566,23.014973627840696,17.38371123925676,-17.350704067127644,-6.565602118881433,2.5747974475641167,-25.427991372751933,-14.492990040111437,23.0039890971259,10.209154736388685,-2.854346517189927,24.180869970481634,15.917801854038622,-17.77001452897665,-1.7989131928410007,13.695773997841583,-10.296354748868097,1.642359016243347,37.33211924199112,20.129931269814755,1.3676733032793402,23.781564597466286,14.831941424600489,-15.40727996583069,3.6080760609377087,16.421178350593827,-17.3667035981376,-18.018319437374913,10.548315908315548,-3.045633867235235,-10.786008096933985,21.71044983736963,15.020153871625888,-22.246976062186917,-12.430117381959317,-0.6457542968284571,-24.582894475958735,-10.632562495637373,27.81149650691538,12.7369210665987,-5.69449715454453,16.477835832721695,7.866879753477432,-22.402466170965873,-1.9951809001096912,16.673829718813696,-9.783039301785655,-7.398208371229519,17.191856233122074,-6.992232785865182,-27.11006224686632,-1.30799218943468,-5.885036950831992,-35.416126609380974,-17.71707339012892,-1.8530222960342848,-27.0042109456959,-18.309002174761602,15.10171813431099,-0.9290573165789784,-15.965841378787307,11.56101092095867,6.727283510905524,-24.200289032822475,-8.334148312598453,5.3240672802454005,-24.040677246682364,-20.509904271811802,10.831223772058362,-4.677103582185385,-20.93095175980776,2.520323924523627,-7.46561872283132,-41.7497593591145,-23.895946293805157,-3.271674118813734,-26.19341307480535,-21.380026500003186,6.544241891019672,-11.986220553823578,-24.664829174692823,10.33308528813192,13.7129127690268,-13.771584898234773,1.565693141110394,14.993006528618121,-12.729676786792272,-6.324713283385684,27.68001799940656,12.763191987520916,-3.2890937056672835,25.441260454642,25.557442436999466,-2.0811409224931374,13.601645140717602,24.778410808889767,-9.553145331458552,-9.149299701773144,25.516734368644634,15.437953293817813,2.2192586977428332,28.67552066755548,21.509323521370934,-13.131645393560225,3.4796259060304138,24.21436913439639,0.822136486089569,6.461608221727448,39.70957252534965,24.908822434363096,6.0364818348415294,26.852489993994574,15.061467446931772,-22.98349686318295,-7.976787169390642,14.501077534756726,-5.190553302798541,1.0800324418028957,29.42484983522939,8.045290086209247,-12.882612063892665,13.291421123482237,11.351347318036462,-18.991183546358258,-2.503077658951014,16.9508453623295,-5.283837513843613,3.7442971664957643,40.04302467787804,25.206784730629796,3.9397635409993246,24.366845534755278,16.10984441060713,-17.9160457171619,-2.5708584852784497,16.10262277060608,-8.81668599179862,-4.7157808379131145,27.458220435407682,11.878985417374953,-8.734902063187079,10.976290853002695,1.117135087222601,-33.13185396382156,-14.147025967870139,12.377422448069265,-5.0550418891287965,0.8915299727949213,29.015968083230444,7.035575402938141,-17.242182940364472,5.120561306541999,0.846041900764348,-31.39117884835919,-15.171652379931134,6.305291346027956,-15.128321555440099,-8.068852272413972,26.12430722026432,10.452074363259813,-10.0679842861363,13.482834226503055,8.992859304476152,-22.979121065867847,-5.584478632712985,17.003001174316587,-4.823375095619404,-0.7515632978907218,29.210818283174646,9.422864291726286,-16.361311466196128,1.3765529876240716,-6.687631718568896,-40.53585017346811,-25.003227427203022,-3.304863416082104,-24.847905245320405,-19.57853196215905,14.432580434042448,0.63421453023693,-21.14862484031243,-1.451919317247926,-7.883835183566471,-39.92629382096954,-21.05193496351625,4.965263075176198,-13.811847998197017,-7.790721483907928,25.789220277327047,11.653297887446167,-8.517912714948265,15.115430142209652,12.441768782328753,-19.939226054597714,-7.072722919192136,9.728046050268187,-17.49604203859691,-16.28174672867245,15.787515445557068,-0.33890011282963073,-25.11928357851809,-6.106409106496892,-10.23240264856403,-40.25605770524585,-21.878441805887917,0.8246034146977976,-24.450476958946044,-25.072840658568666,6.7864520567442845,-4.539671872151647,-21.32795588919233,5.176484415891309,4.671178545644649,-27.56307038865944,-14.026410623195341,7.89742490903295,-12.571751193283784,-7.326400816637206,27.09302685615515,12.94117188766569,-11.074009742043096,7.888107782056087,3.479122940479858,-27.515055975544946,-9.778450480030017,14.462962430778159,-8.099216467112496,-7.718037861671919,22.651985219958874,9.70901020357015,-4.826388443282799,30.805460730547956,46.580398169348705,36.590751230317395,76.45464618039236,124.26704713092525,123.50026780961338,139.92089679905223,177.734338243143,160.7627520358705,129.93847209703983,138.65022962550233,118.19204082425608,64.41921903118438,56.7202769435585,57.864163820859446,14.691766720630284,-5.745105954315787,1.771270737078316,-37.36935405206574,-80.47717438314533,-72.50187992145156,-83.55769937464902,-122.7950365065934,-114.34419969755812,-95.80233796486466,-119.7861957530953,-117.95029036739483,-85.03699898002469,-99.92859933430879,-124.26862132915208,-102.26695260879217,-101.33196057633214,-129.6396303975107,-111.41934699023385,-84.98562757265906,-104.26608543756439,-101.10965327746564,-67.89860175847147,-81.74799663113915,-106.0706520500301,-86.30631910532156,-87.90726636124194,-117.04772644233572,-96.15443433411585,-61.79929619732985,-70.05814078936328,-57.35991518902572,-18.085291951973126,-28.73798797952945,-50.620455071300036,-26.85385460779223,-22.412247455912237,-44.58745645745435,-18.522947651106783,15.26797431140063,-0.5999925760386695,0.5620508750503643,28.593246183612813,9.844831919293213,-15.635709725711571,7.533562290078214,10.074276773048693,-17.9062504913516,0.6472572288055165,28.439441308835253,8.954200438310888,10.369959648505876,44.67755613776972,35.67264705068621,17.829033365206357,44.07342647526945,44.57716586736063,10.460010376745164,24.388602061924857,53.97861540515811,40.767279998359584,47.02978178232047,79.69217813807477,61.31966871875937,30.138158116556063,45.06155374524813,40.63106542617138,7.477631530761755,22.819286359629185,49.323389188334474,27.98936422480333,24.431088919953122,51.026487825369514,33.70295666052579,9.42268029387899,34.170640732019066,39.04517702393801,10.998567506193368,27.583471160354176,55.075869114308745,36.32623610401816,37.83366545746468,72.76978980070204,63.77642488768428,42.140001516638435,62.853408818177655,59.76813134744161,22.25862017414332,31.096253821517553,54.6334479066668,33.46624148962243,30.637230483194084,57.571995767350224,38.23410576325992,9.614411719970496,31.7411432772379,37.48442177538719,10.960715491089626,27.23522369244306,52.38974590553789,29.425977418153156,25.54068447209121,54.72921085226915,39.018182992206974,10.663790465599952,28.624449620147843,28.45055673034546,-3.727756506650591,8.678908423356198,32.44804905123168,9.286540368490787,5.795081710063494,36.45941337764551,23.367891961426245,-1.5115242187224807,18.893365332543794,18.77295650050032,-13.467427173190407,1.2099648934956146,29.412858517595556,10.938932089251978,10.135451809513329,41.48301932706635,28.58030948142264,3.9502057867471105,25.472123915669666,26.77157380211418,-7.117200871266554,2.1489269516704557,24.007659984288335,-0.2683046643041216,-5.765261160058697,23.166619949064728,9.65012527113839,-15.367860804200149,5.954596061353923,7.563477811623769,-25.375206568701813,-13.507657731316518,12.410591443445352,-7.814885027497887,-9.262295142315732,23.6613357495821,12.388152507128662,-12.448621421918098,8.319658485386016,8.502052957338037,-27.585843036671164,-19.21030333583031,5.085673324867489,-15.207315283931399,-16.402396403419004,16.76930291349707,4.086617131755258,-25.063754782548486,-8.790581230999685,-9.543774534400017,-41.78853448797056,-26.142806123163275,4.687201400601218,-14.86085302576131,-22.626126179724267,0.7101088713047066,-17.79982266805543,-44.394620109941556,-19.157462901255535,-10.666045363878624,-40.12108725875643,-29.727956642271216,-5.4104587691349,-24.7731831580137,-24.42747791042676,10.24969701065085,-1.039584079470119,-30.383467244319284,-16.33503578776255,-19.687800699221285,-54.96451595082596,-42.792193739261634,-12.728659224768318,-28.493253808164916,-29.654772302290503,0.6306668101247599,-14.013873981775355,-42.07965315372829,-20.264665641935522,-12.011321472991066,-37.12606431303875,-19.96867049834318,9.062815214729053,-11.937269476980845,-19.271344881883333,6.972501055329813,-9.192813942198718,-38.8300061299138,-19.779138555280117,-14.46935437557992,-42.827126008215465,-28.63109157196051,-0.36987959072611787,-20.37611409454776,-25.65654892797843,4.502664574818942,-6.946054489643757,-32.80863605472137,-10.710827108071795,-3.2773918240106026,-31.852876723013484,-20.207053988901855,4.97970246604673,-16.365508231561922,-19.877809140379203,13.859328270013801,4.362394823100698,-24.113477000267377,-9.000528763242805,-8.10970888480507,-36.51593234212606,-16.17834432785343,21.05523349489468,5.780847189704875,-3.053650207416111,18.31375016592098,-1.198929587955094,-30.767193674984732,-8.236847777751244,0.8082164714998905,-26.732648706674063,-12.594945565254042,18.08423989835708,1.0621375357766265,-4.563912247390698,22.2741643118798,7.429741764195207,-20.272805951098867,1.9826331792803558,10.410979360796139,-18.657725575587065,-8.175329396326452,18.181446981757254,-1.245663729837684,-5.763274196796118,25.469444175886693,15.403316462063382,-10.354954348054443,10.619024538562057,16.637841431967274,-12.966555168825604,-0.11581416848818193,28.692745377970013,8.986063009471138,1.8319339665834908,30.35839825800425,19.501978397867777,-5.797618027896626,14.735013877086491,18.004144644480316,-17.376963863896066,-10.953927102610296,15.420015527047978,-2.5245226196759862,-7.389203500496135,21.8709722414064,9.467689933698141,-18.12388721515033,4.171924553004427,15.017230739313138,-11.399191184641554,0.6508693323884565,28.345014208016124,8.996407211060093,3.117717653402838,33.62409770261828,21.697558602507804,-9.979286682654223,5.2044405973002945,9.581149534982897,-20.78111536914752,-8.89583878290659,21.182111352572033,2.154793789993791,-8.019161550564048,16.276370941374797,1.4983992845808132,-26.387863974873767,-2.2116119334925273,11.529271429500048,-13.960800520973345,-3.1033460594392146,24.09329081286436,5.842817711140688,0.9871214700907256,31.19638590962672,17.761178601531444,-15.263242136846099,1.0157109436381386,9.531296650888045,-16.326796441495564,-2.794065438790067,25.620803921815124,3.280791416323467,-9.69534272285348,13.937536022399065,-0.8342858961077724,-30.83513817659197,-9.880885680128365,3.123320569228023,-18.999532320899178,-2.3379999217719867,28.771013877623375,7.971361701306222,-5.158231610742074,18.16227505513264,4.244686071648599,-25.065871394376536,-4.8872250337915215,5.533959089220589,-21.60081921950598,-9.582603506299783,22.110095048996275,6.212794898534163,-2.0089075934188916,24.368301732714716,10.52914302887613,-21.763342784579145,-4.591765762931251,5.350824567652305,-20.640279877520037,-7.7339313219186,24.284225839786053,8.832102913652506,0.7931290159801625,24.9754562623876,5.649718232866748,-33.33229323416742,-21.684992380958384,-14.340366163864104,-38.13654560766051,-19.90896249783171,15.026925417747478,-1.815445276332392,-11.659705077460817,14.382032727746278,2.189920784155161,-25.639822801082,-3.7091110730189207,7.879757314839234,-18.479058748925198,-5.548442050409163,26.088105522332487,7.976253358977384,-3.849323477651685,19.329318708662964,3.427432242188651,-29.691064504313157,-12.086167782211033,-1.4781552312716084,-26.875595254087546,-11.40703822370299,25.961852134083284,15.699394769207043,10.739645113135474,37.994496925539785,22.23329381990451,-14.421441437809316,-0.6469284370717876,8.2116830496777,-18.107860275827033,-4.710332703102425,27.737254087521592,9.861776616149161,-1.979026358290659,21.9770116559643,6.2668731189372515,-28.822732274481247,-12.878236616101768,-0.7574841680570978,-23.670221914395803,-7.947406280439514,26.93993315897853,11.554364128875035,0.7297144366199888,26.107957126548076,14.292068978014075,-16.66657612082091,0.8192319542389264,10.822020327268701,-17.75586500868262,-8.630248480525765,22.095982163286646,6.2173576075365675,-2.1509807177143982,25.114583303643965,10.898113593463894,-24.839177091945157,-9.832486707708581,1.9744008237888127,-20.416050619863547,-2.817413067561697,32.9264361302299,13.475067444355815,-4.836723338818343,15.061005581886338,2.3869777795041403,-24.66672000340218,-0.18382627749692304,15.231558108085022,-12.644449294731107,-5.365002382747507,24.617965482002017,8.878884231457686,-1.3022753429896794,22.849160087072924,7.3835134482502465,-27.027319609511075,-8.76423711018526,6.562961270713206,-15.81877561099303,-3.3966201740994926,25.96807865922673,4.60174156761423,-10.256724245319283,14.571817291654236,4.143992346688808,-24.603708788395707,-3.142840016512258,11.354942573600137,-15.015401210152511,-5.275514087646062,26.4366568615731,9.750666416405714,-2.4676545686824713,22.601398795885924,10.027555922557582,-23.245091034544515,-4.655371988180816,11.937308073064344,-10.125959885951099,2.22348443650953,33.4876698373452,12.984630902358559,-4.671449233364849,16.921494472224442,4.166723443919851,-27.31791144583593,-6.802489801682327,9.656730163920184,-15.29557507515378,-6.980816523469951,20.446430046746567,-2.141953098775849,-18.164970029496438,7.474555091281648,-2.1651012292168073,-32.648036333025,-13.184582107654535,1.2037648646554073,-24.338061495585592,-14.177470630211639,16.952984311692017,-0.7065300192861592,-12.388641659839577,16.06110233225045,8.19316814455007,-22.76259438739809,-6.212269226842768,5.339458531796987,-22.01856987755459,-12.496722691983999,19.99244920861372,3.211404154726342,-11.884212804843388,9.646101273661857,-4.478717703097667,-37.394162485168565,-17.093345524002157,1.9565609128667472,-19.113228244234154,-8.539087045040336,20.61152590657594,0.30727042988764985,-14.69392841732346,11.336513849825206,2.5503376421046617,-28.432302325212635,-9.652180988057196,7.112769377518804,-14.791888903096758,-2.5552900033527344,28.934822474672803,8.659130131856536,-7.7042294217346345,18.040385542461767,9.53065178248868,-22.983060042348974,-9.530126689476177,-1.119388268835737,-30.76612610503981,-22.05412669582975,12.523753521110203,0.33256899347837,-8.984271046350823,20.158336545564055,13.094424932926824,-18.642667238460056,-1.6212087339110912,15.38916203259647,-5.316512781671081,7.309413853552528,38.7150769769511,17.303664266908164,-2.0608777269295655,20.542316804696434,10.376487367968577,-22.90832354313047,-8.822531332832005,2.5693574163885,-23.127638735395834,-11.450181440639604,23.07660522896917,6.724411843317636,-8.343505489414188,16.886120581145803,8.065701555155515,-24.483475728040744,-8.173147266655537,7.185162100842491,-16.290734573093516,-5.433996128079064,27.286169650910278,8.36379711576123,-9.810143676604806,14.894704546637726,9.437757091903995,-18.92811220139209,-1.4982630796838468,10.289884532944233,-20.194775249891208,-15.829683052447395,15.733108525260192,2.816499600753092,-6.375440929696806,22.590015038234043,13.030812684772973,-23.825888636370195,-11.66092503779716,3.170335949741927,-17.054512348665934,-1.7591461335932284,33.32404640853241,12.833397880923599,-10.172868296033796,8.262326068407768,-2.2106165686371506,-30.980724657555943,-7.902594916982315,13.87368702765842,-6.743422845043565,2.183126392958406,30.46464475353692,7.609866554600163,-12.819288023138176,11.664801217066966,7.775379839808007,-18.329508407736956,1.7274660505975437,16.521516812363757,-11.834979607827558,-6.673130180350201,25.047013189362314,9.524843065496924,-5.947273333558099,19.32226064380892,13.256719543287081,-16.242068732124622,2.4551245304001146,18.664962710741584,-8.777047239297461,-4.72900426971206,25.792124952057755,10.783501368909297,-3.0031795226779465,23.498223134915904,17.719076642674715,-11.90704016557862,8.135494571017,28.864039556624167,6.136130210068176,10.370710785145477,35.54347645711466,11.987924822680107,-8.57582411637437,17.037765432624152,14.306860988848042,-13.724405142804745,3.1575349054560906,16.03975953326016,-14.95491662431887,-12.791942688260141,18.98646351614436,7.152741947972974,-2.4868094082940706,27.29088477737053,19.554630792889107,-17.85867685361106,-7.529364106721722,5.729886594885005,-17.529915795401095,-5.37179321041822,31.000620195029665,15.498994248292192,-2.799248723844799,20.632110791585816,14.887051719995387,-13.538670645855712,7.260739524449878,26.673651246391945,-0.013507026982225057,0.7770058366307824,25.635902034898322,2.894520180689261,-17.675549599146464,8.378256377916525,6.952732708567601,-20.27552781569235,-1.925433172758929,15.364505180072419,-10.53103151645264,-6.118268353551101,24.84674295606039,7.92260982590176,-11.44864181958198,11.38096473159164,5.8743344265239275,-24.059026575701267,-5.98476696405444,13.237909730116494,-10.520692910622136,-6.037194691275871,22.758981564894118,4.5832923782391095,-12.843008967129597,12.625253447193845,6.996353377483098,-26.932138826776104,-16.360234677481678,-4.549615090912075,-29.776569107746216,-20.15451911199054,14.063051631713899,-4.766223204495743,-29.178019929439312,-11.379374548131153,-19.098472483579652,-46.849399517089914,-24.146657916238482,-1.9636406942212226,-24.664855169034816,-16.048843985362623,21.843920498161303,12.240527048360477,-2.1978431690023035,20.88518245636493,10.107586116196435,-25.633925469118317,-6.7840025251074305,18.894374952323073,0.07470564867384866,4.521296910259067,29.26771846375238,3.8223833044561566,-21.374848904597375,0.5946669528187591,-4.817247686627834,-38.53008881516053,-26.186191942042775,-9.950948680480614,-32.07270413976151,-19.5870810310918,22.958612084649292,15.813084599424142,-1.0766811971458408,16.981190231904726,2.504153929831455,-36.758390885847234,-22.807533085976964,-0.23590040087060782,-18.566528482839114,-10.963572749018303,19.918556926347456,1.0727595105163275,-21.35609643068317,1.140115736766429,-1.6041747642178263,-30.014464385181583,-11.77472359106824,8.154711036277167,-16.351419479355254,-12.85863555910103,19.406280752842065,6.293464322663091,-9.63670704212851,16.181519178699318,11.045406983042811,-25.13975760032119,-16.564013623462834,-2.939509976972861,-27.012397848553938,-17.48759142577137,22.16425584044854,12.9696916264684,-5.550308872888202,13.464129247723896,4.021667488265649,-28.908037430196906,-9.851365356914837,15.237719286803213,-4.887141162703104,-2.2320614075415595,23.744452259931546,1.5524426850359632,-22.159457594162877,1.2835881094779857,0.9681717013855078,-23.85884030775169,-0.6402604127413944,23.629424331077146,-1.100199910515066,-3.6433582576518466,19.610718325296805,-1.877429988896246,-23.60618790059358,-0.09110477804545702,-3.560310624025294,-33.882739137468675,-15.238164818336413,9.382887213755799,-9.725050999454718,-4.507562537639888,25.404144112236132,7.39005366594147,-13.383955597896918,11.473445773598469,10.308269919021093,-19.380812669930414,-3.1414491383045107,17.968070583568437,-2.1188775336871526,8.555650102671049,51.72726388830615,51.1470921708482,47.39156342882634,87.80984480271114,101.59927052894375,87.64265542989511,120.64343749867461,154.87749735378523,137.59602170924725,138.2984258205318,160.83181004630018,132.976885593387,98.81387813695844,107.1382194911113,85.908931374528,32.12214429831648,24.665648440235103,27.221857115041118,-9.314982481333642,-19.321646516672214,-4.172572165875199,-41.000416134647004,-86.54232023653294,-85.11117573257644,-100.59564892168966,-135.36129576426865,-118.4329668734062,-95.34693344155998,-118.35652260448262,-118.93569204799822,-93.38088048121823,-115.19581136113692,-141.2972845451402,-119.88622123512891,-119.87224681214934,-145.2397846283928,-122.49008991515021,-95.3431949806231,-115.3349248465735,-111.4214995942463,-78.67828101408574,-92.7868607452543,-112.47519799667036,-86.59744912593008,-84.91673628835228,-110.86030450018876,-89.05252515575552,-61.35486657654759,-77.71210337806359,-67.61884603425992,-28.297885891302272,-37.05685938153485,-54.82533136087258,-31.267045231853004,-33.12717666208786,-60.585460202105786,-36.52246691409536,-3.397961908816482,-16.42004521197217,-9.222565220348672,23.478175064889523,8.779353622099993,-10.966631943873518,15.866085467389686,18.19846657775363,-10.060115866054725,8.561490830827134,36.27475309776573,20.993776823412823,28.813971126463535,62.34071623710939,46.43247267765531,22.943278910520096,45.02910248783343,44.27717685429872,14.1712283909587,29.806302667637862,53.438369236997545,33.883691544211175,38.24611098792596,70.04484204208413,52.776935417546724,28.03979917841336,50.77303090569615,51.82095423514218,23.261838508776577,39.47441875055751,60.875455278579864,36.823082326764535,38.04707463304844,69.98502033877044,54.66614206980461,30.83016696798176,52.15776063242647,50.79558164339876,20.908446841266148,38.30332365977848,62.52049315472395,39.78563892523677,39.295871676122516,68.26156183928914,51.659815015806615,29.69979248531987,54.31712297449493,54.207199176370146,21.704057763566368,33.77356538622136,52.78888385442566,26.88782357822541,26.117129693146293,58.58552044759948,48.1323998268257,31.6810025389573,59.40199397300006,59.2246510078091,22.78934367871559,29.419345659806943,45.27359978668726,19.228264648773493,19.292713114527803,50.828509107546665,35.447869976096285,9.971488025413706,28.391103235199708,25.35336585209709,-3.9896461424312246,15.706730902181878,42.75991578897498,20.062245347426874,14.71433517232923,36.8028141517279,14.910802262195535,-9.06304227847339,18.972202122527385,27.3627907336038,3.3703279053437463,19.98278893429281,39.683857858924554,11.48570646717471,6.886844201628448,36.62251872426492,23.326988042304198,0.7429847014894895,22.15946732499153,20.516046513588517,-12.59534892253601,0.8957868773377324,25.35984225282003,5.367799718642393,7.361749779534905,38.58895520715803,20.62918576750514,-8.718849179277544,8.163922465423832,4.918062225306387,-27.290832216562755,-12.217108731157886,11.352404798540316,-13.545726038166842,-18.98910701149382,6.993737721007193,-9.37505247596831,-31.07941795578696,-5.089894742470262,-2.041431399210382,-34.091241004228905,-22.728994292096118,1.5605826131163996,-14.861517494222767,-8.739224610753892,26.107940733493525,11.267696165215277,-17.0318266419239,-0.036541352828853846,-2.4156166470604363,-35.18824122637467,-21.75288487676633,3.428436386316447,-16.264284053537878,-15.915581467691489,14.397187265170043,-1.1923656188604514,-26.251681074280995,-4.726907726024621,-4.659930099303225,-38.80802538743337,-30.48785904384564,-11.896925832509556,-36.69669528993009,-38.483631640028335,-7.410705644845402,-20.770757342761335,-43.2994805735648,-18.73695424114579,-14.66399486208571,-43.02719316092691,-27.14846779185185,-1.97068810430709,-23.57431277380718,-25.22165198709736,4.185443364554365,-11.819141458839132,-37.645172145154106,-15.958896244776176,-13.418458154491374,-43.19238923687595,-28.87173609693314,-4.068517547869602,-25.445242704570404,-26.732210196733007,4.0411278326393685,-10.883376763193532,-37.887030157441195,-18.661615120090374,-17.068292902553964,-44.88241979301628,-27.302555962371958,-0.5485337974955478,-22.199502935154396,-24.712869237391345,6.52515724953256,-4.729447897947988,-26.50123212875401,-4.057542217046773,-3.6744479440902382,-36.093860290798034,-22.68899391022874,3.302410334808328,-16.27043516041737,-16.25647120396091,15.998089644791609,2.521615847285723,-24.77038362038212,-7.974945222226126,-10.122024630809344,-41.72581171772664,-25.4003515071676,3.6991499672794586,-15.507693649960123,-18.227515932255542,11.864591530192463,-0.2964979469407858,-23.137265408023637,-1.4127356820496537,-3.126317581658449,-41.29639203571621,-33.68190288829743,-9.111464883695414,-27.273925869241904,-25.982085563992527,7.208469698550751,-5.144652279021086,-30.001293229289526,-7.1383684526142535,-1.1224150027489699,-28.079039879335042,-11.686580453198314,17.126310064653204,-1.0815471107361763,-3.8927486950745243,23.602934343330173,7.0689902463208405,-19.969032626835848,1.8505917997357795,6.437318333037053,-24.70001327835699,-15.10430747302382,7.236159621165534,-14.509133953504314,-15.404249509584027,19.21022882434767,8.841265442089743,-18.541729524459797,-2.6121689217567106,-4.137213286947047,-35.12855131898561,-15.861685640007009,21.525040519797106,11.11651950065404,10.930169098364082,36.88373500028457,17.131323310809464,-12.743945243713478,7.427790998462971,10.87384426576708,-20.03066787654402,-7.325131707976702,20.042051651986977,3.0619544564264167,4.117069859014679,36.62120392636825,22.28238737679075,-8.093668331873529,6.5504810439356,4.181806254970714,-29.599071865459074,-15.810271696468304,15.55922748746326,1.0030159491726671,0.3809107870941122,30.2438362064579,15.137485152508273,-13.774293832350462,4.885457038558718,7.532668435035456,-24.20397709803916,-13.492847469464321,11.833633657754241,-7.028847818203266,-6.847539256660198,28.252916120970973,18.819625403978733,-7.941108640774805,8.786433046405847,8.039379106349553,-24.805255221969304,-10.750046664820367,20.005321260866815,4.58972273519954,4.622125373942097,36.16507028371792,21.866695732569283,-7.261197710868443,11.858779578092683,17.050976741348357,-10.47148897633157,4.334338639647465,30.741717173007146,7.562524260298247,-0.9110110006903114,25.00448281297229,9.221893725139825,-19.31783638327156,0.48623017172211114,5.9040238296335215,-21.450016886910962,-5.028036966743772,26.265529746599636,11.297026802832367,12.137734299891797,45.57416790746739,32.50613253958692,0.21256359056538443,12.648069130308981,11.92458097580155,-18.183305539069586,-0.7911726286673826,32.53290885012497,14.08491443423069,3.8174183964524238,25.243130094867233,7.06527346048217,-21.196578417490088,1.2078410293229798,9.808464433013837,-18.136448043175044,-6.5958296075056015,19.588436663444863,-0.2053411268652905,-5.352264680924242,23.007659141958204,7.801695264690267,-22.16319216678479,-1.6134668553930975,7.8048478766608085,-15.800881959106423,2.524785935772977,32.139418521824055,8.858732025984153,-2.478248598979344,22.752655112285954,9.172436549469245,-17.273367406483594,4.821541993255213,12.262209730460112,-17.028169103853067,-4.410303135564753,26.068484670686054,9.77648937682439,4.605703014970245,31.88762591694483,17.718290742084584,-9.649844913526675,13.295017471535374,23.530598181241295,-4.088876204175387,5.792412721640545,29.630559485132796,6.71650939034542,-1.4502013375076934,26.579159571578334,13.398159298189501,-16.460192292948996,0.11635035143129002,3.4699829201582464,-27.03315903715103,-13.467185599158054,19.593057020393445,7.032021117367377,5.921696461893429,36.51963213599797,22.906762479785925,-8.000219432804046,8.826642974857135,13.770736221162304,-15.231406929277556,-1.5613001814424745,29.622502983358448,13.72357648540103,9.356675555693405,37.82910238372671,22.223015289897024,-11.39784428045627,3.9517192221759423,9.31412915561449,-20.13732917137525,-8.744081175643124,19.11661023070067,-1.8089553943035224,-11.08779060025978,17.064075085845538,5.647637759176915,-23.375155024450848,-5.177948412446037,0.857320951467144,-29.62962621879967,-17.4921902316999,16.40406568434271,4.742685374290735,2.011936100111141,30.287835645234885,14.012335246925588,-20.584987048271305,-5.297850018420654,2.148640574582935,-23.960592342179133,-9.415582257836856,22.055729828442608,4.893822758071668,-4.6492958279826295,18.190527561844846,2.5107275335623616,-25.705268386633684,-3.7341803251569026,6.195759755227483,-23.38560291976404,-16.099407970858135,9.489263384331366,-9.01691159146192,-15.389039107802112,12.07394036082566,-3.0351122042560217,-35.895425675923946,-18.514584430835214,-8.9307867803742,-33.83604110271281,-17.066871831093458,19.203538415645543,6.581782848172751,0.4647857567547471,27.065430170309142,12.169371044025343,-20.780290016064527,-3.728899263827909,5.670056699909984,-22.1276680626767,-12.599740416238454,14.889619489257498,-4.952748329702764,-14.686983116992511,13.4810550076637,3.619810364442756,-24.48529873350409,-4.183053482408289,7.1870721346026825,-18.79364516802083,-6.876398041781844,21.732221163918254,0.04862247296486899,-12.543780798514263,15.048018586765522,7.339784864326802,-18.541948097008785,1.3453784006821081,8.657915984936887,-23.878270743727857,-17.222007745084156,10.754605972933932,-8.031193385629996,-17.955446002931488,9.835494126273495,0.8077839166728218,-25.570606699632727,-4.443744109248547,4.808507246586679,-26.958644897505074,-21.01545326386161,7.12757361835518,-9.42744340891461,-17.635890534688045,8.569023196802641,-5.877494285008888,-39.40084455716952,-21.778430196560116,-8.386526641103703,-30.88560748748519,-16.19780438971589,17.100142622131393,2.325376366421702,-5.595348771643992,20.96386109947986,6.729171759038426,-27.861065664758605,-12.905196034688108,-2.6403756048348788,-27.66256199152124,-15.014508237317786,15.749554759466875,-3.6037037302005697,-17.099778887929915,7.368316710480967,-3.9792445253943765,-33.8182949209244,-14.906101999250474,-2.9737038708248544,-29.292406789924275,-18.49904103456229,13.69450372721227,-0.19241834788514467,-7.10757049702943,21.99423540538104,11.727485511857981,-21.405333924938155,-8.44254739778571,-1.0108031613141484,-27.737840790676124,-13.0882780227563,24.75982376129055,13.418626956867435,3.7670578038446565,27.788318633484792,13.986334947748164,-18.101251561820625,1.1623938419507525,15.423283202433652,-10.243743695404149,-1.8730641370870895,25.812686335530145,5.740604786596499,-7.810669490964418,16.848105314821424,5.623781765401885,-25.505866520492717,-8.743141917121303,1.7800749215467078,-26.4033341322751,-18.884498054599444,10.49603195338495,-5.06813392177647,-12.406811786557425,19.171371482930546,13.234233497335117,-16.73075949415641,-1.0599543476755287,10.134137154692844,-13.53689704145063,3.162805553839304,43.642530272817794,33.8861104317384,23.241668471083834,45.11008134249656,26.56135585263305,-15.779960580701182,-8.498312630288876,-1.066246555899466,-26.96420060989993,-13.869537766412867,21.203212741017524,5.333619852969118,-10.501679756497804,10.986106474036127,1.5874830867053973,-23.020775974405673,3.5903068140294607,24.613212187590403,1.0287267438471943,5.377706516350336,29.961914816617266,11.58516847240149,2.203598477138288,32.42501546836883,24.963970203121107,-8.352263155551707,4.148581847098354,14.100195548466829,-12.078079082137267,-2.27190886549851,28.755525352265018,10.486687209280031,-5.656453389467312,15.898086823520519,3.046937434785608,-30.250389494181352,-13.575101527306028,0.8078709129689559,-24.04830035478892,-14.89186810687789,17.0092828271547,2.801755094734066,-6.162465855300304,24.390692784238222,19.44707231237745,-10.008015100260026,5.972507005041011,17.49006193354543,-10.032019685875175,-2.520787547540639,27.937300581513227,9.41384661344286,-7.9344094064342485,13.717083667418546,2.528376597511187,-29.601029358668356,-12.597385363967554,1.330385577420849,-25.222282678044163,-17.55932952099908,14.825961526651637,0.744677650672589,-11.409085551688523,14.408911215136849,5.622587187101827,-25.99443350439327,-8.944052710996731,5.9015307500119345,-19.85708005424283,-12.19435411311075,19.527426771419325,3.7572331068117304,-9.895111790491635,15.294335904700363,4.221227862436507,-32.214398019990384,-19.258552541945093,-4.9207796697332356,-27.759393420093726,-15.652446905695609,19.945794993802235,5.820192464164172,-8.474859692523003,17.42802527664233,11.87283791615615,-17.494812447638132,-1.246788244540003,11.998771643010013,-15.496322791673228,-10.013372823049824,21.513853877761978,7.284752863398834,-6.412844247844554,18.39723520243195,8.679965690340982,-27.247518157405718,-15.871467807925633,-4.05125724873751,-30.87543287365526,-23.179452989002193,10.566445721521173,-3.2870841675658173,-17.36275400338612,8.226438094311881,1.7494791828008394,-27.1713299575232,-5.845270702262896,15.457904147313947,-5.720257094365001,2.116596454792621,31.415611109467267,12.035804730435316,-4.526334220744763,22.79460024800828,18.684805423524747,-11.677276304169006,3.575492071995093,15.690381276339794,-15.095840113259317,-12.7843868132903,16.88054778348995,0.1350958911945792,-14.880435609238006,12.883930099952583,8.46188426858966,-22.75400625166883,-7.306089019990946,7.418444770154928,-19.180382282169955,-12.364632218280812,22.386687327596164,10.782327737078415,-1.9599384460918485,24.212704464293573,16.489424626032445,-18.784772883634126,-7.036385546906228,7.356611575935596,-16.232056671472414,-6.513499797505448,28.59868404600354,13.153938877769024,-8.060873998386391,8.922741180043007,-3.2085673249266,-35.4672013760788,-14.152802623860774,11.499565594645372,-5.561651061128053,4.138228951976621,36.082487170106575,18.388647055736868,-1.170670273164716,21.313755767670116,14.396395136214402,-16.93836922369242,0.49369215546584755,20.05354726868419,-2.5827119940881893,2.420531018881885,30.639834393064152,11.145853539016931,-8.404670173851525,15.518352376494676,10.591761125506071,-21.26530531978712,-8.519650745069967,5.039183929503228,-20.220727166925933,-11.63449778227744,24.61716437349724,11.76101220926673,-6.806039693078392,14.361730546574648,8.495030081076555,-18.546116963127595,4.246829738256709,26.606005184244182,1.0666214538243324,0.9150756831988227,27.96442872657824,10.898723905761344,-6.1389180766978875,19.42752569422278,14.128148178548962,-19.715985949367223,-5.6926271138887135,13.678513715440005,-7.232529217953941,0.7636338165337362,33.7173381290481,16.646711476225672,-5.181580568407608,16.330559151940932,12.166147305449353,-16.66035510310924,1.984382773600366,22.34257364865386,-2.7343008460594422,-0.9935544027410579,29.51197955639453,14.548887591549953,-4.1882623711246385,18.31579656860677,9.954780564987262,-27.748011249324957,-15.229932302330015,7.920442914766235,-7.992615079418053,2.650401375539176,37.988245636909525,23.154982251615486,1.7330622005403313,23.130565701246205,17.929654800789063,-13.817032680812995,4.9725988324744925,33.7448854657055,24.24904829015068,44.79066972597889,94.59481804473667,99.00302733990054,100.64377326919188,144.2861446412988,154.91798052651478,129.03476806257083,142.16489733560277,155.56515676489425,124.82546827979365,119.97723072250963,139.1370250054835,104.9355929534062,60.29105754041312,58.023589703542044,32.23110183783066,-18.44160495974731,-20.47952817983873,-15.843715220844771,-52.599648493520476,-60.8282014299776,-39.988638168989404,-68.4176290846351,-106.61046495431034,-102.65595690723421,-120.5941065855377,-159.87511476229454,-146.77987960994267,-125.44883144232547,-148.07805811820086,-147.0324514779462,-118.20557440351539,-133.82040519764496,-152.4166421695485,-125.37865817357579,-122.79996987259477,-149.0870987605351,-130.25138425647287,-106.52935509626911,-127.16580828799631,-123.66528849461794,-92.54593467959222,-106.92329489521094,-123.92686702404066,-92.30308053343137,-83.02281703473975,-103.97016089849835,-82.90049516856257,-60.202382336860985,-83.0983386597319,-78.00214696852855,-39.72617813934905,-46.686379348236535,-62.04276608988697,-35.75473325089371,-34.40009299935609,-59.42612608835965,-35.63425349159185,-5.877935035771719,-23.85402934679583,-21.18170731256989,9.494623620099409,-4.227374957410543,-23.312140047455525,1.9088249184761992,3.417575053320756,-24.04304192763618,-5.490665088582512,20.943802919170153,3.038508104662988,7.496955696328488,41.13079747316743,30.33156892159936,13.403990098713024,41.12142847580625,45.04008684940476,19.129096831149557,38.79523955945014,64.78348671154738,43.729384841256774,43.412319314395305,71.57913633875133,54.50950085046327,31.182623512778285,53.4412814024271,51.713323755928656,18.104372805783722,30.11238122303495,52.831692863641,33.84586969829475,38.7685801905319,72.10663604920614,56.40467550307858,29.82551041677191,48.248546037788444,47.08919194108475,19.54402570698273,40.10789135394341,69.31727585563401,50.920054425055774,50.63456614455147,76.86708763301232,55.32423308678487,26.36757888030786,47.534890295888246,51.21688822085182,24.923529138130675,41.68864508462096,64.42843210552823,39.727532871370826,36.876450677374685,66.69811074052163,51.75984143646879,26.287647683460733,45.19149993991235,42.16660525301673,7.921555633195622,19.537251685559553,42.12196563854483,21.407235069917725,24.164239218408795,58.91444314048549,47.59799633474084,24.23177196331038,43.510230982182655,40.20202592790413,5.64044688439642,17.10146356332458,41.135230310264795,22.814352973235287,25.97830071005031,58.63043341500253,43.13208679673633,13.37999813422702,26.906572312642677,21.64959818608471,-12.228407413171848,0.8105290960141645,27.216750500993495,10.544815605272811,13.972346960616616,47.69486054073623,35.05189984348736,9.176249809194587,26.50385723558061,22.654935212247274,-13.183356460196794,-4.3077969129183415,16.421588822604043,-5.799599730576796,-5.655517304749682,26.70809039861263,13.53047516949766,-12.16009046008659,6.4237227685333504,5.518792460385549,-25.518737968228166,-10.003256702819888,18.125795409314662,0.11420664514999679,-0.9580793916614616,27.73348015380791,10.873700009224285,-18.757288529056346,-3.1055183762183027,-5.300277941891309,-38.20693990842524,-25.137613684903414,1.8475375966809349,-16.592014477631345,-18.485875727437573,8.82552650930338,-10.16369554965656,-41.90532208671633,-26.81049860679941,-26.966458461779364,-55.14833996871603,-35.56895655232136,-2.103085402834333,-16.521212866271412,-17.242446284987885,10.867395768755364,-6.370425216745174,-35.31549548010219,-15.167876619210716,-9.285856829517051,-35.05027106512644,-19.100035420300422,6.149923741182825,-17.4525988512559,-23.818172238152915,4.902672805922224,-7.441857736713102,-33.05471072011671,-15.086501744556058,-14.724184033223167,-44.67339910231481,-29.143669875056375,-1.0251469100870985,-21.710640090275092,-27.84052667931845,0.2885390873655229,-10.261881588317728,-31.45608077430947,-8.500911757444804,-5.660654151451867,-37.16087510825471,-24.206064543343608,5.012078528078391,-10.4837700113877,-11.723007219145568,16.933887495411728,2.056858377301241,-25.273699686982106,-5.40410861785192,-1.1786331968766652,-30.689415825314335,-18.045358835110022,9.005234338747313,-9.708124177192776,-13.361442762014004,15.209506537542719,-0.24219351599325023,-31.836938345692477,-17.934628347381064,-16.813198659499882,-43.83917750664893,-23.53874694880016,12.436460163622277,-2.1348398108974695,-9.462918891854844,12.101728217184354,-5.292731781977402,-29.688601817874424,-3.0303214533907976,8.194823357572853,-18.198387141512917,-7.1289520566641515,15.978558323214427,-6.934145030574042,-13.86727374586985,14.039003340700974,1.580865797682506,-24.151724254770492,-3.2744979678681307,1.9232210194418364,-28.612763964686337,-18.005250037435303,8.42479321099838,-11.024326065129694,-16.336727210162266,11.88128512378126,-2.728229361374611,-32.323385732412966,-12.470552256478161,-3.652279517007514,-28.768256833720724,-13.99385514418331,14.510353207336491,-4.035908184237961,-8.085486060527987,22.318319786187885,8.89268499513888,-23.047715934848416,-7.767359294517943,-1.665926020219888,-25.861838526596785,-7.829131684553387,23.324248284713235,3.560478376318086,-5.786833329548606,19.63883440627383,5.8603484702068105,-22.596321524107776,-3.3655804722945692,4.464913879228459,-22.118695580956434,-9.027338246280161,18.92102835802637,-1.0567684884394506,-8.803691194108458,19.37547541414515,7.363624221610809,-22.302290134897646,-6.09439565757258,-1.6500516823205835,-30.741197852041616,-16.801846346693004,15.755375226813008,1.1938642356399232,-2.6380226306479937,28.061429058345826,17.03498254450441,-14.23718637129477,-2.0449819700899994,-2.8835199924226416,-37.602124794460465,-27.609968708762644,5.057072298805037,-6.363287413101279,-7.985132424110874,21.84502070152773,9.379715400197949,-19.76533464535163,-0.9034728080658496,7.075960859150298,-21.29670957794518,-11.754749171533458,14.246429713608759,-5.641841332251184,-13.198362570501885,16.35775959886857,8.318971314233998,-16.148995851708715,5.28829698592568,13.165129216908577,-17.704173334361187,-9.553284232456193,18.43613520881391,0.7746903387905579,-7.39143955590173,19.332286678786087,7.75938837616518,-19.153651130641602,2.6574770108001218,12.885588687917608,-15.99200537008695,-7.098013544868406,21.096127773061735,4.486120662129061,-0.5632664512636945,30.965140745669558,23.03603356153161,-4.475792791275607,12.98743868816998,18.338162560873776,-13.789713906587904,-5.510068338409901,23.897746704417045,6.4408464345794645,-3.2598000670203398,22.927542007567816,11.492606545593793,-17.290178564796943,2.1175179559528328,12.1798411250305,-15.909260938499003,-6.774806002156609,21.540086114005614,4.435708822055622,-1.304780419170038,31.203167766781377,25.274385028853942,-1.6188146798929104,14.850009254110425,19.207282874973515,-13.516642388860221,-6.394319279360186,21.35392176283459,3.0801328152458147,-5.820911005300948,22.479147953633607,13.180637258286923,-15.397575409161998,2.2844274913188514,9.87225155606398,-22.10115152552713,-16.913639222581985,11.309570412693834,-3.295812799854568,-8.395623583482237,22.78063723716712,13.941866348483938,-17.743566334403944,-3.4679406135496986,4.120086743194444,-24.340674631577652,-13.373161864417384,21.7535333904528,12.924099467620273,9.227812387503313,35.84829503190262,18.760904324851296,-20.312499028609544,-8.775467367313727,1.7027105037312191,-20.564498949851853,-4.1218787296497705,31.945800002896526,18.226405811737422,6.920061499102871,28.64265560590082,12.589658437084484,-20.321703817988638,-1.241421153956166,12.2728202943619,-15.68925536249232,-10.268469360706419,17.840400246736902,4.087124813893725,0.05027452082354744,31.884089366909375,21.403459428258007,-14.95466671035757,-4.536443143306408,3.079262388269307,-23.64356730329291,-11.415792449619014,23.61941139159699,10.655233196688382,0.006205030576202919,24.01492901994954,11.382141274791271,-19.62814978571049,0.6523842543481919,16.4448120906826,-8.59691738853432,-0.07298824495626022,30.123379038599342,13.85514962009826,1.8803019608903013,25.273707665944073,10.780302532667953,-23.893551494266173,-7.550518369661334,5.590342962997641,-21.61907627302552,-16.01358754840021,11.89185443457963,-4.298696241948667,-13.354267890385199,16.21849832753971,8.684646541625028,-23.341332926004725,-8.639559174269504,3.6299969968363266,-20.705069877618577,-8.211571554300471,28.10816502697055,15.921396542372076,3.561915738933078,26.000937129866998,12.191042599257301,-22.19598634419892,-5.419937265215749,9.811776018211253,-14.331696568792509,-4.428322942337795,27.52182523108292,10.31613341191669,-5.2473596944789245,17.48440535401312,6.5954158947720884,-24.67559650646858,-6.307251584113333,8.855645282327975,-17.606795891049202,-11.785731708404388,18.24625674986519,2.5531940032293647,-11.073941924311734,13.840986346981579,6.252441108283453,-22.40834385815828,-2.495581287022098,13.636752912278705,-13.067945485396734,-7.568069117900402,23.607796034983018,10.44327806885184,0.03095975632390857,26.079096589355906,14.674933963271304,-20.48346021657641,-4.345548933134129,13.552619441020326,-7.651369411142747,2.461070316301992,33.54492532320406,14.259242933286806,-5.925608459690045,12.711506195282112,-0.12520149765425437,-32.85236538464787,-13.985979539886065,4.721523684582342,-17.98107574678717,-9.866843311448735,21.095296387693317,4.910449536016614,-9.29285860114321,15.855645882052935,6.308846200411576,-28.75186103581822,-15.55541171400813,-1.3902247323114865,-25.830111289390913,-16.941898856838648,15.215504768621667,-4.0628547535535855,-25.545872800285508,-4.046704968895202,-8.925477831230765,-34.49819652669469,-12.778146748831915,4.4831756332847394,-23.354838325084707,-19.89168095094233,11.009631465138721,-3.7002910079888824,-18.871674500331824,4.833357440770783,-4.060781260503847,-36.62173348038946,-19.72953186480322,-2.3795310510370946,-26.759821037504736,-20.160733511005226,11.416600649259536,-4.351946198926381,-19.46867499238819,7.841130077182449,4.874773689837014,-22.638889268134456,-1.9333746166729266,18.864811085477704,-3.7067834354309603,2.249512935516007,31.660902620445945,12.434192979723562,-7.458191540687331,15.056384299578324,8.732253256295662,-20.70117869953178,-1.6470442520646174,17.159979237120773,-8.111870708479238,-6.235883996620439,18.81471884053589,-3.1801870710240827,-23.467053481069517,1.7319786461517879,-0.4496983784356834,-28.407199754696766,-11.024647749187004,6.039641185914487,-18.539084605074763,-10.412267436375563,27.26966796425373,17.536104410608978,1.5057575359221067,23.04363414008455,14.082754666929466,-19.224570348962814,-2.627259344427321,16.95606612479562,-7.582842019371892,-5.248695324265908,23.788891536299836,8.913731427780181,-3.9398976351968114,27.300660544516568,26.570833776559933,-6.7963965669189275,1.8396927697689662,12.776610774154763,-13.589052508119298,-5.367740059470497,31.616350688533984,19.38292103955411,0.40946401355788264,21.171843732305607,13.571725795440353,-19.57348839167316,-5.1230707312769805,13.315354857217445,-9.053829687324635,-2.7877975593868687,28.83983078712628,11.372460843605655,-11.224016769754233,7.685784679066849,-0.8010732220500145,-33.688265458930076,-15.541953109579298,10.02319011850908,-5.008679026982405,6.8086823953146896,41.29019915452946,23.477668676344578,0.18895211462914308,21.16223908008027,15.127628600632454,-18.85414407184982,-5.926790701485279,10.961529746787871,-14.39139897631351,-10.00618039098135,23.009649883684027,7.400477378950297,-14.364716702626012,5.961718942577612,-1.0400068023439308,-33.63157589622145,-15.0898647711466,11.456262861610636,-4.754498798670237,2.3535034680347238,31.70208829957115,10.771603232110333,-14.510964259973637,6.050556165875673,2.716974179692362,-27.116665822864395,-10.52501427365895,10.16730148508354,-12.127253692306615,-7.314226800154858,25.267313621813763,10.591019952372339,-10.110882542948849,10.768180099106475,4.858247733235822,-27.09056441293765,-9.541155038881474,14.758567430571517,-4.922852003876788,-0.7506213343588035,29.813984509977104,13.994159317392409,-6.358568224975767,16.52185675604726,12.45300945320578,-20.43503967992799,-5.829258735496847,16.045520053028056,-5.0827665078469835,-1.8058111472565574,28.536127383019696,12.1701257345809,-9.495522694580735,13.995109493619212,13.610687248820698,-15.576030405315091,1.0566490193872884,23.912626218338744,1.8363971765306246,2.0596167896499833,29.669958146701987,12.204176731834323,-9.830920761542233,13.41876140928984,12.452323464309544,-19.816587075106867,-9.873688289834229,6.050544583986559,-18.862649767430668,-15.567881764049208,20.528063944620925,12.93430435909825,-3.67228485775334,17.97294404635747,10.526442736807308,-27.474685605035702,-16.991586045804482,5.802769252405689,-12.138500355243092,-8.480663910617643,20.117667603912153,1.3006537231977298,-23.772384471791867,-2.4176564979489914,-2.8616250546682687,-33.07661954370785,-18.57374417324496,4.017746844135162,-16.31511508322567,-12.615476911883755,20.806403147348938,7.864234039363513,-14.205690272497165,7.127595907704901,4.700404013916108,-27.74861533461931,-13.375847956850947,11.526105020321452,-5.88116394134928,0.05386947605943426,34.7934449963766,21.919935526526636,-2.451054324463808,14.441791101270875,8.622745908698771,-24.74171807430328,-11.044612666213649,11.853303736540056,-9.87768459876403,-11.113577673211797,16.637485294449913,0.38400900548843,-22.911749942368385,-0.8271436931578773,-1.1631195274617032,-33.43633365237398,-21.865038923386713,-1.0815594128946326,-23.227927137709628,-20.73431162944634,14.698206904551652,5.302117783438454,-15.485204529059956,5.814813268656476,4.282017299244836,-27.999079794082377,-14.657591246736915,9.240952059651317,-11.882129405102033,-13.587709015815115,14.544547980626263,-1.5664262184516282,-27.02161142565105,-7.546171886934715,-8.627259472581091,-39.567875775471585,-23.20031828884934,6.589441391695861,-7.637164892213306,-5.321822507207439,21.6408295195138,0.5385836751397228,-29.09639818698766,-7.650812177769037,0.342912831301478,-20.945893721059804,-2.299944827780621,20.585161394802025,-5.883391988442263,-13.234419820416505,14.71265109949789,3.9418649239448147,-16.366752438325918,5.0565984561721535,2.5008625273872847,-34.04915231804265,-24.877111234692006,0.489023752187304,-15.246390699619816,-12.343440722228877,17.437889549966716,-1.148277931646902,-30.177952962108506,-8.74505598365024,-1.7222212742417826,-25.135655520570943,-7.816567765079752,15.073863586149846,-10.370943995071043,-15.603873490143666,13.924660253145065,2.189737778734006,-20.604989709790203,0.3126512377371391,0.9190758276824935,-30.70859767427224,-17.397640285882105,9.707415115819016,-7.308433125117455,-6.214836125757564,25.076979112659096,10.238064637422813,-18.059309319831463,0.09998241579293143,4.053899680336533,-19.356530575980546,2.7347688551532183,34.72782921650762,15.47449450812295,8.811073687446589,35.43554614747734,26.118076689972852,11.859344677049666,47.346907698232734,67.91372306705605,58.44507498598063,94.84714119504987,146.043153358611,148.48078869966935,157.832991288713,188.4373694136588,169.25949659139917,133.95178988454185,142.29800160285325,130.93550365558306,81.5791248129741,70.43246144684879,73.36493976859795,35.39312371426755,17.943714951963464,34.86731070051279,7.615784859039026,-36.75358714972763,-37.28904584863115,-52.12229620132974,-96.32590761999379,-95.20294176718308,-78.65748019392687,-106.2480892978035,-115.9669786057352,-90.81387050079812,-106.52371882653411,-135.6078786246266,-119.80746658107094,-119.54303778812357,-148.84525775197335,-130.74713639782203,-95.58918992661091,-106.72411638369941,-105.48669686140963,-74.81554687229271,-87.76934632468479,-112.66114301146007,-88.39931158141022,-77.92030636042276,-100.93666595958787,-83.36221765526179,-54.22960326243772,-73.55457261709294,-77.88252236594928,-46.45571197132078,-54.317800863976586,-74.73549485301828,-48.12714342810249,-36.32306875965594,-58.25942138065301,-38.64487279354255,-6.988100599323353,-26.969282660682286,-35.81933166445632,-8.13294729406368,-15.7691619201806,-33.332511366055265,-4.0726906036099315,7.3577365206704695,-19.587134139661362,-7.520390774918949,18.978815534020555,-0.7922534658589893,-5.654031274696715,26.56057046223247,21.90550676403219,4.279410880092168,30.592597717263047,38.55920969947863,9.2196747380481,20.50586704943114,48.571469783827744,31.7197329343124,28.446182868690446,58.90057085573862,48.16943070537202,21.588514216248683,40.41609120466326,45.11998455241643,15.53245302738581,27.29647196167049,55.22561474524089,37.52515114873809,33.42983861768739,63.049218578009835,50.44423575316126,20.951636069473913,37.8502325376222,43.546843535743,17.19101320637214,32.11920040120558,60.89978585994601,39.95840420952108,30.16074381165799,56.37088198269035,43.64556537589148,14.715508163913105,32.58176223921208,39.292599906391025,12.04055157694439,25.636455847755457,55.27237842907504,36.450531894825176,28.905019548325996,58.4354988898861,49.710222145754074,22.487216019214188,37.68502582892188,38.28869672960673,4.063202826818642,13.198231352764164,43.840235660655125,30.07026338232494,25.978426451031694,53.49787532638431,38.452051979356156,5.695698924631378,21.36656633688711,28.92444088451181,3.790343204910835,18.93973751618931,49.28057617105399,29.899059198122004,20.361403737433093,47.482935096198084,37.02159435318042,10.151097096330293,28.833389396338237,33.733370300865445,0.9739277826706321,8.637830246656549,36.22702092403321,17.75772718001551,8.713324035692398,33.29423499405912,16.522723010904713,-18.137618362962755,-3.0847305098249844,5.676341689089626,-18.26814876646148,-1.225662682071425,33.531224189247624,18.36425862798479,9.575056431604605,35.41143932189032,23.298145104895077,-5.304855895458134,14.285903886450553,24.56400033226858,-2.4779499910328493,6.412986215818746,31.44294822087556,8.90511330942737,-4.2239690848875835,19.046962043198,3.8641432480116205,-29.919017809590933,-15.31631058625089,-5.528124812595536,-26.641377114614816,-7.3749883746103375,26.857595020129242,7.709294180449618,-6.492251802546271,15.863690878688738,2.4426225721786894,-27.491712538776333,-9.495274677924204,-0.40400727365043937,-27.432474097873506,-15.190341957300033,15.716450578986336,-2.359909906682253,-13.24413112865017,11.982104099006651,-1.4757675603312297,-34.88165723214164,-21.205674751107146,-14.122952924953282,-40.58223804049318,-26.304289913020167,7.85266554645035,-7.836494956884216,-19.649627372436044,3.191992440440245,-11.056479189871869,-42.744893122248335,-24.151833926161096,-10.157422493904871,-32.04449077152184,-17.681695495476447,13.932440897020157,-4.570135520938869,-17.615366745906524,7.11638177234232,-2.5763899440463884,-30.162168563777655,-10.654675793896235,0.772014942901103,-26.65392212429921,-19.561224474485293,5.75954827351061,-15.788944877420887,-28.515709675311136,-2.03751213298618,-10.809091478780395,-39.43292257252094,-23.084423948850063,-15.085826691578667,-43.04048138717433,-32.63594677325215,-1.632676888804026,-17.453955002547758,-26.817438485295796,-0.3134939041336562,-11.950331118107941,-44.298991049633656,-28.89334651112557,-17.918070924305713,-40.99348080809618,-24.5986064820152,12.357578660991727,-1.4495434754981105,-13.691343212403787,8.787734161599689,-5.429632535013354,-38.35704992954256,-21.44885099767967,-8.74368934986095,-32.81814545186839,-20.930713832055314,10.817675553493025,-5.851992607640367,-18.891358592719385,4.251876844264537,-6.811289379697045,-34.96549521759475,-14.154365635235575,0.10227309651638672,-25.225508489041502,-15.947118314657745,14.82321242234313,-0.06954868876288245,-10.343734776178866,14.233959243501998,1.044771870455543,-33.21348352097773,-17.390360675518604,-2.3445326697429043,-23.909417606862263,-11.59510533287732,20.75208726208437,5.381104799073697,-4.735998664934622,24.38018709303103,17.402824778493454,-14.5777029763502,-2.5443982240994494,4.886781759892629,-22.77993852285847,-11.403397980022783,23.709127764118417,9.716499378193488,-4.863207100175764,15.659392424180119,2.645473123754309,-28.457645930323416,-9.168335597752698,7.440863512879565,-15.577167584835442,-7.187105278165459,20.710216703410147,1.9598356593052486,-10.447242272036345,18.534926119076914,15.481418432131743,-9.861930720702361,8.697080708871852,20.86532715232407,-5.68606954365629,3.4001253450208253,35.83164273520676,20.049298054672146,4.410845438367899,25.33137191141034,12.451526986229299,-22.133372717838466,-8.830964321978827,2.798405179317215,-22.565132115818216,-12.253665178483486,21.49467912700056,7.105331474714406,-6.879869444953506,16.180464063001992,6.359118372331661,-24.102809256794192,-6.114639314770855,10.664159263302246,-10.129467272044813,1.8228854663093248,33.74425742953058,15.37677550692601,