89.2098162506231,108.02904863570835,94.66965081927427,81.9674759370674,92.52673186924463,78.28066461035573,50.90219126763345,59.07022256252594,66.76293512853545,47.616502815252375,49.85193108333746,66.19209874241413,52.398576616135664,44.049387979749106,62.324490000766374,55.02067205569357,30.014625603529495,34.93069530926959,36.11552190597893,11.32247874055738,10.771062841349986,25.47553443611396,9.120441988939623,-2.526093711191507,12.455060838025622,2.242978374685653,-24.20994646677398,-17.986837175141133,-12.07948758946332,-29.890704492639646,-24.176222557620395,-5.903528327943611,-21.929375021868715,-35.81192079352511,-22.449139436217532,-31.116285999308293,-54.09408582575084,-44.98350413123187,-38.18043862794697,-56.12420536009266,-48.20144680154072,-24.425843230458273,-35.07643188632242,-46.371232105382894,-32.844085031843946,-41.71195563185912,-62.4473513794904,-48.152892736333314,-37.257562368050095,-57.09353272750851,-56.38149763702718,-38.784778077721825,-49.320113545678225,-54.26783830105212,-32.26655697583381,-35.02864745438085,-53.672446794162155,-39.225657664205556,-26.060912162587265,-39.66964587310513,-31.80995842709236,-10.488095501312255,-21.89348515953979,-30.11061806447125,-9.672958560778108,-10.228120930468334,-24.512566789244108,-5.0209672209770755,12.09740862461439,-0.6258785485929774,7.4540431234153495,31.222288884339243,22.74340240983546,16.766224510150263,40.020260242241974,41.86189631287186,27.911837268532075,46.47469956718005,61.796251246609145,44.88137668990765,46.075491664636,63.0401595339796,50.84373478996966,43.970461470234554,66.16827733896173,63.27795353163182,38.084496719963795,40.289331256186564,42.04807227927491,22.035563737209017,29.76338201537724,55.40505153161091,46.801642583422876,35.36189654250748,48.01026604571685,38.60152336774736,15.820342071906719,27.580371282671376,38.38601040018685,20.51366350352265,23.60427249564436,42.635082053477475,29.916454389961586,18.947227444790414,35.10957058049437,26.8958477403022,-0.3229645605437419,4.189203960665499,9.143676103887065,-11.38738602402324,-7.4067159103694244,14.437520307111566,3.437873755929064,-7.250899071380809,10.134156930608697,5.612152959404732,-16.332402956980328,-7.30640483419034,0.19227301004648423,-19.383209667889503,-14.334235346770157,11.388188965712501,6.2961129372490365,-0.7247167028163981,17.10256723452319,11.979276643186608,-10.23126934066132,0.10874512294227934,10.402407705830596,-7.820835286267137,-5.388875466439104,14.23388099176561,2.1323030757305927,-11.159392304637063,0.9523641755261147,-8.714566696548442,-32.12848557728044,-19.25214531056754,-5.553607484497483,-21.887143448751225,-19.005979652118164,0.5481339338914042,-9.69396133190886,-16.768678833886383,3.231982912814921,-2.7124050466466,-28.726328745205674,-22.07966789776362,-13.504667825287678,-30.360606989854464,-23.793865930151075,0.21005304938768887,-9.214734092139823,-21.34460599290501,-8.206418562446741,-16.46491202765108,-40.09905555970303,-30.018547793621952,-19.244606383715137,-38.1509228083372,-38.30861129436037,-20.385601718356178,-31.918743381277874,-42.94550791983825,-26.305180147119756,-30.84926831003523,-52.96494186042505,-43.6954821333763,-35.389524476455726,-57.00578110664877,-58.96560701310541,-42.35513423725462,-54.23076257199188,-63.01001089723377,-41.3213289146321,-40.47552384792272,-61.01384446220509,-55.04570026496898,-50.996136983649016,-73.90837486245054,-72.44380314198554,-47.55844176603193,-49.97169632891008,-53.329232576055084,-31.15957810707239,-31.90216758834655,-53.094731542993415,-44.485038987214644,-34.89086534531151,-52.7105890134962,-49.32017791450433,-27.079068173871576,-34.97047344918554,-40.99802106619067,-16.338309603664328,-12.24098990005479,-28.23347847068203,-15.239070137837157,-3.4411067052922397,-20.08816859633719,-14.784371222696782,9.861271910874596,3.293639207508841,-3.7796489072690407,19.331749469989873,23.844212685218864,8.77117530194252,21.861461907349078,33.26949736657304,14.77676929874248,18.078558584795857,43.50933904537773,38.91408600611996,31.6999179165783,51.91410757472205,51.20804486279282,30.31356230996024,40.65380226198825,54.573052409399196,41.85842447090758,49.992164276954746,75.17004006273687,62.719669346556856,42.6045216923758,51.42990115650771,45.17162465631551,24.40699592653562,36.08901705265282,46.10232209853453,22.91774478034387,19.725392408536525,39.52607353383385,30.633747212618538,20.19087479972789,37.923532851395045,34.748520852636204,11.079803160890371,17.349113336942985,23.999407576630922,0.6520797835210779,-1.7848642326349968,19.16413119697922,12.342122821276977,3.79513952078423,22.961852112865234,21.030108788334516,-2.3155332176906107,4.087136832872606,12.519519348041579,-7.64058566605657,-7.234767907984004,15.45898305866613,9.261191420441044,0.055852144341709486,18.056421659348494,15.326428984403131,-8.77119695184373,-2.242660488630926,9.20131446339831,-5.698346795846942,-1.2668103133013924,21.06601693058637,9.849597781599506,-6.340558859425185,6.596247821244601,4.749170358947112,-11.975240254587945,2.7328902264752664,16.86022055634542,-2.6718843173314717,-8.283402459949103,3.5105900939352814,-12.984489134888559,-26.689840267740774,-6.51743850723278,-3.4075362248693337,-21.608949571511975,-12.268005930374429,-3.348573270668238,-25.754604127428063,-30.5967883168206,-15.151911087323203,-27.92056648453804,-39.15477617122684,-16.76233947510387,-12.105443762122109,-32.04310192489898,-27.695131068041974,-22.886324906022136,-44.432905104324085,-42.33641287253783,-15.783315222457563,-18.126447755813142,-25.36131441013838,-6.39396872058307,-7.378393357091027,-29.134250433150914,-19.828784627503055,-5.218753742916718,-18.549551377650353,-14.746675960600907,6.725078887016714,-5.842862661551054,-24.97796134640142,-14.458091288531593,-17.24510786736646,-34.52141476514424,-17.695233572588975,2.772777838868982,-9.6562418409044,-8.936632665497342,10.470928056302562,1.603862804565539,-7.962327198507414,13.549242904555749,17.838245121003343,1.3363624657694508,14.37289410493445,29.82189368865345,13.5600900260257,12.927744984497437,33.06829366309314,24.22608575974448,11.554468936152869,26.87271859542804,22.613340095207104,-2.8649372130594166,4.4940291135089625,19.73008633711172,7.839762122024745,13.296216415681716,37.84557998332723,30.683653979367993,18.328449945452377,34.27979372569648,32.14123186871421,9.13500149035677,17.664876280973402,33.27921593679127,20.462098995889736,22.164485656913524,40.46574073950425,25.442684522695565,5.345374599270346,17.05608937148861,15.520890076434434,-4.937064649952398,3.464513403010076,14.31207717913182,-4.716412691320935,-6.124732335331601,12.74356016824172,-0.0714403508525212,-18.082217896299944,-6.286400562965199,-9.557235804345789,-29.482191467780666,-15.968795199274972,1.1319716358727518,-14.834749480664172,-16.690141954923206,1.8773340470069,-7.47754590052709,-17.99479689409288,3.5487574190093536,7.614732349626636,-13.783392441106782,-9.247794722703071,0.14359702966905719,-17.375682407239893,-14.524054267259057,13.058438789337284,9.902966747665733,-3.5579040439541716,8.690397717463219,4.8372489324780155,-17.484391711087312,-6.4713816547290115,12.307522770065972,1.1908770566340596,3.7422218540369956,25.45103854549864,16.134187702011058,0.2717501336795234,13.48180200667726,11.42677249942091,-10.539599328388773,-2.0522433855496285,11.707222099946947,-4.265812650220644,-3.732135942886508,19.072174754474254,12.227687503092463,-1.6595800201265183,12.935310232928998,12.291992846193073,-8.500765068937042,1.6332676173438765,17.29422682283176,0.031200616154841043,-4.984053752799186,11.486516399823072,0.36717643751644236,-15.625588958861448,-2.9090146713812217,-7.441625064618828,-33.30069137206342,-25.988896359531225,-8.120015047979365,-18.04308224672799,-14.654150085628563,6.486586506241162,-3.0244694650704558,-16.053435986494407,2.732589117650324,4.27943223642512,-21.090431548039614,-20.886332741191467,-12.827290408990638,-28.593504977324628,-23.579211032631058,4.644430211978095,-0.7231983068995103,-18.63219951299139,-9.125542150820234,-12.13442798492823,-32.702633955799975,-20.48970932112829,-0.8413346231075982,-12.805345748351534,-12.22315332017204,10.279365933560223,5.2562980244235495,-5.43212848620492,13.61667494252687,16.984023655399607,-3.7957330663370286,3.0210044181469664,16.784640786962992,1.6947476217018007,2.1056569528307194,25.149705511709417,18.746995829260776,4.549687719231678,19.681621978520155,20.90343755105275,1.2764397535470025,11.385290565788921,28.341662969346032,15.788249949130913,17.480267287916444,38.95626350940308,27.92201018293102,7.8099456614854805,18.058024280208468,16.311750184048968,-5.6259280363415565,1.4157861911647727,13.490692995374141,-5.283964912810545,-6.838069357417235,17.305706420952085,11.807581786406075,-3.558011924413245,9.501537221013912,8.246884145855892,-13.444600512974732,-3.1480767915459964,14.211125795292165,-1.8863323503148344,-6.212713220118657,12.119813103970856,3.2152043808329456,-10.449089638110944,7.859923762800294,11.362293958581464,-11.225538867154455,-8.312887158829284,1.263246145710549,-17.57641080705083,-19.696499339886127,2.6764854656731174,-4.244266247660814,-19.791020302376204,-4.3771901089990894,-0.6248879428733556,-18.945899135676093,-9.839774711784248,5.038768348039788,-11.312777411536052,-13.437450266830773,8.532152225999827,1.7208727590633766,-14.775553244327838,-3.006571213922248,-4.640704951363506,-27.707473272884638,-21.79891708382567,-9.053273242008288,-28.063788661055547,-35.81369147735228,-21.75694950493799,-33.39171687418746,-47.8227091399882,-29.275822128045974,-24.076115868435423,-43.74903890291259,-38.05701082640108,-25.525153389694083,-42.007687754224285,-45.28769175604077,-27.403655745162794,-39.6634246673756,-60.418880895166794,-49.644346632777356,-49.83098669338047,-71.71236761180465,-64.38719528170633,-47.659004193651214,-60.77998821003753,-61.84092976767049,-39.868568842238346,-44.521613027493885,-54.872418214979454,-32.1701797365175,-20.578981913056914,-32.62375307966098,-17.64756053420959,5.236360064813804,-3.3582872872413123,-2.5736405136963487,17.690353782539,8.397425645314218,-8.00802408057216,8.507504796316162,14.769543527897369,-1.4600803107760552,9.822972619968006,28.856135501374354,16.619048809536803,15.553708570675143,37.133740503675966,31.332888533589113,18.615575293861276,38.02953864121369,44.680681986658556,24.4098469927447,28.51337282938138,40.186613081948266,22.025950539081535,18.070585941042033,40.21450566439734,35.302794148147576,20.85433371393356,36.289884716202266,38.86095770564739,16.962666951212377,23.90729628937698,43.102015305749696,34.434357540332044,36.69992049395003,58.37226606442778,48.328489767019015,29.15374242537198,44.359321795563886,51.71067663911051,35.31834281234259,42.83575470308942,56.36963658620509,40.10874538478487,38.39581083346843,61.42793431639749,54.54421787130877,35.50400172327944,47.34488034629118,50.72283931743381,32.604924746745255,43.03471931344661,62.459624133911134,48.776505728944926,43.86595018970572,62.098211513680596,52.735320766563575,33.796504957166555,46.3015419978885,48.40431397471582,26.242009859345124,30.890075697039798,44.55151953569072,26.706564329058025,19.384874709434282,36.506976205042534,27.878518223733764,11.119274312171186,24.736003481984635,25.265318338685354,0.3993414705293734,4.870213598404804,22.70202492736305,10.992107565420623,8.666927999946394,28.416049302181897,20.043374424664908,3.1113284593202506,18.590357873085054,22.516425155940915,-0.32388795684250304,3.1262555431880914,17.96725460997709,3.4530489517144023,0.11410610028832147,20.90850945213898,13.449740813623167,-5.564751402826644,5.045962949596422,3.9781578439744227,-21.347121760138972,-16.69863133417653,1.5490554909212788,-10.267814558422671,-14.025690523143892,3.1575518674939014,-8.24497633782007,-28.6245301968453,-15.605303661402083,-11.018928729673927,-30.839700997676573,-24.826941385336934,-8.922767720809363,-22.979962130745253,-26.174415986813074,-5.892292860843105,-15.122922787774058,-36.97964627149544,-27.40280715645512,-25.04576808014152,-44.10849277147143,-34.88556281723781,-16.6656630443602,-32.02264923044094,-38.692962885033666,-20.389098991221644,-27.93249339188087,-45.22550112026644,-30.821991083149108,-25.961597648706647,-46.223059584725824,-40.40759659634602,-24.091941250110835,-37.25250679422557,-37.56393950889793,-11.083457431258879,-12.007975356648458,-26.63080567621385,-14.195188181258445,-15.065865940651664,-42.41873996364295,-40.564641418224795,-21.559319387487278,-28.016411656344797,-23.837247058176303,1.1078750768355352,-7.770089290142956,-32.71823090692657,-24.804373602107425,-20.119551043106107,-36.91560696769304,-27.114144350467235,-6.421692457267496,-17.335630893220465,-17.706196320511435,12.424161982411523,22.48574675861222,26.63113618017463,66.91983271319987,100.1543811518763,105.59649312063138,133.5274799313499,169.20722948214254,167.09672325878947,163.27274000496334,173.60588543612693,149.73418941790226,110.63132900371599,102.94511111715468,88.83535003852225,50.06534617863214,35.613205329204646,31.774221865871024,-3.1396587853033147,-29.981294080219655,-30.11986288651586,-51.75764660167608,-80.4681852493235,-74.53516564980961,-74.88596286359795,-101.01009820272695,-102.31541473514525,-90.06485038136279,-105.3731433431789,-110.562081517564,-90.46059614455197,-97.53060849608718,-119.30293190246715,-111.81334310793031,-110.41434335791978,-129.8204368175144,-120.0849700113175,-97.97297941898267,-108.98135059625595,-114.66880154508254,-96.03008123732744,-101.22532279482574,-114.68097127509975,-94.20155440070289,-81.88465895729155,-97.42592766324678,-89.32936704855453,-69.85029300181108,-81.63189546717595,-84.22296158144849,-58.147031765639056,-56.31442930287446,-69.41050120135971,-55.27356947383078,-50.838351903780065,-71.10054119023305,-61.83892415569822,-35.96794506327367,-42.08045800055582,-46.28610140502515,-29.16840991906389,-37.313501469585525,-54.406628942889164,-35.8246038270661,-22.16025986351754,-35.45775491634144,-26.898447166232337,-8.150751377219795,-20.42736886777981,-23.987407220136348,-0.43683645570297713,-2.8947033538811313,-21.908776056122537,-13.53497377510541,-11.64532248563477,-30.27268522791467,-18.08862803634084,8.150759878008248,-0.2723347573987427,-7.048054045979363,7.938487890930091,-1.8429520133733348,-19.179986878927572,0.4084332789425975,15.428187685288488,3.9829991726737584,14.902128000247611,34.890585985377996,22.522961111021488,19.81760367573907,45.5264116790739,45.43876148445992,29.614457874140875,41.57403079673872,43.86603749092018,19.833374262460534,23.576468285850186,44.00692405908136,35.39751151776319,33.725019952570996,55.685484972077695,47.47248367880685,22.506256660809417,31.48946042271942,40.202526112205156,27.28371365322062,40.00047141699922,62.73610907833786,48.77021655969253,37.84972915823761,53.89420793944258,47.303644513825965,27.60669837325764,38.39733628149641,42.715583444186265,21.652754591022585,27.886645227536082,50.532532565728246,42.25939650916921,37.0691760156964,53.51010575885222,42.29325380435099,18.150189642245028,28.90028063763676,38.391419786144475,25.274859998462002,37.0063824268916,59.70823059286336,48.47412861619613,41.912169253313074,61.898681697884136,58.536848318331984,41.44235374065508,53.33175178780924,57.18218941884216,34.52084833298956,36.71970216018245,52.64142992723605,38.00690599348269,30.230844780225063,49.30449282698015,43.87480382996784,24.004506392022744,34.64272043666624,39.607324411670895,20.01311750478665,28.33169865645683,53.13412511276017,46.78359546820711,44.697268509900745,66.36898665979645,59.18186614547287,34.042654965321006,40.441025700440576,44.886447922301805,25.12528512488648,29.21012262673889,44.810531955040474,25.234813762063826,9.284867107226832,22.99744174964109,17.85162428698586,1.9799572968499612,18.490317400497606,30.045794723191086,14.71913835643847,22.435420878882912,43.16733210424332,31.245642464729478,22.655771953063123,40.204388911187955,35.28423008692464,17.206617783699947,30.660545502924446,39.95310730377332,23.243212211699465,29.249253626019968,46.42205328540742,29.02339701682063,15.535363801256597,30.743234332869736,25.855450051439632,8.73652595010644,20.627190740042636,23.306429477143915,-2.0268139311950737,-1.1154614668475356,16.653828305824856,3.969932965104533,-3.9009884339235588,14.46674983391738,9.12882672730304,-9.641169537153555,2.986325181516202,9.453794325174723,-12.031806221268756,-9.506398631545391,8.452872833016537,-4.691192342889339,-13.929962081861651,2.8588628664339755,-3.9382975005238245,-25.352047223980748,-16.301117170144654,-11.63141350583257,-32.32970103755875,-28.21127503082387,-9.115297574260252,-23.073048555091233,-36.52115163295047,-25.418535397819678,-35.59682422763126,-56.032384997422696,-41.955233900386816,-30.7147948145495,-46.07247014112762,-38.07899394833307,-15.181842291498782,-24.899845649569986,-34.365173908667074,-20.694184579280815,-30.74173998188949,-53.503911476344335,-42.32229948031312,-32.71034379702523,-49.895218104836744,-45.95696880294881,-27.282182234821708,-38.32510637338354,-45.24486950914107,-24.85524333799134,-27.18615471469878,-46.64598043255286,-36.259282209812525,-27.24033142039653,-42.80232654603929,-35.50792166829163,-14.957512472526691,-29.010055351938416,-42.24678922793692,-27.13878832528281,-30.478267784526683,-45.24137263081352,-26.8742647734726,-11.180523443796357,-22.918539198661055,-13.641795749749502,7.73426706247157,-5.450410797746817,-16.773867568215273,0.3696464524491905,-1.5428101969683374,-15.608641869166778,1.5121266861397835,12.911313025352213,-6.225790482802585,-5.490389847624902,11.24813841159074,0.2496474316140498,-4.988548650325271,17.412038649251684,15.05491966936911,-7.404254887460175,-1.9497602443081758,0.8124209247957406,-20.810023391783226,-16.636632991310606,4.273296287162087,-6.570820953101622,-14.310985656026698,5.99735226892494,4.45476872143977,-11.837682345824021,4.704564606300741,21.09925344276375,14.166413611415758,33.68438146106619,70.49325204139781,73.83177661613581,74.70749577358639,97.68094560285986,96.21801732432887,79.31003770066675,93.17770035149672,101.5340826868982,75.40846535834066,60.89846318177368,55.710947215389005,22.172487300850122,-1.3879489772114981,7.941973632683673,-3.7840182274365386,-34.427372496432405,-36.816793380318046,-39.68526568520848,-65.12393490365262,-65.7848208865654,-51.079648185595246,-69.5474882846933,-85.86743492230276,-71.7553795280933,-77.19900292677374,-99.15999444284833,-90.89148047593629,-84.57086861930956,-104.67875274988062,-101.25432205664353,-80.56963331564408,-90.66304457345115,-97.4697960520844,-74.21982307405946,-70.29497084285522,-82.4029360004393,-66.51075476537646,-55.60124176595027,-71.95758812034983,-64.6040588995563,-38.95642581272122,-42.93005869629587,-46.74934477872057,-27.24847427944166,-31.953858016399845,-53.4289710056148,-42.323838072405536,-28.512796297388284,-38.563881397917314,-27.35437013676455,-2.25765461557992,-11.870698097727002,-23.566603444136785,-7.69579204185098,-8.984049860413231,-22.251416117983023,-2.9137659809767484,13.906055832826981,0.29960614961900944,5.166698562030396,26.19718312180401,17.336685026338692,9.793681470116757,29.05672493134704,26.661382333333922,7.958214607897578,21.23726004661257,34.6225531024248,21.08980118566504,27.76734982049077,49.24909365282579,38.09413676995051,26.238128121077324,41.43303188772334,36.46667907106841,14.198923458636564,21.20229590380271,27.891979211684006,10.708827944755827,19.135531429569347,45.744742412901225,37.8068082006439,25.17635458945402,37.01974033262155,29.70590467880932,10.460546270081416,25.26969244259856,39.19907619557978,24.144676128365298,28.771377662561367,49.291605121442196,37.55516266185175,24.629077717012386,38.19775548456069,31.77751604293386,10.19158183142088,20.65173556700693,31.558941568332425,16.056930484993824,22.09125115576782,44.95828366942166,34.79005162960058,21.85760892140073,35.544082935438844,29.965848495086504,9.124253290985099,20.081549935954254,29.833946230937332,10.45945400235374,12.465600834209773,34.1701021273916,26.2507916488017,17.67134067323756,35.765721865033385,33.36261317217689,13.756206535052296,24.30232784920708,33.810092549422535,14.015322983620722,13.07644263061898,30.17638272591737,19.144726969023097,10.02200908314165,29.20096273418558,28.31531087283291,9.927302502519119,20.990888732290887,30.244338935735854,10.321300614208187,9.833892507975447,27.122620723728907,16.30308215478299,8.12183938238607,27.093757921196733,21.849507273206086,-5.422451455405852,-4.023484835172234,-0.0912495050236033,-18.71349599666739,-12.474819001923898,12.85001001944093,5.550727489573438,-5.64419779916821,8.722346632684992,4.183945205435047,-14.875670722821186,-1.74711272312034,11.18797070482622,-4.942517239124793,-1.8144435524008875,19.687533528477555,12.337556576796326,4.527361018659974,21.126245879185767,13.599954324754872,-12.822709621266387,-6.6871019614087945,3.941336971895029,-8.346794218692828,1.616505690171338,26.438683183677234,15.109082740762979,-1.4624955387875413,8.274923647053111,0.36112192975820445,-21.505175297346184,-9.706139651869664,3.980494999893623,-11.254374259281807,-8.365351421560426,11.20420376130473,-0.5497238186199684,-12.201126578706754,6.686268831120406,7.501836815995136,-10.440042287891583,0.2924838110308894,10.185642410253415,-9.059379017707169,-8.27649842689719,11.78366852070057,1.5866251887595766,-9.90739114644492,6.005245574338147,0.5119525061589245,-24.881349600652992,-19.339672995374162,-9.891514983477512,-25.027219628562033,-19.668409000069076,1.7750528113504087,-9.231329882746524,-21.612429344217244,-5.147388842955248,-6.4128184437623466,-24.78400236636658,-13.419711829788188,-1.0521572698235073,-15.58097349163113,-10.192916029491728,12.338584687537708,1.920219779909707,-11.918193014271784,2.023475747233018,-3.169696835460462,-26.702215436072652,-19.40610334651587,-10.479081831168632,-29.80814220322503,-29.826402521547212,-10.792265267936994,-20.632951711758306,-30.19563081345476,-10.376404315881672,-9.393380197754453,-28.635415199749154,-20.726600199041297,-12.183226868414337,-29.17170258188074,-24.310172560788963,-0.43633386972935995,-7.814727789752176,-18.544763167014125,-2.368115753833451,-3.7665944850925963,-20.546802950774776,-5.226726312824349,10.914498603036899,-4.222783889136332,-3.1275287062111117,16.92398526040407,9.471928029301996,3.524480098307929,28.436392554841785,35.78659765328743,25.502415871870376,47.76452427042717,74.71905659351769,74.95386973273459,93.86959357281624,130.01458733039152,131.55438389144135,122.17138445814098,129.5879498657623,109.14001544759392,66.14246676198094,54.67414680798283,48.658633382800694,16.638124761816297,3.379285826910148,7.77087749614423,-19.01859255484687,-48.17939862010597,-47.51685300147915,-60.43049114144122,-85.28739300026758,-75.02977704101082,-61.59706586797868,-79.3602890880495,-83.08015134250182,-69.49227694850697,-83.41314945288221,-96.22227737933916,-78.73908086660293,-79.26116647366055,-100.69089669348587,-95.31325701627955,-88.79341829269742,-108.36642403405509,-106.19025779902796,-82.5257813591055,-87.69697062657069,-96.00294209391076,-77.95572750123821,-78.71425847244033,-97.00725704528065,-84.19036619622312,-68.93793657057168,-81.49094997992943,-74.45184889385631,-46.6827208499472,-47.27684654218497,-50.618629244806804,-28.5220693277615,-28.457202056140503,-50.04760196996529,-41.65251481570071,-28.920192719127407,-42.568953273859826,-36.69348638268243,-12.100464932811413,-20.04289621836119,-32.99069607687628,-17.065854576439044,-15.877041832992084,-30.354525532574602,-14.23625337476405,1.247555774141528,-16.789649250834266,-18.705655783304124,2.4645896397496916,0.03682833301251254,-1.384201008012317,23.93180309854956,25.234684860015847,2.5455489813043544,10.714551875836513,26.599534718637322,18.591244578306085,28.814976053061947,52.95032292305963,39.66696103085509,19.61864196830821,29.695826770328633,26.269239791173973,6.8592528103767805,17.887956206441945,30.081873226140676,12.043396918463255,12.094794302610154,33.594279640072216,27.33198903658719,18.44678512498251,36.05555087045861,33.2668935217649,10.753178569673818,20.860232223461626,37.16992278266123,26.067159846679093,31.8122186991577,54.42695241892207,43.71650555371072,28.139589029942954,41.35452451724389,37.667816452920874,17.46616912671685,32.88109240825986,55.34565421134995,48.358128634541266,54.826078979201995,75.71646378254538,64.06385779009383,50.91665997500521,69.9202785119381,73.15956545057344,55.995717630253736,66.44232485622513,77.60064377019793,57.61204002577752,53.68841873472627,69.23915889957637,55.16527879648672,38.3459114452564,51.057845277888084,47.01658702016094,24.371007703538403,33.143613595025464,46.41920791569546,30.123713841516604,28.522476637582514,45.06110048391623,33.36863257232575,21.78758714170887,42.37716386421435,46.50282387168742,27.99901781307774,35.01971039614299,43.10037091902754,23.78694703497915,27.109961384671927,56.18313856879193,57.119897624304066,50.38671287211393,65.82406225305377,58.77614847651101,29.827376759766082,32.18995041593551,40.965640152585074,21.65557333414653,18.992727409631467,36.40052950827738,23.36069330047551,4.697068639598493,14.688404390893089,9.632027074609924,-13.151048144434796,-4.8314703902833305,6.919590041083269,-12.266808029549278,-15.307911383819928,3.732455610719745,-4.759544143274671,-17.903272130359575,-5.001043268660297,-10.996653231053658,-36.17823601693584,-28.100172321154695,-12.092384497690754,-23.57711244330394,-20.09776277803639,0.11068029646885691,-12.082912841135354,-29.660318505950748,-18.372793612116645,-22.452492503160602,-43.73269683049341,-32.315157768823894,-15.400088022881,-28.152886493125596,-25.822992222662965,-4.313739590241283,-13.012641033792946,-26.51974538248448,-10.689181200387939,-9.98291409772699,-28.1110379025437,-16.150728713312674,-0.9046747288750465,-17.84003268856627,-22.213993312690505,-7.316447671425214,-19.199956202709487,-32.54165641753659,-16.27110272189534,-17.401895202327808,-40.33126121564149,-34.44751850393894,-22.306330760135598,-36.0697126716017,-32.486041070858384,-9.893118999655066,-18.752530210048647,-34.61022935890683,-24.215485913868797,-31.569513368073327,-57.9905442246366,-50.80415711021267,-33.237389659138344,-39.84457311091755,-30.561871940617934,-7.0943940675444965,-19.7085178312648,-39.491082999613035,-29.18894613758088,-32.55801824390594,-53.990794474755475,-45.05422663882545,-31.472576033022634,-45.37026716871505,-40.404331210568316,-14.348730990898801,-18.699290949805047,-28.618729615796212,-10.991481223939397,-10.993361003987443,-31.286279082237808,-20.77804785473057,-3.962408747502553,-15.394235153199233,-12.346398076038426,7.2173566163373435,-6.377299218007863,-26.06800239555969,-14.975688562408731,-15.947852533872913,-33.658384356479736,-20.484086632223615,-3.378051708109255,-18.098316797027948,-20.489164399006505,-4.759011098920091,-17.542945679454405,-31.70914663966906,-12.949106931000832,-7.10384335074004,-20.272290238467367,-4.858366112104939,12.6242187595317,-1.7854867237364243,-1.0316284758241827,20.697455046494735,13.815912987323292,4.258815700381959,26.50855639123331,34.902718863358494,24.99984608059087,45.879621819646886,72.1126977846488,71.32413753922222,90.33464582912,132.76559684796777,144.0949380390606,142.31190557897952,158.87712371989335,152.59447360650742,123.5163573270171,123.00942647227883,125.42873779171714,94.48559300839185,75.0413119722176,74.72651849245818,45.99937375244343,13.404398002245546,10.441955021115575,-8.54533529177441,-48.036774975484036,-55.275323450925384,-52.56700594429663,-75.8181147460077,-82.83440014706551,-70.87805908764334,-90.47856767410963,-114.13694496127908,-103.02730579376023,-101.32503430322828,-118.24148373992996,-108.51157259731664,-96.37697548544789,-112.39976750242127,-109.05309392379826,-81.81404737870724,-83.88201142249791,-94.90116237412511,-80.5900352623957,-82.10531568850843,-101.88369791842985,-89.83186505818895,-71.42343102295719,-82.6990552244473,-78.96662263343333,-54.47235061672697,-59.5947327253125,-70.51078588084266,-51.907005327592316,-47.95335995182362,-63.915439768590026,-49.15430062026604,-27.461368460148716,-35.30560234086304,-29.947277277466714,-6.146983774919193,-13.313048996261744,-26.857839984267414,-10.305232464968398,-6.92863751574419,-23.860129766064333,-12.851518341227644,3.709778791162538,-7.3600976907812665,-2.484514688133558,22.636136202000042,18.009479941768777,7.201018568991716,24.893006199618085,27.267672417388795,8.199594533025373,16.660206382985628,30.46965883656822,16.573925181620552,18.833789022495143,42.05968900849814,35.88255126065468,23.679657014044125,40.970053458673476,43.21320362781215,22.98666346428798,29.45562225139313,40.385300345438836,22.815934942656177,21.80810260220794,42.31379250862161,33.277164064598125,18.26384068779388,33.22484112463608,34.57712490677477,15.798382876370276,24.947676466038125,37.78580720387256,20.847637886847544,21.280081649887777,47.040018527040154,46.30438445639382,38.00611725432931,55.52982848406712,55.58755835577253,33.255046557948894,40.70463547367626,55.0274112331956,37.56625644566556,31.704105339536397,47.34579327597985,36.63500990523154,22.761100961145107,41.261185960297844,46.609076740070236,29.950565585515484,40.98559006718303,57.23484400276858,42.724695145093975,42.030893229612346,63.3079913299718,56.65968702886301,43.845779107979936,58.891574315394905,56.788625640820285,31.730892661520336,35.55531393403521,46.7734308675811,30.668264799598163,31.015814911846437,52.610911426483014,42.54819188536156,22.38857095089469,30.052283132148478,24.890243853105197,1.6424599576039238,10.556477288835563,26.928175978985717,11.599289510615945,7.899109661595927,24.88794341672354,13.794783953497753,-2.7174635110152803,11.234641727707771,12.252171598463784,-6.775377210644917,3.8367471504908686,22.092867587762157,11.194662657668648,11.326394109069527,28.683419079815625,16.52337413863266,0.6026477726109425,18.12698019206502,22.7231207305497,1.6857421681948246,3.157032633756349,8.198070455906239,-14.286279433151336,-17.331631817475753,5.700737578623674,0.48179802447356135,-13.564353650597079,-0.017314804790693472,-2.375106286543805,-27.85055920330864,-23.596903173264923,-9.925358729036747,-25.011457431109164,-26.666177711257937,-5.990102818851584,-12.418943028541907,-23.628767889677015,-3.7077838778359107,0.056380645014954656,-22.937383767531166,-19.319423176572975,-5.439100651489149,-15.931089284144296,-10.7082676098343,13.380804336129579,4.470141389169981,-14.242006847981816,-3.3965194920360045,-3.844762302037614,-23.910080773626156,-15.0184756726812,1.1981075220535624,-11.922382518609473,-12.641357458409264,6.194284378907641,-4.817374037744763,-22.795372601360665,-10.255895104402828,-10.618166805535607,-33.110201558423384,-27.06308270581155,-11.641336996482924,-23.207482800611736,-21.68882484223931,-2.3542288659557435,-16.067928005843964,-38.17303744179132,-26.92742901327271,-23.06885653992811,-37.26054853247295,-23.761196215860302,-5.967620024247222,-19.51581057386771,-20.42446321661959,-0.9944830767638084,-11.025959912619543,-27.108091273134402,-10.916495447188408,-6.098546650009725,-23.982141026237954,-17.412157960619428,-7.693100186719141,-29.04971995143329,-34.824855993184315,-14.285727205280919,-19.075279412075957,-30.867726792850718,-14.329777889079848,-13.485407870120278,-37.128849620469836,-33.05779835083679,-19.08831673246071,-30.67681335808539,-26.857067575127076,-1.951666430810345,-7.1481518995987035,-21.135896244096674,-6.491470027109282,-5.473218320684911,-27.09036700011528,-22.37038811520306,-11.674675780154772,-29.292935798628065,-30.754202627814607,-7.8906070770678305,-12.219304166412575,-23.924844056617694,-6.044132877624225,-1.1228848453978562,-18.605373026748204,-8.357307585492993,9.166481874660088,-3.9693800316684635,-4.91024448326478,15.900865106767224,7.299298136020873,-8.978619645775,7.87416602237939,16.046932004726195,3.946264968332579,18.76813460391826,37.08080699403407,20.15740802649615,12.54587856913243,26.708320976248867,14.15201030583747,-3.976661506492828,9.277808280881152,9.281996738599236,-14.758014896244429,-11.459099563534245,1.2784892382260598,-12.301241406014976,-10.139081813532638,14.317970383887035,9.22775292854065,-2.6032416553269235,19.315980407436918,32.88404875011929,27.197207086724255,50.07904153761011,80.5464181406192,83.36407424623786,101.92839372769244,142.90830404910875,151.08551164639528,141.55085608157128,149.6313777990723,134.37085175517495,89.14837850758335,68.42534109826036,57.223987510189474,21.462743334399825,4.471416814349927,14.006538590080115,-4.651013118819208,-34.582442365208,-37.395787786393385,-52.47087115644622,-86.89070989840425,-90.14672542546126,-83.42354488890683,-104.34587158821836,-109.63543963933371,-89.64496410307332,-96.43392093621338,-111.93522664486632,-98.44635461570715,-96.44058651635812,-114.2133648995478,-102.66474391334489,-84.64855696318895,-99.04983497885657,-101.35390376538888,-78.20208608448664,-79.41046261669506,-88.28447469818498,-69.22502983307923,-63.965696497918,-80.9866099954091,-68.0330765382352,-44.71505314229849,-51.97061483514058,-49.36587388630393,-24.756294273010347,-26.398199502121354,-35.5235741879836,-17.33525637093306,-16.202066684098018,-39.74023203515416,-32.14054532702155,-10.320243713048162,-14.352539896205709,-8.130304157067131,13.303950323101493,1.87009249136754,-16.629122767969772,-2.1256171051619592,1.9162284961408786,-16.55747396157038,-8.150643816441955,9.510472419776896,0.36718204111095964,4.913296994700497,30.927010979916737,27.207278739750592,12.892647888403975,26.428214396340937,27.005534876073504,5.1003892619188775,11.683539758536165,27.43119560220356,12.572223767745559,7.6002074399261375,24.406422944653364,15.676492862611818,2.3001038688413598,21.697611812440854,28.582577670295002,8.664573541178251,11.940961229193476,22.30319220673779,5.405950598146717,5.511686948730384,32.70298661973672,33.459901337027624,23.235317821917192,38.53533939515365,39.193380413451216,18.058079738057224,26.98340009534693,46.14205269520923,36.04306964892969,37.1219406500586,58.9776626990569,51.295570026276486,34.7249190484739,49.570518505505895,55.16028427902194,41.07993290169311,55.73025767102144,75.61486596950644,59.67940029256016,51.01750816118746,63.157354475748974,48.872133204143125,30.62151114235995,47.7373413394964,55.94771607665667,40.55672646907781,48.54650377065804,60.240261986919194,39.824376763947626,32.96052974468006,53.0604655142881,48.58084423635968,34.37720798662404,46.83793756559467,46.19679011043755,23.770143510685216,29.800138177068742,43.928770007057864,26.385158088394363,18.792964945621364,33.80135872715092,23.436095784322504,6.5154465708147695,18.967717685030735,18.40701085486831,-4.420576129293938,1.4649979915825773,16.36913769632313,0.6102934075377338,-4.8988931350874285,12.015526186155478,2.7003430982447236,-14.667460892489016,-3.514865791033511,-6.6928910744978465,-34.33298348441907,-32.16113004711367,-15.066421854787187,-22.173932946712156,-16.5891399418734,8.371173699081552,1.6074731946648795,-16.294360912156698,-3.9929925912692443,-0.5052644896359143,-17.462109449784055,-7.985200186815512,7.8769290365575415,-6.42581421645366,-8.2393880697663,12.66222612681457,4.805376501887172,-14.501773369772575,-5.960924300587174,-7.2632978331853835,-27.2378023832213,-17.877529405382983,-2.0893462900009485,-19.482443247864868,-25.16475349892237,-4.238367170336094,-6.099548523832468,-15.17920606327319,2.4601562061609545,4.340773066890614,-18.178354930059395,-12.565465351992557,3.7566408405653595,-7.746603207104344,-6.818376874544437,16.199929374961616,9.934963888752712,-7.149084495940965,4.482838116347413,4.612203918048019,-17.033403031419002,-9.862796857334066,7.22001285021488,-5.166293473514285,-7.294228592017692,9.97527181046964,-3.2073912656361747,-24.525794157383753,-11.75382537653512,-6.488570045814608,-23.10136648585446,-14.17851697792756,0.9199804956391189,-14.634134695166098,-17.172378785868744,3.3496791345373804,-6.3025810814179515,-27.017123208560466,-16.21464805451587,-12.898261082431867,-28.68923265557265,-14.262542727228976,9.77808693757412,1.5514389512132514,1.0799550707906487,20.86848205264823,12.26772763610861,-4.953008860805387,10.63142041364074,19.77987709640661,9.689156014946946,28.901718078068665,58.13690205483092,57.285865764363365,67.6602001912536,101.74556503541238,109.43077139362438,107.5783772889637,131.83359751904285,137.74892857955376,111.65127331480416,102.76093659928802,93.98535762842347,50.58924605337688,19.426675399513957,16.0320951521396,-9.216577483811237,-40.13530582797304,-41.01556428700602,-53.749345382422,-87.26927357475874,-90.01179696135223,-82.09153247035098,-104.34848881349814,-115.6984421603706,-102.05743998457092,-109.85580164978134,-120.80688556295533,-101.17972001457218,-97.28615371565995,-120.93916916038519,-117.66203110140808,-101.21908539776146,-109.42183757430111,-104.5248032586698,-79.1314937193053,-83.77916602638038,-97.73544033762572,-79.42584006404581,-69.60660297676849,-82.73195108460592,-70.46591313590378,-50.179021736257724,-60.157203574776965,-58.496593491836876,-31.478585598895698,-29.194805295726326,-36.47530456098137,-16.96082069550448,-12.227751830029018,-33.11570975480518,-27.57851604983906,-11.820809945447646,-24.42978405529356,-25.137387063579272,-2.2872565905508164,-5.356647667327782,-16.43672723620878,1.336448743006624,4.519142418029633,-18.143726314010063,-13.005785435112854,4.04002377484431,-7.07690821167022,-6.646417213423543,16.48208184849179,11.080834590015955,-5.024689921562376,7.921108938416923,9.426088215822464,-11.633465430950988,-3.5418458582964485,16.467281453009694,7.521238653605815,8.22764552160022,30.415753279202168,25.293454921458427,11.259915694390076,26.517374679481453,29.190522125261776,7.459995639595179,13.044555112619982,30.125154954411627,19.771355405745403,20.27048504531176,41.51900548977796,33.95655994192369,16.432278122009638,28.571042992100182,29.9073810890622,8.153438333274035,13.650425979843055,29.764478441689253,17.179048820946505,14.472439066820753,32.39233586424322,22.40787046162975,5.216309069193042,22.171645899527743,31.58245279642121,17.22936638740928,26.806775941400577,43.75078414788162,30.383924415397143,28.42275416844201,49.61643693096702,41.096842970837834,19.542372166056133,27.625736290266786,28.57007346754265,10.879336836924642,22.042943331900517,40.0134746521688,22.297548958393893,11.437695632371678,25.986490294257127,20.069852649059335,9.962043793453567,30.575565068201794,36.83998859461923,14.933757216378282,18.205294033613296,33.89316915757556,23.635224396651438,25.07058686735269,46.895809950894204,37.01401004199159,14.721276387966736,24.280205237928485,27.932337124867807,11.430544749430176,21.079531495538838,36.513477093836535,18.48497147837253,11.490764895499124,31.585109665133807,28.00827823264072,14.974000776541736,30.110064406013784,33.44958322993668,14.189585677686098,23.304313332914376,41.84121626345514,28.170876521017206,22.374994994156623,37.99762371827069,27.361374262247928,9.384877665896568,22.038024134043056,23.330056161108722,0.5012798522129636,2.836551364690342,13.13162306368021,-5.865618680779621,-11.71764150600098,7.898432624081094,1.1765355025577398,-16.412016158841052,-7.119052349565221,-11.44332151325293,-38.30112885075915,-33.55478336902423,-14.481922598220848,-22.949720978875515,-20.90679401641428,1.2037741624872975,-7.915084284056256,-28.58846679870367,-19.203235773179763,-19.73851724313553,-41.640387628376985,-33.94511893853188,-14.871765863162004,-25.682534160295276,-27.604142465974082,-9.064033933495498,-19.20206669966128,-37.99244854166107,-23.612908915971772,-15.404308763864371,-26.309711374683754,-9.704523228125396,12.38242719752559,-1.1813100733838997,-8.356868822660587,6.624984064290386,-1.957730012855687,-14.952394529681039,3.8143716036124182,9.741464863048492,-10.857988763071127,-7.752297632047979,2.5959569011332357,-15.672353872161061,-18.670244672995853,4.8212841636291195,1.9300254229791332,-11.071782307620431,3.461759549382103,4.298061507161451,-17.784262331305218,-10.186141255698129,8.884206299770542,-0.6782132828676817,0.7620453808500134,22.729657087379035,12.905803116129471,-10.384717254064546,-3.9795255740723787,-3.72635042351894,-20.66723556322435,-7.886287813899842,13.1007430264698,-0.008062634871578211,-6.881556121413456,9.028549566439562,1.9870501264620213,-10.766552074894157,7.881331713001401,15.261745893826214,-4.051407106664971,-0.9227531164602283,10.575091415059013,-5.36847192417248,-7.525865942113766,15.379816280456666,11.015396352268455,-5.677603946906829,4.753899343568449,4.287134494519181,-18.214151612595895,-13.167495411108082,1.8570213047660769,-12.826976244855349,-17.629375161464427,0.21259382835703455,-7.936754415722892,-24.039119614922097,-8.646716481539803,-2.2491051120121015,-17.591924250239906,-4.6874303985156525,19.147715178553682,12.959753321198697,14.057905008663132,32.92453409454727,20.48289870310709,-2.5331884723415286,6.951080977584651,9.012821189022073,-11.685300113858705,-7.025513303790396,6.596977118190281,-8.575802866955563,-11.131939943376596,11.072922566673467,6.330688544630927,-8.560727866842953,8.242846284609577,19.479008380993662,13.470355316946856,38.606153612716014,74.4431195214665,78.52565835740506,91.347354411884,127.73094686066841,137.09256594176054,131.93104272404184,146.86196088938624,140.37140510059476,102.94786538610171,89.69250047408724,86.72430835089912,54.556537143577955,32.149859957424,32.09142441320576,5.911261017902697,-28.468840866513997,-32.144197177307404,-44.767989317259655,-76.48702041446381,-76.22173041336632,-63.215547586310585,-80.37663641957282,-89.55651206188473,-77.49035144358453,-92.45345145411868,-116.69197111968903,-109.32554774815812,-108.10102998297528,-125.57968751885038,-114.25604921152414,-93.86254587058397,-106.43879479354895,-112.80843577267493,-97.20324983682895,-105.39764186005493,-120.16014461530293,-103.66712033735237,-95.9666961495678,-109.72737436344178,-96.57918170624387,-74.52068422354746,-82.91250376971652,-81.77786298971671,-58.415760746174584,-62.721658265235064,-78.26745797743598,-64.81270122537833,-60.613644632077005,-78.12684228145399,-68.79237094852863,-50.7173085602311,-62.80965835741073,-63.11276461122408,-38.4098684925885,-39.7184576514787,-50.878700798600114,-32.747167723848406,-24.641851517180115,-37.38659930219196,-21.895958493704086,1.3566713927013607,-8.08087274643637,-8.278921890442108,14.683230803211806,11.422286045043982,-0.7962233364805682,16.81354606473253,23.1967999528058,5.289632537270491,12.843947844718391,29.742366161747405,18.20280748319855,18.270750890586527,41.786934371241365,38.435864951349025,23.623533625813323,36.91083276962334,41.183979933625636,24.524520225401524,34.83471483027856,54.00384270828088,42.24421673765403,38.81424510929636,57.0268852943084,50.15355507075018,36.98583210898546,55.50114050984261,63.37073055467755,46.58540851352642,54.8521442694243,72.27740921701105,60.988316321157704,60.53862755428848,80.94985854326688,72.1310785802087,53.65695819595794,66.54635327430807,70.51774658883582,51.36997451955317,57.19464935415374,71.52857967864212,56.79267849487668,53.105830912038385,72.1933927812579,64.0141798508503,45.32561367288712,55.74602198383279,56.45054835547388,35.35723030451142,42.054615581141675,59.86978002264895,49.409356340498924,48.68086090650618,67.45233019984046,55.92849741701431,34.134337281255014,44.25373347341264,47.84729661264309,31.63464875428067,41.59716126253203,57.704562491306135,41.407013199781105,34.950275177828836,52.079257537539874,43.73974035487162,27.462482685281692,41.25945285550054,42.738041521412626,17.946729520316786,15.930661466704636,20.996007438647197,-2.0150833497988305,-10.051399411772708,9.136633552754557,3.731967173165816,-11.92012089604396,0.09432980072934072,1.9588973967321377,-16.480576342840894,-7.640885110435955,8.10044345111305,-8.711369641571931,-16.4615193213449,0.04602537214441682,-5.649805324372411,-17.229587247683742,-0.989728000700131,-0.22795609840783904,-25.04226054955068,-22.513365201693084,-8.37189279960175,-21.169359010794558,-22.019542290373515,-0.9613591592673796,-7.2487659399095286,-21.67314831171331,-6.330184960119321,-3.8818441110839736,-26.395828228939124,-21.817669425313095,-4.666531210911258,-12.57234805776619,-8.460594796383928,14.13998585675036,4.293483704657778,-17.438194989974065,-8.981253766472813,-8.403224369547416,-27.65236665947434,-18.908412901943855,-0.8608133982158854,-13.050774816421283,-17.140737859239973,-2.6940069980337285,-16.718273003041613,-36.58254277308208,-21.44225143038436,-13.757079063679829,-28.73229593225955,-18.886677935357163,-2.0962757852126197,-15.669090128778485,-18.15004483420982,1.4414808873331353,-7.577885860577606,-27.22186494421219,-17.906481503010184,-19.497001359503702,-43.34891087581252,-39.21457384788314,-24.394492918857495,-37.72500191446169,-39.536223867090015,-18.763082741671525,-25.066965971652575,-40.605900399622094,-26.089868981041786,-20.806057125295766,-36.2913048928566,-23.69557681924386,-1.7676552982749625,-10.64158770264869,-10.875692263318843,9.774751828721858,2.1479942573079525,-15.853466008050905,-4.811316257044024,-5.138780646133801,-28.78710622775471,-25.49065652417093,-12.316880871893968,-26.650877787518652,-27.591383173458034,-5.786457841685095,-12.749989554572215,-30.103711987742187,-17.70713123033824,-13.818868025545527,-29.209191139424806,-17.058868819950575,1.4351267146781757,-13.105510177516969,-19.000257877349956,-2.067371322364277,-9.57300641246039,-24.240124516870946,-9.595611046860308,-6.001426788283595,-23.51904981141742,-11.851765146814232,11.58871002886399,6.9261490331943385,10.644408531895353,32.10998636712113,23.918222366564923,8.006685292304859,26.163172807037828,39.344730934513684,34.880478464176356,58.79570112344649,90.80963979543294,93.53933827468478,108.59453937691839,145.95829123222202,152.98001404514594,144.03746819067013,155.6364112014557,149.1473996059086,116.54758267605206,107.45771655310344,101.64023301970823,61.4692764517489,31.813603659121227,28.766872077238915,4.942584658165912,-23.710272663939914,-22.694351657690103,-34.54248001433912,-69.43531768551789,-74.94062684256815,-68.38190540385935,-89.89780530348665,-99.44503851345331,-85.47036889605185,-98.65529405120863,-121.09274171226225,-112.35030542070734,-111.78999720402913,-131.48335387732732,-123.48848794849445,-108.34704752700156,-125.57707871128453,-132.18680238528077,-113.00112535663004,-115.99873331419005,-125.5125911814024,-106.83904301308334,-101.35578565594908,-118.6012765257319,-107.15681603293682,-84.32222914159736,-89.49363814261064,-84.02888705569141,-57.63694559034461,-60.29085628760698,-74.0014628135512,-59.3960946873176,-55.446985871671096,-71.89887103120797,-58.002022060787255,-32.354991817251715,-36.28480642885128,-32.42129968516294,-10.084152104840184,-17.29822787689231,-33.578065020608875,-17.48024061963614,-8.373473364770511,-20.372472215735467,-8.075171140285386,8.878859939952958,-5.33981834902458,-6.275966029787439,18.502618510266586,18.051753074530506,8.248346717191843,25.691740267486328,30.622491987944528,13.698667723978158,24.005759359403008,42.096488623755675,30.264683827429725,30.014048014447454,52.69673605344977,48.824473314033554,34.950100979447676,47.280689124454895,46.41151256632519,23.852873819468684,30.10736626280459,47.39880619674292,37.53979741186775,38.89659877018984,59.61157129990467,49.88887459719007,30.001177119887803,40.722064805825035,43.95951805000119,29.52475648256339,44.0903869745448,64.51088166975245,50.94846170742811,46.73715878305272,65.27175801060459,58.04429268939761,44.613274030116685,62.30640516326668,67.42790866061218,47.611183304767295,52.686229424900155,64.62349895316382,46.858876103594795,42.73286292036702,63.73061371122038,58.39888995254975,43.714235209830406,57.94808043832754,60.97174029717799,42.46482268021664,51.654465199780226,68.4554678784443,53.51499798478136,47.73230633022408,63.05076370189582,51.619938633617565,33.262919469583466,45.831696493905774,46.9865264625682,24.90449180948056,29.047857154432666,41.04074295207308,23.793286900530642,18.946735054469556,36.78151177649627,27.6198003017402,10.492923487127296,23.06099382562861,24.137419461492655,3.5762136266344307,11.905112367597004,30.848117217471646,21.173911354945563,22.073497494397564,43.30145902272522,35.17672975032779,17.576230124391568,29.82355167102676,30.09574829947209,6.624855213899954,10.31526475192681,24.053277384693434,10.64896426432026,11.946881438635033,37.61652385546304,34.96766958155493,20.31972379752548,30.670087363786468,26.057346311571848,-0.8198007439345272,2.172591049184998,16.099100277679504,0.8192273373100338,-4.756676102192834,10.604142374051353,-0.4670151139746377,-18.769062876067817,-7.862103274030221,-9.700267216489713,-34.078363514160436,-29.78951769183808,-14.109840680863723,-24.948873805636744,-23.768597788431393,-2.370690497092185,-10.332009670816868,-28.32057710157478,-17.468343853262038,-16.37402668793693,-34.45918797638423,-23.64950395912294,-4.400390241107233,-15.423245369174158,-16.53000731492893,2.5098203626458435,-6.9378911613547105,-25.256721707471574,-14.484956096942902,-14.570993133183432,-34.55652541005301,-26.41918655042294,-12.270581890949137,-29.944353144418518,-35.80325457098002,-17.923828950600864,-25.728828320744572,-42.03088490783946,-31.940526107734463,-35.899471734081125,-59.07628739512947,-47.728334205258285,-22.780417635070414,-28.781082595759887,-29.785879640427673,-15.075771507068273,-29.650185545680145,-49.37277615261093,-34.20983135919595,-26.932782810681545,-41.16843903621936,-29.276012639042225,-10.583670616697429,-23.330272937480387,-26.477715232345805,-8.138681241457268,-16.198784128111093,-31.533250511830587,-17.354933868426556,-15.612487590011735,-36.361712671274034,-29.307528821188882,-13.372066670997876,-26.24876191446093,-26.676092629515406,-4.951787834058594,-11.189434052630002,-26.539176979853163,-13.557011146419581,-12.773025187068143,-32.24910492545149,-21.092656276642142,0.06162382154725865,-8.918888779121366,-8.373360495436621,11.754310641060282,3.5284932720213664,-12.603687902726826,1.1052636455475273,4.315308346778941,-11.617305573984503,3.8020657481691016,31.692177441164457,33.46538865987506,48.27198787434107,85.03693656485251,95.28619912551244,99.36570595754503,133.218613404102,151.56703794812688,140.27974949347148,147.22584518399674,154.99987203191807,130.19175632778712,116.79972269620181,122.98889143840263,95.99446307613346,55.66796960365113,43.48328421204465,22.949399954653494,-12.844948968530122,-15.79663165219263,-9.21685471282351,-33.808145722977585,-50.5720566887575,-49.744629685970054,-77.87823805978911,-111.99277882130195,-111.72918888001078,-117.15222308160136,-140.17439321490653,-134.4120092626782,-120.49073267153774,-135.5166432717263,-137.99059397061154,-119.4122611504539,-130.05439784192575,-148.2169291434384,-133.96552647782988,-128.29995879791886,-142.10770947794265,-128.4507695236381,-109.00437985917664,-119.78831920367935,-116.84739516835955,-90.91755539779517,-93.22318622717236,-104.37334362317452,-86.83812061066956,-82.05938217076877,-99.0257983179989,-87.12008705454187,-65.17786829207252,-70.43144717946372,-61.937333342421795,-31.726988951634326,-32.144506221547296,-44.70024286086479,-29.29095203932767,-23.56841750932484,-36.76773934822655,-21.811626355854244,-0.6844985938550545,-12.250520560671037,-14.577791960271178,5.164180747628247,0.046789876227185445,-10.928620434123538,8.299343302694911,17.056522993205657,6.129184498979713,22.30969206793074,43.29895725838942,32.84027232056057,34.33333377332573,58.190977419247425,55.8455914211646,45.00820731299486,58.906764670735384,57.46929060579398,36.244358437891904,45.98900649928742,64.88799064990658,53.37228417209987,51.47155197010073,69.56236195420095,60.44907643533914,44.926981815084716,59.812858268162046,62.45980876946027,42.58749909388318,50.96366267296978,69.47704951280443,59.72859833240494,60.48452693414464,79.68216862092784,68.38777169923321,49.355507210192,63.52745040842818,70.33403268129123,57.19208500338243,68.92502612996138,83.91916859468054,67.39724912274677,63.37576747190981,80.71543287884977,68.92737366297449,48.283325165788966,56.92912709335443,54.9213169276641,33.76933408454775,41.02733370504413,54.56038869423227,37.039585770412856,30.304535717249074,44.47224862539138,32.23868509623862,15.039653603656257,29.84691387713086,33.42216223362921,13.74797394939593,19.949119804781745,35.377137918753824,25.207267008229948,28.77520643091675,50.30680008386042,37.192983736590506,11.501534100808723,16.01211469911089,13.546392020587618,-5.1378231710204085,6.087345041392114,25.0074234733816,14.903418602645758,16.632027891288267,37.55244205700999,28.75868459990413,12.340760371135104,27.057526845713916,31.816961009259366,14.757613590256604,21.54847352472648,32.39026090009696,13.429305505610875,8.71003337086692,29.413225487342988,25.81848449060157,13.379071374831238,26.587862959670346,25.936333792489826,3.339997707974078,8.53200447789822,22.199620425450735,4.544767208465443,-5.889057198142541,3.5105127333170474,-10.451775271736047,-25.85723250559475,-8.191851306877771,-3.1371729113535753,-22.96347600195875,-18.191288192179574,-6.080001919604232,-21.099222967438454,-21.941871063891575,-1.2916119772432513,-9.082485547775992,-25.06687448405104,-12.369387596395576,-12.068979761164524,-32.52094038524437,-24.547114326453098,-8.535023505947645,-20.988682236802987,-20.270683688007566,1.629613348137477,-6.171108847844413,-24.795727640198997,-16.578566045904083,-20.122711277706085,-42.66304215994074,-35.000082747410275,-17.191211358048562,-27.24663548957086,-26.008252180367556,-4.625180193430426,-11.151312956416975,-25.84544336754498,-11.351257909039816,-7.153772788943575,-23.869195280652136,-16.45500091258935,-5.11533825672649,-23.006124330653307,-26.413350357122262,-6.510468813207419,-13.528407029615495,-29.850173520723995,-20.586618963108464,-24.391523140582073,-45.72155886146684,-35.02275341480813,-14.44920074460139,-22.130301059894038,-18.65527198298356,3.3369897009563694,-4.381519183402507,-20.718428000505256,-8.407466044120524,-7.148190425225382,-25.347095966022877,-15.863421612056408,0.30165283566537404,-12.506507371284018,-11.904333209879287,11.755397282645198,8.478948154978227,-5.128732164032574,5.499398519068156,1.1053533486549965,-22.918803448696778,-14.602604168302978,5.415470658984984,-2.845251350891692,-2.011690871176256,15.108414072523626,1.9981106856322226,-17.305786599967767,-4.100651625318376,0.1333215403106004,-15.32332190037511,-3.228715285114391,17.456308239813684,13.334245154256788,26.72413693797569,64.2501745403652,74.35359464100162,76.5007774108261,108.14468365418539,127.15780637559459,120.98571880908091,134.30648846770063,145.45167587145266,120.56021284914809,104.84288765029444,107.72496336295683,78.72832869301166,38.75017105499623,27.22957339147751,5.689981696116911,-32.37247678105977,-38.97429768145283,-37.838088715504526,-65.88762021345362,-80.34309689838959,-73.52032739090616,-94.5614413227724,-121.86099895618511,-119.12810539613326,-127.26286853922835,-153.28487135124797,-148.340810417525,-133.3801694602451,-145.4643386807029,-145.17707519431553,-125.51157099725188,-134.84846731564065,-151.39170925100126,-136.7380341671843,-130.3886669067095,-141.44437971647227,-123.7679158377791,-99.99992026188977,-107.4100979003054,-104.86662219032209,-83.72440436339627,-91.69047995922514,-106.4129484624341,-89.86047680178726,-82.20008114608991,-92.27223772789523,-74.63348775808602,-52.60235771595663,-61.19933454952121,-56.781467452707744,-30.628692112089887,-31.775981484415283,-40.61765175197485,-21.73518507423293,-15.141019614975866,-28.080424779839362,-13.5462901179834,6.19254289153217,-4.289694607346285,-1.6200179959980128,23.71465476601208,22.611522159641705,13.974699579698532,32.5931917363418,37.582447339569626,22.13911686268183,34.71705367062876,52.92220050329586,39.48030814358124,35.74381568134187,51.42278274478653,41.305483321767504,28.59683293710856,48.120579201250294,54.63817188165352,37.1290118677487,43.93945132914099,56.409784117002836,42.05238856684028,43.886784515565346,68.04605449636591,63.5680025376004,49.5879039836334,61.23928844925907,58.949855830322235,37.9417773104352,47.85363385102828,66.70308913330948,56.592931010235084,56.92366917812434,75.68141245645906,67.30578797982346,55.23835649862154,73.97069228706245,78.03062971811386,57.048802886058276,59.930765724838636,68.347302825942,50.12457936039904,48.48539410404489,70.26169832624453,65.36387846905083,53.26462443734975,68.10397527796661,67.08790636960688,42.222768130947614,43.74732440142885,53.644694070714145,38.06546592680071,38.28117750884801,59.986885519308494,52.14111101224243,34.76158618505907,44.27994270861601,39.745260614036745,13.31959704158492,14.4978824874061,24.886892435626855,10.669926984187112,12.511991281800737,35.07598131372717,26.985039284240916,8.312135647255854,16.146430221333937,12.066395868262482,-9.3092960804142,-0.1560346322982129,16.728541824933313,5.547945391524216,8.143580516986747,30.922210520988173,23.786644580652496,7.275205372590198,17.145244627603354,13.57227009824987,-7.615907360922952,3.329462137843401,22.610767806005846,11.220631688039033,9.490816659480336,25.578730695847216,12.692716844329233,-5.9991495714572185,6.253297700204763,8.302904565834233,-7.461261428189933,5.670171881882228,23.04130558917145,7.0499385160536665,1.338349346795701,17.55303326429242,8.969792617899069,-5.3427221659213675,8.042188411848848,8.112963342071769,-10.676178176810721,1.9417948231296007,23.19252706491179,11.928367803921015,7.269966219859137,20.615135094054228,8.939147145029203,-3.8289663538125747,15.270521792796867,18.60330250918799,-3.386242237172045,0.7772829185218137,13.042441112114489,-0.028997859632667655,2.527325294976646,23.428780581540217,11.369437837393567,-9.923968512427834,-1.919096707541165,-5.295421767387941,-26.48741739843072,-16.220219420326554,2.47023319683714,-9.221100081930434,-11.499952931244334,3.1424136795144273,-11.503127340050021,-29.566493612362926,-13.171197747080662,-7.707679279610355,-25.512484621553654,-19.085611730108724,-7.918907535117088,-24.2060460316391,-23.89487526497407,-1.749217313956855,-9.979079472733147,-27.718490067994384,-17.982915230346645,-21.142573720587546,-42.23567082118982,-31.63180679947309,-13.690649612931992,-26.83850228692132,-29.525375429117048,-13.670253623415665,-25.010481912903884,-38.94290967316473,-21.56964095321579,-19.431622318718787,-41.12553394319218,-35.020423330687095,-19.905687517325166,-31.091795607390328,-28.095927080944787,-5.1661962783080355,-10.033860215585023,-18.42851919772686,6.04771680741846,19.84954241150858,14.17201058648801,38.461831137496105,73.05839969858427,81.23217966794275,100.24071010192566,133.0303465040966,129.11148211947264,110.53572794491708,114.01837318855738,98.14488494504415,57.23169508341488,43.13962466565327,37.11388763514145,4.843543393700328,-12.641024908598467,-9.827361936376937,-35.477710498222066,-66.75695865969563,-67.40441535508975,-79.88357227452076,-111.95494251408893,-113.86033253406737,-104.9997847206125,-120.18230964652238,-119.98428877677344,-100.76669368763308,-111.585473609427,-128.04677635922556,-112.20577624621963,-106.59630764143627,-122.37313975575513,-114.46116179460928,-103.35050830746238,-119.75360985706175,-117.821866051689,-90.61945445118087,-89.9688253606599,-96.45755537917205,-74.80896027822607,-67.06319837202565,-80.80453036667761,-68.02311149099842,-51.07531245360549,-63.836114731269355,-61.54910443106037,-37.21068965804287,-40.39019486614118,-48.797981832019715,-27.436321254185856,-19.708277332079245,-33.13535449547388,-19.63670076938885,-1.8652527781077834,-14.19465992648324,-12.488088985301877,10.35601062504233,4.630476309666989,-8.120957957641405,7.378081787923365,8.08239328712532,-14.267858881879736,-10.267583808310556,2.1021589589312795,-8.521181895905558,0.46980272746578855,32.423701092350285,33.14048646268317,20.602370219322232,30.686044804814742,25.913568052115465,4.020058128769005,13.979417001419208,31.372586475010493,19.457812439962854,19.89964262763499,39.36625865100532,30.539757526478084,17.194157603696972,33.940066398241015,35.81670956092071,13.947302380738861,16.70974023604743,24.374360286303297,6.271336670070244,7.584196943288054,33.892840768444024,32.86177557951138,22.89016504462397,38.010511346913646,37.64015527311693,16.47611293642488,22.69256935990554,34.37343493964213,18.653085384811376,19.36117179002002,42.37303849244689,37.471032794025824,24.99837048672459,38.84582424431469,37.34118199026352,15.24594751406593,21.722959682706513,34.87390094782144,20.992638997312532,23.76718057391183,48.813565384656094,44.78787869127784,31.86435494034071,45.4746365181669,45.82779262080369,28.36226150936018,40.75491556466402,57.79307825938565,42.00434493367547,36.38795384597809,51.65653209560706,42.8799326726039,32.20494434012624,52.24953552044727,57.262496015000224,37.883102904118346,43.72928646371241,55.643527575619785,39.35431073689229,37.05832304887153,55.69973432061946,45.62095110166902,27.954311137399994,38.988987373981054,38.22512560334202,19.07095314134368,28.02363635621788,40.50176909363981,21.20682791264549,14.925343646275337,31.703123472546537,25.301473732394257,16.939663656606495,36.44344343168,36.678486347334314,11.746908812536969,13.622515359358742,23.01858976470013,7.985800495657946,10.82314092722316,33.45718098326165,23.936185828382158,5.270421561256862,14.83352478916677,12.804347105176547,-6.410001424367388,3.042622805229091,16.339304357472304,-0.24731889605720347,-2.5099681121766273,16.186691264403116,6.522933612783977,-10.672294523481717,-0.9146345592485137,-4.801606080337566,-27.013403926875473,-18.996934424374018,-3.9993191099664243,-17.60967579304284,-17.710294469932798,1.9115393220833905,-7.207224859244377,-22.230021176322044,-7.630306089599021,-5.636032154910435,-23.86536871628401,-14.927371396023545,-0.09965059802418885,-13.148006151630293,-12.82534218514013,6.196127209252297,-4.048193987183589,-21.18618506928169,-10.517454202980598,-12.460607618816127,-32.09925104254589,-22.799252513560614,-8.130546877148104,-22.43935141498937,-24.362242388242233,-8.239828547959398,-20.227772128614852,-35.88783425496472,-20.449139284157084,-16.264103693008607,-29.42618171953666,-12.603185971945637,8.913410830952493,-2.350607204279828,-4.23719416964061,11.922764721053404,1.4591424242107642,-11.320108517590308,5.931131221986686,7.045263107822019,-15.823122139316702,-12.792092953217516,-2.747460214841757,-18.87795327429046,-20.647774474707546,-2.6483361355348176,-11.985882728974314,-24.67686853457404,-4.587579107800581,5.470576217776912,-3.3912783763357863,16.962396630848353,47.26187684062321,53.70299864742941,75.79405270625874,116.7734107065614,126.45921052361075,126.65950404650192,151.21163068552278,154.87455538728793,128.42840085407298,120.31258315506642,112.22553504019108,75.52972530072537,55.80509061516081,58.1570193737207,31.80439322826611,-1.8679071561924534,-7.917886241939775,-29.199606298041054,-72.7233531328881,-87.39595191379931,-90.3123840661365,-113.41108314543843,-115.96003007660292,-96.02989957921295,-106.75020890353437,-128.11309181089948,-123.3548334031035,-130.26618784813098,-153.12478120734215,-145.04887139692488,-129.66546193948426,-141.2770658099067,-137.52115567454567,-113.05941899065937,-116.5703116928874,-125.38642047428098,-105.39189797905499,-99.4196224981811,-112.90556367123311,-97.03302712374987,-74.82016160854747,-80.77222295175555,-71.93443373224947,-42.86850103061444,-43.935739657092995,-54.65217071807187,-40.83791237789346,-42.80208048069301,-63.376101159082744,-52.09865342458774,-31.799803486268043,-39.83357572958403,-37.129469179216045,-17.896580923065564,-27.73634206065352,-42.140732145764076,-26.177344687893868,-21.76896161814648,-35.40707218802519,-20.20870107399786,0.7030937696314883,-8.461145922488095,-6.9297590492274885,13.269224505014357,7.297529907770581,-1.1731631599883174,21.462618460175314,30.24253694801457,15.95127563761134,25.13077913644122,35.76451006348471,16.70941337328098,14.8290941289519,38.35171826865691,37.080930639532326,27.82191810263668,39.5876882835138,31.03974526218965,2.664280515745844,7.453070091042832,23.121577507238722,11.931656009934985,11.555046560903689,27.703125767866062,17.00493602329535,4.423503096923432,22.448782904051996,27.18167465834852,11.43878098592316,22.42328427499515,38.79707572750433,26.872397208154485,28.025230347230444,48.488118699094706,40.69797507783167,27.15217919006069,42.628443503962295,44.330464819907036,24.490285046310824,30.91040999764372,42.4678182654831,25.94235670696098,24.910186842723135,47.03444365950434,43.584356375748634,33.46720376896072,48.16654083635473,46.11940421394213,23.52946613964719,30.615104975744956,47.30335982324,38.409499781859495,41.011336699667744,58.66670980422412,46.127137958875025,29.023915071343048,43.53350913989778,47.69896068145087,31.57367506675346,38.71889724004778,47.952310763495575,29.13403455945357,27.000561712939955,48.663054378344,44.21704167661058,32.04935082231546,44.705665838580884,41.031226814916955,16.954460488145383,22.607073175137806,37.33266331240863,27.047504975527175,31.6291382562292,54.28782978636333,45.76689958651211,28.39193666970213,37.74941847848605,34.19287762438566,12.73260354580497,20.335212911933127,33.9190454389921,19.31690782235441,17.865149053755157,34.68413621660141,22.6519112996818,5.1367787424245765,16.268455444615228,13.889606388514247,-7.757994373991075,-0.7924775567032079,12.14834846434945,-2.316441014095213,-1.675652145544828,17.921583205469915,7.168292574094561,-10.044603270610796,2.1454752706853384,2.1417734611078094,-16.120424927848823,-6.135790040136093,7.421297576843838,-10.107991678445613,-15.245029406519151,-0.30109605696464303,-11.269369949053964,-24.934935663742575,-8.742560798961934,-6.979071336663149,-26.04255786168567,-17.617087844656343,-4.00957030350077,-18.734782867316348,-19.181916211849327,-0.07894135254872658,-9.50873315283998,-23.48335595298319,-6.527017945810021,-2.3069985894168124,-19.506367238744286,-10.890918003671548,1.8343937734354392,-14.26510301484253,-15.098562103431039,5.702469901333959,-2.0003341104242294,-17.66049434863181,-6.52140715441682,-8.675545812563202,-28.663157774598854,-19.491374097726066,-5.74152100133217,-21.96939567399145,-24.769515899891008,-6.612334584815864,-14.122968096079457,-25.702521537408945,-9.48165743601859,-7.93970035800013,-25.627407648670562,-13.295844587706753,8.235474967291028,5.0075694412711895,16.73059012892154,48.129953065688916,52.0209333357884,50.74801094206688,79.80579328194759,99.79619321012262,103.13829660355341,131.94430710573383,158.14047067193212,144.65251897106538,135.5901443194726,141.78091652623363,118.631955696782,88.2927151925953,81.8524900724767,55.816903991552195,8.282628433593127,-6.8595184436626955,-10.134332757730558,-37.53461080958058,-49.76316439529741,-44.41122121599402,-70.7977496457014,-104.1394116111476,-107.90623841583607,-122.79073397137566,-152.9276158997539,-150.48592296367553,-141.02573519904414,-161.58133461236955,-169.09152694945624,-153.67031901394634,-160.08695773680054,-165.95182348092953,-140.76332842291117,-131.84984960442637,-147.42782594072304,-137.14009111218533,-119.88102659188598,-128.74933613290295,-122.2195405442549,-94.86907616219173,-95.35939717911924,-102.68954681528793,-83.95205855598473,-81.9323483931686,-101.68472716936245,-91.78808551663471,-71.9552411330497,-77.43073337579366,-68.82755648688376,-34.467734532536944,-18.898436136218656,-34.08399327028868,-62.10451984341129,-89.80060133800204,-109.52216186439088,-104.0120797940897,-59.08934149343459,-19.974091530774537,-34.744934124040604,-55.723861214659465,-37.997274328866446,-24.74125107280172,-28.21415132677742,-11.21694945316359,0.19902912191363642,-17.83622106060547,-12.006463525688154,20.160872341523316,19.2097578356775,5.688365800395954,20.503790161898078,23.727815477160796,7.064982734298042,18.655786459194104,37.901102374939654,30.961571520528473,37.97623349170229,61.36694387438177,52.504979205313404,37.22883791249656,52.89682512795399,58.07778111653718,45.82778094053456,61.72093725242067,79.92311641357087,64.21023701699184,59.058619683513385,75.21227319369211,67.00097589674695,56.00056641310175,74.47666112782909,77.89787248039056,58.58898097362207,65.08169788240087,76.64545823367739,60.51127109146036,60.53416781476408,82.8866933542651,77.61365008773113,66.04192518582015,81.8610192012229,81.28593461143768,57.851347965827216,61.260243348481424,70.92534993769243,54.015542398126634,53.678118931805415,74.63676685726222,66.98025380362651,53.73019734339425,69.90455903815257,72.09626308054266,52.786799251229304,61.02384900759799,80.44752121454415,82.25275096383865,104.71039433508851,142.98818425077206,138.85036494681225,112.21211502551668,107.14938250650584,94.34447639772041,70.25770632387358,77.37876535622316,88.67725995782905,68.29908596907615,60.54000010060931,74.76164471689579,62.76948108011133,45.98530286095327,59.70980887266809,61.38956093300107,42.06509052423024,47.47310265215479,55.749293900302014,35.41225590088598,31.461142783626563,50.444425615266,42.368803392712465,26.990406251585235,37.79796130660771,34.20525769559225,10.878815618391537,14.220978055726285,21.01188882078558,-1.7040818092987298,-10.456063739444161,2.7040350875381582,-6.655189403999364,-16.197457531621616,2.780308522744839,4.043930501644857,-18.28606366861327,-14.375739942769805,-3.3721788049855244,-17.18388286985723,-15.578449791103386,3.8110407142086107,-8.412004943893644,-29.5484147563509,-23.95516851621679,-30.623505089667493,-52.94926017787417,-43.403128534515176,-27.57994200825395,-43.082922867907726,-48.60369366297175,-35.92280762381618,-48.363164110129034,-60.84760608066064,-42.84938829171432,-41.13603185144105,-61.758397951969926,-55.94053202967869,-45.52847175123231,-61.98483498812413,-61.64241668418057,-40.241937619286304,-46.776453647511836,-58.83068851108017,-43.52376797086641,-44.30527517345163,-66.14528721279115,-58.44804865851191,-42.72895413039278,-54.740920534516846,-53.407770687261795,-33.20103596839938,-42.84048628883755,-58.78362494731985,-44.15153038332639,-41.07472952222667,-58.25795680861507,-49.68434719489971,-38.02742694526766,-56.3689690481636,-59.80533554127135,-39.45881873086009,-43.081514013207624,-51.27963023400967,-33.34091514914827,-33.14602850678699,-56.17262351837989,-51.00638803788596,-35.7475324972086,-44.584330562104185,-39.95437331240761,-19.706245169885683,-31.583836058430578,-50.053530395183664,-37.22098644717492,-34.11503220691462,-49.994901461759156,-40.272434992030085,-26.246258308402894,-39.007677636573185,-35.095348295436295,-9.710629131620909,-13.58317855855109,-25.767863150895465,-11.02178090306721,-10.546485555557396,-30.134076582775535,-21.44607460013892,-7.129888713913072,-21.48460872375983,-21.31612394403844,-0.48714605617925777,-7.798906592479981,-20.39705961234552,-3.1938252221748717,0.9275407407224938,-15.576505408319413,-5.134751139284991,10.239677720794665,-4.119650520483873,-5.526518695179563,15.386930402255082,13.54522561114807,11.355105532577646,41.58182358313867,59.379345593083585,56.01448720604938,81.14182889299441,117.1882432756561,129.8780354508283,154.61994346724398,189.96468574807102,184.2801307754939,161.1042147423325,160.04909452887463,145.28657786213492,112.33904096042244,105.39990279018191,99.23868435321003,60.40255139366483,33.658203697530055,29.603593618613765,3.9563998016244577,-23.52047703182743,-23.91642307504705,-40.360369516981216,-76.87643114971767,-83.27704735639057,-79.74073972605024,-101.15497228258297,-108.50341964819718,-95.6836307060662,-108.1607758346429,-123.57592679635694,-109.34912196054233,-109.73040719182275,-132.5255608157832,-127.45234509371566,-112.2943314415788,-119.97197246710033,-110.75223904357014,-82.61029127116902,-86.43200459031101,-99.55492026326286,-85.68528777982645,-85.11327400064508,-102.63886138809025,-90.29812828174687,-71.17064615507947,-80.06440322821365,-76.66443202759642,-56.64978053113947,-66.17622086388741,-79.42241728516827,-60.563426652386795,-52.80604591213475,-65.3812611959055,-52.26871912311253,-34.012541504497506,-42.57156982733221,-35.940009135222724,-9.29572916170305,-12.044558882298231,-22.91352950539343,-6.933955294851793,-4.7668742958711725,-22.751368148086293,-12.830856813853146,5.693487551227114,0.05000249055542039,9.025797719870766,34.95903038401192,28.22344857210544,10.84525456298094,20.26410676982831,19.019582849794,1.1661559854874515,11.963369563327568,28.05361679254229,15.284075836705174,16.63225510407298,40.033570296092925,37.69077424878003,28.936372409331153,45.46632964015564,45.76211346878248,25.300078099176417,33.91147642891507,51.17257076133304,41.8104784009337,45.68819502375305,68.29250185188411,60.77087611498007,44.19503625135188,53.601704170556935,49.772093506145545,29.801051480216188,42.52141705258729,62.919581414271335,52.26810647165085,50.251248347319006,64.69412570470301,50.89576844787277,33.61072248287584,48.994889796189156,54.441615929031684,41.070342729763034,55.10172213807809,72.63052894166677,57.22257423032069,52.01533003292589,67.50404087381557,58.06771258920119,44.41649625006885,59.74406388319156,61.8987128247464,42.290471802936224,47.3678544886412,57.750992568741516,41.79196360839832,41.29837043528559,62.11221454079122,55.410672725444506,40.88440238254881,52.71555054016634,51.66897165581971,32.53943502145459,42.27742879487116,57.78094871709876,43.40408051583499,40.83588008995895,58.33156945648752,49.46162115460341,36.30780719595711,53.13189552068869,55.76490194915109,33.66043416735098,34.389048751343914,40.150038089518866,19.80670174112707,15.700856007879189,34.28602648014691,27.49813286374647,15.490671087749238,31.166427244439088,32.63780338759723,12.621407419248726,18.483179565880526,30.61723166583564,16.542673392095015,17.08391043196465,37.46058510659986,29.247954061124442,13.392499287784522,23.917613494698333,19.267265747682224,-6.985033064394484,-5.684499376394817,3.8458575450929597,-11.893614319901364,-11.814302990137499,9.631601519596963,2.4417978098846973,-13.847928520692886,-4.408601127114708,-8.63909975429341,-31.23984283808529,-23.480542402041515,-7.33238923207426,-18.524178173208085,-16.30779964412013,5.86738053859454,-0.2292718463561938,-14.496351795093727,-3.6900442471235966,-8.215487496235255,-31.492696143128583,-23.002669947300845,-4.336452660588561,-13.534660004947646,-13.891872347659444,-0.007361387417132548,-16.24925003796996,-36.2393712973332,-22.615434739617328,-18.574856137018788,-35.351039990538624,-27.016002441241174,-13.654582097345976,-28.6966717312784,-30.249696108587116,-11.629888380809392,-22.112191489622173,-40.11514319468127,-27.82474312852948,-25.440424850707963,-42.04002582948771,-31.570764088001443,-16.24807260208525,-31.77315083578343,-36.1653068493348,-19.687499532021004,-27.949691044237635,-39.922609569481956,-22.64439389420614,-20.033559802914393,-42.20861977217189,-42.18076326353517,-36.603769838153354,-53.51629728932008,-49.35689639104258,-20.099246047291203,-19.441821417362558,-32.376350339176675,-25.431302026598747,-34.41637743597381,-59.83024254607424,-51.26023063852797,-30.650304782821856,-35.185036239102345,-26.53016693134113,-0.408705976511774,-7.307430696963619,-26.46178741218151,-19.21056066936619,-21.74519660238131,-39.11643536776698,-25.59575657484666,-6.8059872612007375,-20.390209836119663,-23.043612646650946,-2.931458229398652,-6.701435597329153,-17.005389622036432,-2.708354932435041,-5.5990681627663506,-31.22069895110924,-28.415483482047527,-14.462735357579174,-23.63865365233606,-17.347315346413605,9.00545510294708,5.239944931103914,-9.210751188210608,2.3859713893276835,2.463498459565039,-14.258087631858679,1.2547770783190302,27.933718515799068,28.460043269045485,42.160456470841154,76.2340937170622,84.1037870205997,88.94966991324073,125.70927520172737,148.95709722091698,145.5994751718285,159.7912198741118,170.6213624733021,146.00180999931786,129.11867948973963,127.28680127216037,94.03329218864101,54.58394599214401,47.75993794371302,32.48649374376621,-1.7551276931042512,-11.020324949025444,-17.571241060649132,-53.16479349404254,-71.8138061026349,-64.32949813612115,-80.74015227395354,-103.47588181114203,-98.75250912154806,-106.69535421287513,-133.65257499994064,-130.8203741357979,-118.43151308863588,-133.02398815170304,-134.23793103681393,-112.63535967816043,-116.03233388564988,-125.8359985007921,-108.14029128577869,-104.22577223356893,-120.7702278594008,-108.44012729491715,-87.82408016934367,-95.47191105790588,-92.29809190652426,-70.84080310383257,-76.23289455102295,-86.24124079572613,-66.77674785761411,-58.92673987070028,-71.03803788921657,-58.14863226427293,-41.14248556355867,-53.28845153985231,-53.96066471372968,-34.930059236571054,-40.94238509953088,-51.149429729027034,-32.45591511529335,-26.156265522740846,-40.843345182250125,-30.188624434637745,-13.353018755039887,-23.158774439467017,-18.08456477366801,9.190645669740109,9.332029733208723,0.8429087472792047,18.62127888882869,23.248903947423436,8.126927406095968,20.913248708682083,40.30567417856856,30.245379347248807,31.651663925319568,53.63400959618553,49.53784961976987,39.971396310944314,58.57815121291601,62.14490813612778,42.79295644806892,49.86844328387999,64.03726069046975,51.02266648411506,51.51356897241287,71.68178463878722,62.556350884369685,45.30428335809354,56.981463173900075,57.811877948638575,39.68578151441204,48.9910506569029,63.30219314007505,46.7951684854896,42.16514377515236,59.85207458054735,53.332901887935556,42.11426674105982,58.84491029970591,60.78253039999588,40.3048931806853,46.18429319276951,58.373837401395164,41.563386540142375,36.55180821965435,51.891591019807194,41.105569805388384,25.51122754646328,40.41285490921817,43.836832422502816,26.04168895940448,34.160999009345495,48.38346838765949,33.78179113385177,31.559120408567225,50.59288068572596,43.05988231166793,28.167790484381857,41.66252191900456,43.65181944193199,24.454837841392873,30.71034444820086,43.43523407078321,27.55692384481788,23.621582893036205,40.92016848730011,31.464027801657497,14.155413877371904,25.205483464768676,24.619038181534172,3.0946629450659167,8.79392625228661,23.153109232876712,10.172850088175654,9.233412442801383,27.80620002236043,16.374962825445785,-5.397048647220413,1.5399215678427254,0.4107463059692127,-16.87772423258527,-3.8380030114995716,18.099077991516463,9.898842365960293,9.3442157614184,25.89840540279401,13.277404536364187,-7.460884636860024,2.888415397482323,6.50336333454554,-6.781965635116176,7.414927835777613,25.441519237485405,8.469675217000832,-1.342794066146016,10.311428331645832,0.2556899181364205,-10.168455977587001,12.51067642823129,22.345313360700075,6.484325926626653,12.698350547883004,23.799277086632788,6.824572185884236,3.8191863042403154,22.90848461074727,14.163398467657046,-3.734371456994105,6.87234844086288,7.637131680020337,-11.168347098659254,-3.2639734486597494,11.593052712875787,-3.109076880990653,-6.278178870940885,13.456200453403916,7.290817405204081,-9.178555714578078,-0.8267984768690289,-4.99522337178626,-27.442590376739084,-18.45918413626997,1.7122641957401274,-7.160770473223412,-8.598360045585299,6.5514260860340325,-6.767228454337753,-26.051098680688856,-13.844962157806732,-11.291570685525214,-29.312099243441214,-22.127398560786517,-10.003138374241209,-26.866757768081257,-29.90168677619434,-10.489661733149108,-18.61457678312329,-36.65775602973736,-28.63318252029908,-31.271236337903993,-49.498213243586605,-36.02391382157062,-14.296419489728944,-23.367964366530757,-23.8134113193845,-5.40286683698073,-12.694816405959397,-23.89418779858797,-2.9753966396005236,9.804117410961451,5.093074878022721,29.850809298131463,64.31716145767726,71.14885341819082,88.6937657782884,124.70221433546486,128.47519292789622,116.20514368024783,124.163323967203,113.33895590062818,75.78628712318196,63.12683123800974,58.6635239770378,25.403299357598257,3.595948804986972,3.852639633466177,-21.169933654993514,-52.38194332166818,-54.55992809116097,-69.53144488442368,-106.63402670239365,-114.65935648391343,-108.72029794644367,-125.04268121763813,-127.64358749431833,-110.94782002915147,-124.0203556396045,-146.29453344137505,-137.67305210415432,-136.1904330433356,-152.80930528619268,-140.40164296493248,-118.0331256095124,-124.30480380885031,-121.24552181419911,-99.48871439669384,-105.82711266976415,-117.68896797353928,-95.34791400904902,-80.91013991296651,-88.65447294525259,-73.69951077852235,-56.26970637117702,-70.83697958729115,-73.59149481340359,-53.459025047159514,-57.98975598450905,-67.1753000326619,-45.046381466074926,-35.16608593192324,-50.97360516179204,-44.06203981769602,-28.87523017245038,-37.76970140543583,-29.507390640409625,2.692767765278525,4.860825187135846,-8.017472466426367,3.182954483435738,4.630207672966376,-10.433062658840925,4.475353611358727,27.57788671496193,18.988999189847437,17.073608547083886,34.04044641565008,25.309870351284815,10.837251691650415,27.12233504590931,32.638281194871354,14.890342438024101,21.468942829353058,35.665392588917264,22.80987477390928,24.413099115849096,50.207251493422866,48.47521345580509,33.938504906895275,43.76598276842209,41.76414931176748,20.406545074882168,27.950804604772713,45.385901927343404,34.5851281296954,33.801549748496505,53.21610172850285,45.00652588662056,26.982309621500395,37.51537936338692,39.8052633363026,23.560630666930003,34.28739584929767,51.634529118291006,38.24946528306045,36.400750924706195,59.39240898146467,57.83520785367973,46.49422707453978,60.53424686223391,59.668968495962105,34.61023597845466,36.48789710223685,48.468453751541176,32.91388404567161,30.391830303034254,52.193753331724196,48.249503190706356,34.21518290588612,46.80853162039901,47.10478483489656,24.945201471073524,30.19600849612778,47.03556522051647,37.01854270114443,37.38281493276804,58.65368058583759,52.228541166080625,35.53798575095864,46.897769694179104,46.88128496208847,24.388155700461695,28.842843003222942,42.460542742306856,26.54535603359615,20.348811655540302,34.691193576675154,22.06498431275848,2.615540148444574,14.499942020542376,16.373916092387308,-4.087037065902935,1.6140582773923589,16.581426996104152,3.9690740246596903,3.257248349299241,24.733995519742326,19.128472705605382,3.1385001697584185,14.090727398784193,14.145857225421715,-5.656539070119855,3.178144457039143,21.422426579573916,9.238757510417221,3.95522392151064,17.100314583809585,3.587620287953012,-17.287999933919707,-8.18599328603883,-7.364531970649461,-24.80211668164206,-13.088100591861117,8.010818909549833,-2.172416207047168,-5.433211459511549,11.70094444262445,3.2037441047994815,-12.686909735403999,1.5812395751367099,5.306157013473038,-13.517657177318117,-5.427997588759212,12.705531092805824,1.4285725281740156,-1.7258976233174426,15.63323830921155,7.056986663848934,-10.48478752003398,0.26511028585356566,0.4454491251951016,-22.612399485325373,-21.324161379600923,-9.528839921308318,-21.350813684530156,-18.286038882107345,8.078627362446221,6.323298285397916,-9.029944666185372,0.7306174701862291,1.3752582362656964,-15.65876924465711,-3.7416827711630782,17.02579825533726,6.4890684819669495,3.187642889906803,20.731212125966238,13.434950260810968,-0.3848851316582387,16.901581228377886,24.33787949137232,7.685349535685887,13.941689493832929,27.06041237619212,11.18775669422386,6.095129824694123,22.49096525325149,11.543011144136788,-9.189946120029127,-0.11378005855039319,2.2609144243152475,-13.13663733362381,0.9266447813961598,27.677558405235192,29.057187901805484,43.04339631999074,81.8463942454813,97.39336919339536,104.33101505698266,137.0373476541266,151.50767862082023,131.31625232938939,125.66583169041866,123.31940919600336,90.58100492217862,67.228494704768,64.24749458331667,32.62151480484243,-9.57739771747322,-20.277027702507638,-35.71172195623654,-70.03253692151307,-78.018380460983,-76.37040343246896,-102.04634227667945,-115.32789646882371,-103.0047759731631,-113.27701540301803,-131.93027205400725,-122.64293286464945,-123.18997625174529,-145.24815759053334,-141.1290697352945,-126.13658793468682,-138.53466479854373,-141.99744971904255,-123.85559242892539,-130.09967870329513,-144.11836797804165,-127.1167835192349,-117.38131519849415,-130.42067413324182,-120.22322450916845,-101.2228659929954,-110.43877432067563,-109.13857714873805,-83.48312797660756,-81.36715808454572,-88.23545047460809,-66.93873919371337,-56.91442232476785,-71.52243938977297,-61.1808636076771,-38.73759433828358,-41.215832720357106,-32.387440900600474,-2.8277090620913956,-3.1542521134759216,-18.18707810314875,-6.461593369194224,-2.6045648117408247,-19.838955368450396,-11.615090568262865,6.342308687588634,-5.012166717357393,-7.400998757070074,14.156684051068154,11.963477615806685,-0.3908192518052571,14.772814794138647,20.210045088805145,3.407874037323344,12.418459864487183,31.683561326277427,22.063687900829088,21.07382402771811,42.23734594020209,37.52068785691832,21.319128030312278,32.272444044400316,33.67379068660267,13.351979609732393,20.308140087281178,39.31412130381419,29.520700591392,26.154348298896974,42.24367263814234,31.786356268313263,12.280429123592022,24.747665880157154,32.510328114500226,18.911108052541742,26.55980547426299,39.37700193371911,22.322570101032966,16.72245349038272,38.00667393750138,38.219039831159435,28.603118810805338,43.72938159310273,46.339810362610876,25.893687691097085,32.49011361027495,52.67997194766858,46.93118289628026,48.27860228918455,65.95327789702719,51.95843294267349,25.30866730802549,31.201500638728966,35.38462510421868,20.785304074374327,28.947036911629713,41.71251983915085,22.202273253491356,13.351093824615868,33.141489687177476,32.953364813612005,22.209207031985486,34.69385166682228,32.55961851107742,6.004584146684568,8.104164214782124,27.13272569333691,21.48106167710565,21.9488909434789,38.573276619068736,25.32229738635835,1.7877291820204961,12.194635912061159,20.47128073394005,7.541234341783696,15.702136879052558,30.39895146072732,15.156493794343364,9.232062310508303,28.213328097876246,23.747643771127223,8.098593986497143,20.358239931737938,25.242412287285973,9.584901793629783,20.05728944488458,39.841183171866795,27.920261329857517,20.234492893807865,31.64383697864854,19.29996375083834,2.0894402450982836,18.37612082628221,27.661015316456034,11.8243229757991,15.303554308631622,26.036744132049712,11.042839839775898,9.680983325493143,33.94867613494227,32.891279611385585,18.15525136547624,29.18546154793269,31.61969927233472,13.097754152134085,21.464877055773226,40.48365311528635,27.943117031009784,19.99783989979657,32.7618359688135,20.764022658381545,-0.4770028065713374,9.089720815432512,11.545865879978702,-9.255676152782293,-3.717660311103878,16.273728251705467,8.976917038082934,7.576495615503559,23.985061715393503,10.611285775272295,-13.516854725451038,-3.150050378367605,5.55504043087448,-7.152884756282819,0.3854695944227817,13.099110473544838,-4.85125126310772,-12.43052248387755,6.971550667568174,3.1032132421250322,-15.253000211666498,-9.05424509137791,-10.54420488267903,-32.31350754256079,-27.943284137110666,-12.365957932073947,-26.40419498700401,-33.76593988003137,-16.77544896827756,-21.2219749734337,-36.745847836973105,-27.21722701082725,-27.605883575907818,-49.464728131784426,-43.579522202169485,-23.248094919732406,-30.283899683916882,-32.93938097693335,-18.578394644684394,-31.87078339804641,-54.95141333031959,-45.19106070775392,-36.75577410654493,-44.655318512431876,-23.571302920928836,11.195137889880819,18.563470426903162,34.36538590989746,74.62584372360261,91.76309224636994,96.5207485133602,123.07465743326141,129.0402738764859,98.99347191059495,86.98259368125166,86.31772748500804,59.2171864919642,40.01233750244756,40.878152822656105,13.431659535814894,-25.74988470946791,-33.146095456683106,-45.5109612490509,-80.10048893435813,-88.81543735941293,-83.66366036439679,-104.84064658504133,-116.96260037309506,-104.81972173196006,-115.33622141407767,-134.63511385227199,-122.64733809788413,-115.81443667606572,-130.5446228619018,-120.6211542529959,-99.40199753160263,-107.13970043329076,-108.39795464916756,-85.98768556585965,-84.9647231716223,-93.22144675785628,-73.51274973605884,-63.560540604144705,-79.6962402679444,-73.49123280428837,-55.174402606701065,-63.628577870705556,-63.95713804089106,-41.146453585885446,-43.02427865896779,-57.58877283654196,-44.54616362089159,-38.36516525125693,-53.53074197243899,-42.35893435714149,-18.473243452523864,-23.22190790910344,-21.471224861682117,3.104194030000029,3.3118467994383813,-10.118490776763927,1.5327150898823092,3.7013066230291773,-17.21461793473926,-11.006760203262985,11.316856385486531,6.983194486812085,7.1778941953515565,26.556762866714475,19.445134644290032,0.1678087723660706,10.935403713758069,16.941400587585644,0.05580622387670253,5.848273338086132,22.967452043044677,13.039912020265607,12.671295815352584,37.24249724504205,36.27568763919755,19.60703684780234,28.4613116520143,30.184770530351017,10.829935612223963,18.066283861221276,37.98395304151778,27.665965779302333,21.704829339276372,38.14759131808969,31.23081935964661,14.105026382725848,29.277268537252244,41.98266179093454,32.314088201386205,42.88319346114615,60.136433160797324,45.08016057054772,35.57151035407901,51.355128010524396,46.63029679913587,31.980559988716763,46.649455478990355,54.395648452142574,36.41903658593821,38.95685154120483,52.051679212189356,37.75320574295704,33.00041878637981,54.385527638439875,51.515604936362934,33.80383171914044,43.86077695004194,48.788620972145374,31.417453342936604,38.00325641475119,55.61047032574411,42.92712481478648,36.52955438305396,55.13943395320368,51.91054487464141,38.199115062043916,53.939844145768,61.65543130579732,41.95763496111921,42.802459592387834,55.25767213153716,40.652802462142645,35.90087268376922,57.11952441948061,51.76562092725884,28.749379161365756,32.74390047204558,32.45441891264053,11.555742740192724,17.936302313910303,38.26829770523365,27.285796283214694,19.423750813143617,34.55762441409363,26.129890643466844,5.904358877421262,16.931382957518522,24.599499693962294,9.22857256849218,16.18029106500366,33.10459676883237,18.22079001223064,7.384040725190799,20.514010733324813,12.51864135952763,-5.087155387883427,7.1279598675471245,13.012436334826702,-5.150373669802848,-0.4383971979620238,16.004030746696372,2.938764258241739,-6.096414742611519,5.778825286752873,-7.442413283110274,-32.32886248751439,-26.208052622543338,-24.619637373566718,-45.74173360907126,-40.33718651646364,-18.7650775628059,-24.75300298446022,-25.473098055532336,-4.380230164776195,-10.573757593722036,-32.00577353864416,-23.26141250113591,-17.952836370031658,-35.86523485480549,-29.401097432021125,-7.997203478508564,-13.744065179310372,-12.582393409904984,13.087917464906255,12.537649063543494,-6.499617339374398,-0.6693510489155878,-1.6971567890666774,-26.302334339839362,-24.973047580516177,-7.157047779083311,-15.86443481469462,-17.500676326403614,5.211825760149715,1.6727222541812914,-19.199224492685172,-13.130612466963758,-12.040636447348103,-33.30866499254117,-28.19611733811808,-7.465923011169265,-16.415407994935606,-22.92189502284112,-6.989562736012742,-13.815182362476648,-31.765179610386483,-17.90007436102562,-7.806520134140781,-23.202553036857523,-17.303326257322066,1.4756099703018863,-8.771266336877694,-15.132663577992991,1.9969866048952376,-2.237005868710824,-16.540663775430552,0.9364518267044115,14.900652400652117,5.377397722445084,21.639308777707516,57.26941050656794,69.86403162585077,89.21463041106094,129.72612080019795,141.23337356017052,132.8153739818053,147.75662758303406,153.20532218458519,128.5025710853268,118.44953533058892,113.35601906666824,73.17606572181967,36.070466935017706,27.23142437347329,1.82905382295983,-33.82760281826708,-40.86588684571701,-53.81572289901837,-91.31022105922635,-103.76050826735596,-98.63881221565818,-118.8780091127845,-131.70284806716825,-117.24711909536924,-123.11581758934535,-142.52936957697955,-134.56314200875752,-131.32402086928832,-150.2075246525598,-142.31307200799,-117.17143253506916,-121.05864073355274,-124.04967434205932,-106.19043016932767,-111.86912344186513,-129.48871312601554,-115.12398075563718,-101.7641908747934,-110.43736426499568,-95.97285161698072,-68.34276489970722,-71.60221659694723,-73.73313140350888,-53.75325694840227,-57.56973207364329,-75.49282091355876,-62.220306227414135,-48.945357900066384,-56.76640483053004,-41.48111808705882,-15.524507274754107,-23.998688710559378,-31.38364007723006,-12.357803941435206,-11.696334848020202,-22.0973630184475,-3.18698073527882,9.354454490153095,-5.988833449411948,-1.1905770532064661,17.0419896987892,7.180134280260426,2.5378292308228265,23.477984611510642,22.87348474059797,8.28639067887475,22.127395055154146,31.78049118206591,16.408201477387998,22.562867446141425,42.55477477070751,34.4838425418564,32.03200353597669,55.1893645544447,54.6732062234496,37.36701625461926,46.616936235524534,50.1194761776474,28.684811685425075,31.04603446334306,48.633675549708656,37.17668371399537,29.45533641581904,46.66807539411028,42.114094159347516,23.749722248181513,33.79139416469227,39.175632000769625,19.96038157771556,24.323760861253152,45.38872074245327,39.30771923108482,35.74887428990164,53.57727890146809,45.87167918128374,21.786675373040197,27.087343393824142,31.591812101925257,14.704399753688033,22.391033817266887,45.44674965032573,38.55757148799982,32.32189923182175,47.7987473463672,39.29329132025734,15.805597757986042,22.5526977505491,29.04918593567541,14.265659660728222,23.252122524414556,45.81239180457394,36.33527603820228,26.468360976969898,39.70889625960667,33.25909402711122,17.14788068484765,33.468982246655976,46.340567688761325,30.949356743270734,32.12413331999923,44.02192314810383,27.230525842542686,16.46604662378061,34.406805612564256,33.34050727404342,16.02826725789838,23.24472185067271,24.368525481418484,-0.12174537054693069,0.06155886994862403,20.8513988720976,15.976723516130054,12.492517747878166,30.52833710813684,23.771130160337766,0.8960554203840054,9.124773634483054,18.690395477962156,5.731297159602687,14.117320592166905,36.080155402443175,27.196929615564304,18.481629046467205,32.98737919917857,25.198862532192656,2.5238858958594843,10.895859951820187,20.444085259937555,7.2292031676138215,13.22023325223805,28.63353234125163,11.015166836258679,-3.63996721188436,11.011025033519058,8.912988836034202,-6.993587935967439,3.2560915291035997,7.441119010604529,-14.446199021286514,-12.808698866442992,6.886230384091322,-1.2260187459009844,-7.955318246369892,8.592871580149566,1.3868426949521968,-23.455669046710256,-19.033443891904177,-13.088846874999724,-28.56097949822356,-21.36308504185869,0.24505694282141022,-10.499583389101184,-22.774674844438948,-9.558463957000422,-13.341145069080579,-28.502716223979945,-13.34441490630832,-1.1342512018286,-16.622060213897885,-13.16120004708517,6.464702700098001,-0.14484635842169524,-3.568724253534546,17.42561364336609,14.935730460977378,-6.645182782381843,-0.47138396295331386,6.3912962823886215,-10.14802792795152,-6.0162368385488225,12.875207274462863,1.4339395697697626,-9.488971706687375,5.515079614601511,1.175433079462711,-17.81250837530451,-7.695592126888993,0.4621046735298522,-17.344584282719914,-14.526095918991064,4.985538384372443,-3.2387066114579897,-10.522659491644633,5.249176906414383,-2.501741775938271,-27.54458174050282,-21.906963555749364,-14.243895566410977,-31.75781129285257,-30.99471314839238,-14.349008708317472,-24.460836559006456,-32.19415199302875,-12.525184654618425,-9.471051824677001,-18.609686402848247,6.435482244573844,37.77672536061104,47.47773881314275,75.79444567089284,116.98279805107266,127.09166518492626,134.51442063121956,161.6237039698536,162.57214576892733,141.37221874738313,141.6304434328178,134.02164342546752,94.91782949501169,70.92595350232983,61.98482523547097,28.33655221895696,0.08180039263998129,-0.4970078489290284,-21.136163810709217,-59.843855851040026,-71.40211017227708,-81.1566003579097,-110.60325539525482,-114.69747866676737,-99.629587113209,-113.03713187923314,-127.78284114570037,-117.96899285898157,-126.17626811068902,-148.34506862817798,-141.46821197024767,-134.95826922922697,-152.3135455487593,-147.5099433029823,-124.95609247261945,-132.13778468601896,-142.76675805077497,-129.8758188805922,-133.28601422497593,-147.20987871114167,-129.0455898168433,-110.40747104680258,-117.55170491753985,-105.6221547272502,-77.41128502119204,-77.67824856641228,-80.15703805531531,-61.18453637402848,-62.84796289157748,-78.82546447011978,-64.6353615132183,-49.57032722511401,-58.78133722764749,-48.24260380951422,-22.323262789503683,-26.908838050963944,-34.309466085763326,-17.83870219338329,-19.924111010522168,-36.213028876903635,-21.903520132192348,-7.91945467051286,-22.381104370316386,-19.12576724966216,2.0486688839505085,-2.557810558027028,-5.187116184891097,18.74110376236396,23.40643480858776,10.78730687361331,25.349476228278427,37.96589557110903,22.618712066853696,25.179774428049683,43.877963062582346,34.50140041491781,25.469564918805894,41.29172759446155,37.48080578378827,19.19433696505009,32.70215002729181,48.46413438909222,37.345911485634545,40.97738513645887,57.04989312137964,44.03838158177822,33.429011138398145,53.0468180518817,57.64129398993274,45.148106140892615,56.69090245772017,64.92187729357431,46.12990486137865,47.832167066826834,69.90857343441253,64.64672503681905,55.435751704459975,68.11141955687177,60.57746193193586,37.23517249556343,45.15065551170446,56.61098085446992,43.17472721465809,48.23276012573879,70.061493170401,62.788936400813455,52.48452526682618,65.49582964160712,59.6421950113277,39.303571609240976,50.44955794875528,64.03334871036823,50.10503120120041,50.63411461588166,65.02348314361232,51.10868783981645,39.51337286238053,58.36940927572703,60.169070463487834,41.936208801770164,48.11280981864083,52.7409918072195,31.445507168203267,31.658010358105823,51.742448941430496,43.50277750681862,32.836350572620034,46.5816799024035,40.88662353536543,18.4796850925136,25.79906292824134,35.01631690155104,17.9195470335279,18.62535399545759,35.89174050255891,23.56011142495485,8.711265298120292,20.42877680004113,16.802278342007007,-0.8193305323603024,11.232866929502249,23.514873066251184,6.982813609128819,5.712130328738571,20.71841363289227,8.85623521328705,-3.2677213379474606,10.098171253652561,4.772033224638493,-18.30523467780923,-13.345808271463588,-5.201328453141599,-19.524379642605698,-12.258657154030638,13.574624885434176,7.951877168372055,-5.933264494506332,1.0849468736247783,-8.852579964461102,-29.46666314187262,-13.779274193216253,7.823419744119269,0.4572667162332946,2.9299665913553126,16.0660197562693,-0.3596858842840689,-15.531720470790283,-0.6788143993967335,-2.2590621053843587,-23.927483793429182,-20.865359865289633,-16.456536098885856,-36.57343432369,-37.86816123576616,-20.422353796776694,-29.16658565600694,-37.73745737913709,-17.436952438269124,-12.987713825979691,-28.4428084515827,-20.205865822485457,-12.270657609827818,-29.652535870579023,-26.31771505277431,-1.8543232517820023,-4.601314392779374,-11.517760503801277,4.8565254131510445,1.3468892519004685,-21.053992877464015,-14.326181773451372,-3.0554911984435957,-15.818741813909865,-9.355257630930495,15.0188210060267,7.9567078651231045,-6.5753172802438815,1.4214721191113133,-8.617198144372594,-33.37473353010016,-24.223243186228963,-8.674160171925923,-19.993545943242363,-17.539025872922025,-0.6080803101377636,-12.890786482796372,-26.153530855681826,-10.46880791929239,-10.182503752436174,-28.320489464456397,-19.307385596287574,-6.161058009459685,-16.42300273033711,-7.171190262312192,22.6184682077716,26.709030271031118,29.58746635102608,61.086095278767374,79.8961322128855,85.20617952515204,119.8594781646208,152.4884628900906,147.93018642957043,146.86975134368015,152.25143060084537,122.47652383748229,86.72283000289706,76.45868160319766,49.75981903204166,6.139884796912437,-7.087729286693701,-13.843488650993754,-44.37597859852071,-56.9120542789122,-50.45761465673645,-72.965165555762,-101.22504006304875,-102.86706283285156,-116.11570674365433,-141.11224646044764,-133.37063276616385,-120.87514611181822,-136.32557644351033,-137.12744236532478,-119.84022899991811,-129.22417986699494,-139.74691644113108,-120.81805362113161,-115.57265055368165,-128.0080550782824,-114.41978566498653,-100.52135831651711,-114.26914351338927,-108.87787898265012,-81.88663717188227,-83.2675831630933,-90.39866719451456,-71.291926309388,-66.54342193327801,-78.13045887833303,-61.059620619812705,-41.540673879530594,-50.80552546185958,-45.031375623368525,-20.577931703395606,-24.74832550615352,-34.15949691852447,-17.0184835136166,-14.731720577951865,-30.366469383334266,-18.27799399110983,-3.004413390629187,-14.968667649772229,-10.450957734760618,12.92521752026354,6.308847476659561,-6.660832681471637,7.045340993598136,6.328293829663262,-10.961328772539957,2.64003051093042,21.300435085010605,9.853882146961451,9.301628523361943,25.07891282603656,14.100155003445257,2.919254248162831,23.32705252816509,29.75293193739488,14.678499572757698,24.62471698336909,38.68096724139535,26.676766747537798,30.172146088457666,51.54850506253956,43.49583990427345,30.30185359455892,45.04857138994885,44.543319558464376,22.76322528132905,27.931442541014345,39.94626864844571,27.475538052563486,32.120945940259546,56.79135418087145,51.56151864765675,37.862661404768886,49.447875259429324,45.53157124300092,22.069419732110568,28.127334696220647,42.47134250698335,30.936812886878734,32.360247188809815,49.82383650964609,36.96860157904558,18.7103648873778,30.393662759868832,31.114521287899407,14.130436031435377,25.193887085083947,42.4149621673719,32.783599246171995,36.89550799920883,59.175696264053904,51.96466831711696,37.72899069333067,50.992779431895805,51.114381327019316,31.91141319005294,40.19649199633459,54.76161300610398,41.693168826315855,40.738588451117096,56.583847435947014,41.533434413131744,19.225601516244517,26.441743123838958,23.00241541543987,2.213959236401342,9.613164533105149,22.49878272938349,8.878930244030524,11.72664872810628,35.897269308346566,31.169841869951,16.490875082936,25.005257664113138,18.237336427985007,-5.65877121254146,2.555474918211303,19.878760428564604,9.411364986164536,9.963059422588938,28.255511441513253,19.602915478557833,7.082736678483231,23.623890282760495,25.376265354941403,3.933108019209687,7.405137785509082,17.90353582871751,4.356227973188813,7.072728252490782,29.108845589538788,20.452934309522753,2.4623689360245242,11.919690557489425,10.724743221976095,-7.063031969680539,3.8722739069643657,19.163720785020207,2.4005175357953235,-5.101424454216144,6.600021357530952,-5.655550729634089,-18.68034218511211,0.6473320353270129,7.0011057985249945,-12.390112762400477,-11.859125578997752,-7.781899366412803,-29.58622130299012,-34.15744128404821,-13.44164666367175,-16.779876154859767,-27.315469656812024,-11.300812936917358,-8.686039833369204,-27.682538029469637,-20.66567635306975,-5.8547475974308,-17.25377416123142,-15.136173770154853,7.9712081081351815,3.685588667556069,-9.550568845949755,3.385746036770465,2.8704429486545426,-19.000495650451395,-13.984258068888604,-1.1069934401614088,-15.235805804726446,-15.835829738961989,4.579043851866073,-2.6754327611353057,-18.005432208824967,-5.6189246718476,-4.566086356688617,-22.105095437657386,-10.945369992263531,8.58890287465919,-0.7651925785382518,-1.7700047064369695,14.251266127780134,3.031366700042571,-13.475453150231825,1.503644755604272,6.759497533177884,-11.11170710971711,-7.26026286508547,1.998865758780779,-14.755411273397723,-16.62542254693915,3.1128954914588363,-5.2998947139502555,-22.785177532989124,-11.362365091515315,-8.228517933610172,-22.68892698544321,-10.10868782376177,8.876428962019197,-1.2216157146529207,0.7056949878643946,26.410956732982036,30.379572545751913,31.593598341791704,65.813674979203,92.02283113423309,96.95484337810004,124.67289951567128,155.11877748795933,150.76690963146493,150.19172190393482,164.23239263537434,146.23446872320605,113.2419865176723,100.92562362596279,72.64812317473802,23.134654049395483,3.8231328188031153,-1.9928024608119541,-33.51449728254988,-56.102810773315525,-59.163443427276256,-85.24156982727985,-113.05624061074069,-105.58860047167471,-104.58153451305327,-125.40792162807969,-123.41559524387083,-115.56310586419808,-136.51267907013113,-145.0983103423009,-128.3403222099625,-132.77389199534875,-142.71934883865822,-123.45219234500394,-114.37908196722108,-127.49332745982328,-117.48445156572387,-102.3285545615953,-117.30096731235915,-121.02321313965273,-99.82944873819133,-99.77873774919273,-105.57852187714045,-83.67410520535968,-74.24937394963963,-89.22402396676407,-81.94354821142299,-67.15270458453165,-77.78644906712681,-73.75548215789257,-45.152395023696144,-42.362945600210544,-51.793243632012185,-36.38828756414513,-30.61931121006809,-42.80891581584539,-27.079238086819082,-3.6420273673456007,-11.822996765117546,-13.795885583204939,3.9342991826117997,-2.620790507805908,-15.96941052146135,0.3804293689824565,7.76365662773862,-7.449153345919545,-0.02241507637731921,15.051410923231792,2.5524080443102193,0.5327627238068795,21.55309918723023,18.48170259411186,5.068269177930683,18.77211013814334,24.570760896320373,11.064991237713867,24.314010028275327,47.100338149894206,39.73866967122155,38.529381187910985,56.670476442193575,48.42862303006097,30.961561440470984,43.95812035773172,49.86219301816436,33.537746344300686,40.586524519974766,55.74519664212745,42.34118432333796,39.95829189704789,61.65233148581768,57.70220786671629,41.68863136678848,52.66440531186713,55.22375444809877,36.842571289749074,44.49914257155334,63.232160463255184,54.16837336571625,53.234317521628924,72.99915231387462,65.3775190827916,44.628380846137176,51.082162864046154,50.45519823036291,29.11189671429953,32.74951837207478,46.587652808341105,32.16501272433062,25.869808383157604,42.59209498837043,36.9518754591539,22.274248077932622,36.16967099151932,43.21527643538461,28.629639464917133,37.63539569796671,55.95849334888611,43.154801995911285,33.77164154376402,44.875943563025174,34.49004603533632,18.0397174170564,32.66090354558861,39.7731999610686,21.925201508238352,23.932093099668048,33.94054510622691,15.903887607782487,7.099316630310307,23.864438339551512,20.10672336079785,6.4808606415035195,19.33556291482376,22.29069741192109,1.255980326082705,6.0269192925266815,25.7009595915254,18.707556645442377,17.714196962754077,37.50781406647658,30.622773627983666,9.29943264436793,15.07164391587813,14.920413592624332,-5.498556235629181,1.1895365701458411,20.75620110917857,9.76198580721424,1.462687061329029,13.013133088428692,0.5844058677693562,-21.19159042533233,-12.098666990803027,-8.268055297701421,-26.744008748498914,-21.27795413351456,-3.713862737622059,-13.302367322620565,-15.13444651280146,6.470836389853645,3.9437990271351833,-12.726752471612697,-3.9640820295359696,-2.5468903223185038,-23.715119515900433,-20.935988006794087,-5.993240261235626,-19.6485091405931,-27.331714076610314,-11.02404499652293,-16.362424154182815,-32.14939697326293,-19.769214404113566,-16.415383348733798,-39.115989207898345,-38.07924272377127,-21.983910942526197,-30.419180943455356,-29.648640547339696,-5.820025461203881,-8.918833829734512,-27.81502927854114,-19.517348116945183,-16.170080000257222,-33.71507907196911,-25.569272034063708,-4.614797839531161,-13.469997560836656,-18.96189191269795,-4.390525420964034,-15.508707948982988,-39.002322480012644,-31.999225483385683,-27.6336251849551,-43.4541244784008,-33.54645313807605,-10.20046518710999,-16.603196591825867,-20.13690360984171,-3.486749928226054,-12.004718856909466,-31.190011914210718,-17.34468511433618,-5.53452749009984,-16.493514149934988,-7.698422411996421,7.53810151179966,-8.926486463310829,-17.577742937504038,1.6232562232068197,1.7518621611079572,-7.600346891674217,12.57960552368174,28.38125503590374,24.870188757808485,49.95993123540371,91.9639355726004,107.06030767734387,125.68420333109586,164.02490005059585,172.66362991399123,157.02177210249928,157.62010645369384,144.3788879015871,103.21864185724348,85.83725716575086,85.24204329658633,57.44342493265571,32.54554644767526,29.636762038725234,4.43055351432485,-31.77769983582696,-36.03332734922565,-41.11497636642683,-67.61868837113002,-71.91538460736152,-64.94872555483448,-88.29222896908686,-107.76350377454912,-101.76270700616908,-113.32594971043063,-131.87701913204697,-117.60745802850803,-106.35134183576045,-119.80315959359642,-114.3952897795292,-99.71484250318058,-113.58364018035613,-118.82136828913924,-95.27362846088053,-91.48002163889367,-102.55245351141558,-89.63576745969829,-83.910849482383,-99.88044874777563,-88.61346393098843,-61.62845888967671,-65.56643283289817,-69.96484383352602,-53.725284583757286,-59.54086289512064,-75.6074098510878,-59.2476391368706,-44.790992429014764,-54.51604981700975,-45.15310947354459,-27.05854289353971,-39.79812681762306,-46.30037254911058,-24.33063277032152,-20.974932479735653,-32.10896493171772,-20.030260491978716,-15.90913326449295,-33.86619661037288,-23.912310948026686,4.499769976400485,4.657397338293311,3.6715439283568267,20.173222501283806,11.400312017477232,-10.525699359813386,-0.3500999683724819,11.472507793716709,1.4058279632409798,9.856815843866464,27.19046892207051,12.133061984247297,-0.7379249556231038,13.82510399360365,11.699833595042167,-1.9421417250279172,12.533489980809136,21.608544012986897,5.200757088610232,11.958854519016864,34.902124866634246,29.65449825797256,26.88983461889312,47.57444476984857,45.69836632451984,29.4115976598614,44.02193841301466,58.43011657362571,47.86344529524372,55.43879549398561,73.39580442852534,59.20041493884641,48.33323736723001,67.8068927128635,71.26127699084162,59.268236501580844,70.13334435978442,73.03711292044187,51.02122154105024,55.67513416231498,80.26523344466663,75.29539656644923,67.07931129182012,78.38934137236156,68.37101863920817,48.269390340733935,61.698094477803465,73.50329591995266,56.494523937577014,54.926618744082596,65.37302127331935,48.499600904039575,38.04225484153045,56.842999092304844,56.31972014809222,38.65920091840056,46.24907449684998,50.54005484667679,31.813936048719576,36.41916019455418,56.06750126985715,43.738437771402324,29.329767066619,39.131301342763635,31.310885115712114,11.955746035136515,23.197501013086345,32.76835177773429,15.88936216981411,18.275064023340718,36.57860575013072,27.194339427087314,17.939027685712958,31.038365957187363,21.86258976860477,-3.242703200243138,1.5733026601171316,7.421407018860793,-9.746951077734892,-5.434079063532985,14.008797362733475,3.0712910706885577,-9.042440842522897,1.2412345484204526,-10.082696615505206,-34.39149318364937,-24.949948315307743,-13.853501116032431,-29.450556375353763,-28.401548994496352,-13.163145677955583,-24.358851285599535,-30.72161401126414,-8.7944720317112,-7.852701437937362,-28.247167396336256,-24.500921058516802,-21.147922566151845,-39.76148314379818,-34.535134587231106,-11.31207388619005,-19.100312445738858,-31.084482898745225,-18.89156192325975,-22.52196666331921,-37.20642776086308,-20.941524948506093,-7.7436163940888765,-26.400521569652202,-28.887403418637824,-12.37408036905865,-19.188967098735198,-22.0177199311826,0.6619296602672335,-0.2166343786915368,-21.61114884641278,-15.485070137855969,-7.481464587426107,-21.194679738157465,-12.616061104700082,11.970436146163909,5.497019406066956,-4.21327146683946,9.932303139030653,6.918671816599379,-9.76769983618191,1.482309878955821,10.379933108138342,-9.381935605578828,-11.823204774716217,5.1611992388986545,-1.0373127191223208,-5.695453499227485,12.697751328294633,7.212533789698907,-18.60086957823882,-15.080844500738603,-5.563992098067943,-15.045139114051082,-3.222869518311663,21.004001830703736,9.978322712430995,-6.023662344983306,4.158206722942562,0.9041744853035265,-12.916331042688027,3.478050015345495,16.574220434195286,-2.883012777771711,-8.369962453255937,2.6259499551783323,-12.37842432100328,-25.05032064862464,-9.11992501535099,-10.766700237829806,-29.430223274940246,-19.165545162625005,-8.265639008070227,-25.74361442772406,-26.456386198627122,-8.965116428555952,-17.753760890230343,-25.455146781856584,-3.951811757932159,2.5523382762818483,-4.465675048024071,22.563589582306882,56.58780160773044,66.19773811833693,91.49356753242748,130.20884007931662,136.16460491016164,135.23398122119625,153.55143908611532,144.35517936899458,106.29029179617342,87.12718315107094,66.05308376875281,21.01365815725743,-0.8784296158647749,-0.009554970800011109,-25.401105835416168,-54.381252156648266,-58.089535293428966,-76.1056823483303,-106.30415423405168,-103.7715870578107,-96.99451997033725,-117.51981774405832,-121.75706990328561,-105.75077501179035,-114.23169152280059,-123.78463720603254,-107.68453390707413,-110.05207705772602,-130.62024068390497,-121.64833019236062,-108.61656190639938,-121.48513730486212,-117.64856126851308,-96.84541540071189,-103.80206916235707,-110.6332524571837,-87.60379064670428,-78.14258980132236,-84.93199549039497,-66.84090673970569,-52.12035258205512,-67.77775005899124,-66.99940341385572,-45.469960321660906,-47.425501647780195,-49.44006978052703,-26.28202568289659,-24.120898707684916,-43.99107174620116,-36.21419140312175,-22.439768591351488,-32.05287650141656,-24.61761062586581,-1.804226297502777,-11.074883062862689,-24.943258203379553,-9.277105354031688,-5.871655960842004,-18.84944019278497,-4.754204961845653,9.961978463754992,-4.153987011475856,-2.317806686617929,19.19438716419292,15.582900814579634,10.728397259312487,32.078362362050584,34.99281631828903,16.39867783659293,23.58929006148156,35.56262093820243,24.09184180372436,30.52303718064879,54.788346654622025,49.03156889249752,37.007549347437546,50.04471352791537,47.57646023667401,27.623352678741202,35.26127735966048,46.341415264308665,31.502621322709203,33.43193537301233,54.32146069678374,47.11992183883665,35.69605566395414,51.70758593339515,52.94924262376823,36.35504170321826,47.85928939204719,60.73596767624343,42.17338505132432,37.01750912736721,51.30275924203679,39.52708484383973,26.29671534384461,42.93410612974473,45.37116642764981,28.544582526796653,38.63354162034607,51.87159365373933,36.60193967469003,35.06370113526022,51.84835678769302,42.34808639377458,30.06796145355243,44.31302653067357,41.8538288877571,19.387697573294677,24.56209812610869,36.63121106182236,25.690109406095132,30.884951540727492,51.3377713407979,38.9147731739957,18.845191826205244,27.076466607997553,25.443145328483446,9.987242234494925,23.728580773003326,39.64853031717911,24.944638036094396,23.871595145059405,43.171986164904496,36.15243195478635,23.01100553299008,33.76570738244298,28.370556091492368,5.637795479951809,13.653811668080209,28.417540746311676,13.971104574918924,10.119572731576579,24.77006343537623,14.699173317821298,2.205318008441843,18.401110100192202,20.25591275701338,0.9934079740728201,7.933161418367299,20.677096228111946,5.964729249665674,3.861111793697163,20.26188369647165,10.041441630216159,-3.7249105696365277,11.712305598328001,14.431305133093499,-2.047921747732466,6.712517015814129,18.025796339347583,2.024613979905051,1.4219353021247572,19.57953610398519,8.711826652626167,-8.987428870235796,0.018124590764951876,-2.4674252261759917,-18.690635551848967,-3.693873892734022,15.434431581445434,3.068460958314419,0.479122452909887,14.865662821786096,2.868584332311979,-12.177110291805128,0.998845786465159,-0.1845639262232388,-21.581070436550593,-16.5331220185691,-6.007664939304378,-21.39565975827448,-20.520064180786726,2.369899765082913,-0.8641813279437169,-11.453706840521685,1.5907066227164872,-2.3439402783491468,-26.390078483234824,-20.120416810240723,-3.73643419199769,-13.210028849728143,-10.759428687671342,8.958725070961322,-0.8735734440770297,-18.569509992411586,-8.036415791982598,-7.3696641844641615,-23.400499123905774,-11.499908456973312,5.142103886200829,-10.127684431936885,-17.684603033825063,-5.880424081843421,-15.507387978252803,-25.855354418644414,-7.112887041343329,-3.9014265890734823,-25.86582904528255,-23.44791010907109,-10.245370517623762,-18.337752706365936,-12.079444792788152,11.331092047283295,3.693087835431215,-12.964649925095442,-0.08688435989723331,4.780723901659423,-6.7060288491296,11.254428007422696,39.43385316982488,44.00213246451776,63.00157578032216,101.90179356055685,113.94835974466801,118.48812447038429,147.02254802568663,155.59389214332845,132.32047259823815,123.2219101563585,113.4720643419101,74.80840180106425,50.40540497814598,49.628281769823275,25.592980284641136,-4.57731543108312,-8.148169276725373,-24.788450754403584,-62.891694728391386,-74.00351490028844,-73.5808449821539,-96.72891296784015,-107.53396276162938,-98.17897096948367,-113.68132991510831,-134.18487899947846,-124.6173196100907,-123.81243646873678,-141.18598110413726,-131.99406167796488,-114.66889351169394,-123.73212980059247,-122.96997887675235,-104.9084399645023,-113.15179672518553,-126.18032611094422,-107.79810577644184,-96.76687901554399,-104.74875821633766,-90.32743498435055,-73.82653407461001,-87.65790883606861,-89.6648906590291,-68.76765651440975,-72.22960102676228,-84.91280933500036,-72.66406024949103,-72.36765041609641,-91.53062053852817,-81.99974387732996,-61.26368860857609,-66.62998925335181,-61.16851723846966,-35.67157091347006,-37.53835977610326,-48.24872126733178,-28.893613344280844,-16.661122854352765,-24.540738655355433,-9.907336632222135,8.180982692555158,-4.491889309537608,-5.872983379315584,16.745357700930846,15.388779588912918,3.929448784509227,16.21069687078168,15.492006469151551,-4.372355583742266,5.200975824694855,25.761965394353812,19.33686617991919,20.54442028816712,37.49372580234283,26.487925594823487,8.639366648320792,21.903871686073455,28.457449457019898,15.11477176157347,24.871003989666075,40.03392242972068,26.580460427637707,25.15571646040474,46.9651005941145,43.8453119907967,31.41136424420847,46.08577023355155,51.30246510720401,36.530860739710036,45.241883146100385,56.885431154614736,35.09548569012388,22.029395848065835,33.83546095612699,25.979168465852972,13.173003605052543,28.1513100503177,30.70312346502734,10.0181965787404,14.852898525774071,31.072698183031314,22.715688041689702,26.165810327008586,50.62177886030987,46.76805288064101,30.025929545085027,40.15866652165667,43.04951312278663,27.79558723409089,39.375281246916494,58.915112199631764,47.323574665090966,41.95312228021165,56.13957429154267,44.905650999062104,25.566615973909606,36.71956632484497,41.197573851114775,24.723032482246182,31.10298436925876,43.37199473252022,25.388432170621954,16.82843481179796,32.06744933970378,26.526077732305495,16.600749754760677,36.768243841479084,45.297879741169425,26.407286868842533,26.172265191552867,33.407590230227385,16.713642322601736,14.775676542358749,36.45025835521852,30.73710718610285,12.994319997770132,25.355874231149222,33.73540487874934,22.72140943269295,34.42609046273117,51.363905940246454,36.67245654406362,30.817211500330988,48.722006542519786,41.48519112553197,22.055818213959594,29.52208406901788,29.46429650268541,10.112889916122242,17.116567466775624,33.26046011437811,20.09408579428091,14.956849326575048,30.668564649421594,20.366991847977307,-0.27026357003323653,8.758991082553043,12.918752678049998,-1.6094271770661575,8.677906921201526,26.248919788125377,12.073766257987309,4.788304296668543,21.87865099968867,17.92127460296619,4.739065729961583,18.09916318771789,20.54329935228596,-2.078430323350389,-1.2922571228523632,11.733134503871655,-1.251634288395013,-5.877424832424402,10.824937721191475,1.6631818566921943,-18.955730590518154,-10.09162645082601,-6.110683453140823,-22.57848727562567,-15.41068984991718,0.18487992863417535,-15.02812657421137,-23.743975972330183,-8.236472321305127,-13.5439001588279,-28.176277459179218,-16.396150804939367,-15.053825255320069,-37.792292870077354,-36.07752920641024,-20.82471798912711,-30.587027346803435,-33.23448745659244,-16.6808200446561,-25.04878733061531,-42.18344255964345,-28.434739935173237,-19.102204209359734,-31.917408344380064,-25.26429903470082,-12.40312537101755,-28.34357041881168,-34.69176921863805,-15.589130657720183,-17.668823324558655,-29.554429948878937,-14.644848709630244,-9.565537600718674,-28.8393216608303,-25.523257149525257,-12.710119571872687,-27.523166562591623,-31.155315981356924,-7.738885081583508,-4.031704374882314,-6.605842020042475,22.40242488936758,45.61230737098826,48.06843941721225,76.58237588223201,115.2194393522873,119.73429076502353,122.59913091770585,139.5811443838507,126.58623908675412,98.95294194026093,