8.096671325455986,44.076805904271694,109.89850839385406,178.75634977260142,227.89893492306214,240.317100410046,207.6933423037771,162.09362790159295,140.03830751008329,132.19571430447252,122.25691728703715,115.70048849556541,107.82718148449302,92.07970478437056,82.50936777231865,79.04171363729338,63.85935285523737,46.04303066053331,42.17356223476526,38.4662148593142,25.63498748984528,15.541220402105228,6.36688140145783,-5.2770102271649915,-3.412690853949189,9.468306407182745,8.714283578665196,-4.9570536687617395,-16.303087735411193,-28.682825852116174,-37.59272336162165,-27.402489337249737,-11.81062192213968,-12.109583910345371,-18.89823097850875,-23.98920415372647,-35.54125875090851,-44.680748582968874,-39.53504912588224,-33.846733071229565,-32.8849443725928,-22.13902649289379,-9.430577811891007,-11.56618427342321,-18.598975180431736,-23.896606351035366,-36.45700617428501,-46.385218129086766,-42.962045789995365,-43.3806800780406,-53.8076965795977,-57.63417270242245,-58.88977369797618,-70.90926479531228,-81.23532894628221,-79.16941070027354,-72.54863769067357,-58.316721477511834,-35.48104712263555,-29.28136109863299,-48.697366791761105,-67.90617986330433,-74.62004072957527,-75.68616234628065,-69.49495845845045,-63.01635543243265,-71.97015201203084,-84.455260936601,-80.83266495052202,-72.69218996139416,-72.07907374144514,-70.87002026643684,-74.19162152783164,-89.29927900714132,-97.71034315446299,-93.92392108008605,-97.87149153267315,-105.77849935251322,-100.87870207246863,-93.32737434552209,-89.17504563804259,-77.6176208726482,-70.49370104646502,-81.20764764022258,-89.9216287911722,-86.25181906595208,-86.76348135928374,-90.80254046922727,-88.67272577837537,-91.7339088805129,-100.30697570043512,-96.50292490557482,-88.21781240308441,-91.92467443111032,-94.88395327732074,-88.89353224079628,-85.4251293822038,-79.16883395812803,-62.35723262754547,-53.31826654852242,-59.2179446794656,-61.493495758416486,-59.21248459135289,-62.52494917653031,-60.96129341753093,-53.39589725051364,-56.662604627431705,-63.11884418684439,-57.30711233746428,-52.21474966264611,-54.71944475800241,-51.30724178378033,-47.753638377410766,-53.693970748691974,-50.56420936979875,-32.32477525053111,-20.40586766537143,-16.338735803068495,-10.147023536868275,-13.057612036037316,-24.717517347050084,-24.134182100717997,-15.902580542479505,-16.667848607794873,-15.563923512308257,-6.481763714687149,-5.643236598587285,-9.694516461412583,-3.6638011632202616,3.6306454618281476,7.268663343926045,19.004430661716604,30.47560832150203,28.36003461513344,27.244118962402727,34.6977046675337,35.32356313032216,30.441874604625163,30.890056213268917,28.32832619476311,22.869127528308614,30.27547250232027,42.83006715157112,44.63572201554574,46.747932881549595,54.667144443639245,53.2114664289575,46.863488424687446,49.80623176960348,52.186362081878684,49.13280737977823,54.13211741883899,61.221760319906934,56.87460801112233,54.04319623599861,60.07552804924178,59.367253761502006,53.43217882510492,54.473341567274296,53.546484669435806,48.87456401064159,56.16300370204691,68.12539348662212,68.15807664918256,66.20057191258954,68.17511631930677,62.296242506116954,56.268125443625124,62.80761490351638,67.80585828215416,64.12377266626713,65.26172653077003,66.70216222749025,58.08126882691719,54.23611704695555,60.62241288558982,59.39346967833114,52.48118720525014,53.67167302762113,54.18315558572028,50.52090143721748,57.60021713361506,68.6641447625555,67.01031284538126,63.60615261932735,65.67870427552774,58.88852073287126,47.77209339591221,46.691338081030246,45.53927581505482,39.7150878940772,43.38831271901482,50.384982509899274,46.19151738232213,41.18104202238078,41.329327390929485,36.08148910389558,33.66617791026078,46.235740163367794,58.51478864097977,60.62268215901389,63.160628779117,61.946252429810656,49.77355895280411,43.706401330891694,50.036056368544216,52.032368705505824,51.41660482745226,58.27116162016329,59.6172295004675,51.781429126469035,52.44857290120552,57.602293950593015,51.94912784151913,46.10405359148103,47.294901436520206,42.75897981672652,36.91132270823036,39.858033537981356,37.30547812875515,27.243414401622204,32.11371348459284,50.3169794778928,62.75030822630656,69.72597246864765,68.8915377880304,50.36118880346558,32.03671896383781,33.736783229011024,39.20540550824187,35.24700604750059,33.01447422888039,30.107527654908036,18.7033236394216,13.732479524368454,19.171209452191455,18.60340145898865,18.544265615911517,31.83454674614629,41.14243810717424,35.99142507222008,30.55506236371929,24.54247085758191,12.147694647373196,8.115181544595753,13.399947310638813,8.001699728490173,-3.3589490170941056,-4.624594999946727,-5.303210338922537,-9.5596637768391,-4.065375140457031,3.482927364441111,-0.20118476988116019,-2.9260888841358614,-0.64869766888131,-6.693164920032418,-11.975060494644021,-2.3789991354610227,6.05825585711716,2.178716453192405,-1.9944958241877127,-7.914114315991024,-20.448027038638735,-22.196680970074187,-11.529459111044396,-11.50473388233905,-20.61652898560932,-22.72729884164727,-25.157465752341103,-31.032468624873175,-26.333249861966316,-17.591639474536546,-18.847538216452385,-18.225600010096034,-10.700960848748554,-13.441536890049866,-23.23878449393504,-25.000474839741493,-28.05385948572801,-36.618538607509784,-35.171618820744726,-28.52207906045542,-30.304402897660758,-29.667544540328443,-23.45370953478976,-27.955197342366098,-37.6638934522536,-38.090353149908125,-40.12875890985046,-47.97319200918115,-44.60149915190861,-32.839023163013955,-26.670014009738686,-18.656310348047906,-9.367419661647846,-16.55471474418968,-32.17250448708685,-36.75427391602095,-38.97901548407441,-46.42082063956156,-47.38111439434739,-45.241583611878866,-48.90191723609518,-45.07482674362626,-32.044634468626995,-30.95714883761536,-39.51301335107852,-40.092147183016834,-38.50665557983209,-38.27665730966922,-28.036419123887597,-19.022573909384974,-26.6829473788961,-33.90319843750281,-30.17231022650828,-31.896475470809087,-38.91740012470103,-39.26631052332475,-41.03622569761846,-44.78220134316321,-34.61693129749311,-20.26698630039008,-22.167068234237824,-29.25512873797462,-28.542312539533988,-28.521409576768818,-27.132454988792556,-18.870099143127533,-18.744805590320546,-28.998136124875995,-30.05990079844848,-23.88461529311018,-25.01384010395303,-25.6825348723049,-21.8849918858705,-26.669881139775406,-33.92020132879348,-30.04257817614467,-26.314775243576346,-28.221892595858193,-22.285861398610937,-14.864268184943253,-20.575235658275222,-28.034813266976144,-29.445992355314015,-36.49288363921025,-43.26978301126153,-36.45028938190864,-28.47407967021043,-27.827973894036763,-23.216741854947074,-18.497215211205866,-23.02232775727979,-23.34205203755563,-14.454702268131035,-12.855639388934879,-16.761452234090225,-13.75246356246447,-12.994132152388119,-18.00394292379692,-14.004286225759877,-5.282259031438118,-4.679603771482058,-1.792150365407187,6.862478211280402,5.186709479010059,-2.333727045362466,-0.7228183600280289,1.1920773219407823,-1.0122480414720134,6.0102710915284865,15.449944572428683,12.037795278856523,7.452364327191254,10.458393247418158,8.454948756691623,4.157846246792523,7.6014427635814235,5.9395235615155535,-3.358615903599474,-0.17425652083568366,12.638804015196166,17.31706859110644,18.689663466754276,19.9812184795747,10.60191698643667,1.564688194225555,9.299323084137198,17.687960170407145,13.42495957838743,11.219232732646557,13.196582364331512,10.47239126114923,14.98784714440548,28.42676548811792,29.026480912211653,20.117216042449545,22.176859364375915,28.448303539478424,29.82083365639565,35.25571558266717,37.94739943314208,26.658668507892614,18.18759090965352,21.969144895410526,21.530152086613995,16.829607812580804,18.993578014510927,18.190733510930816,12.528579695811992,18.635359039238715,29.679164825214404,27.603521517576684,20.81641980757827,16.158490923206273,3.897709207769592,-6.480806399297467,-0.3514110927338714,7.74763974695378,7.025194823981904,9.077331545739566,10.26812368841818,0.6997509185494071,-3.119482058546159,7.714052574737148,15.816247953053214,18.444354546943405,22.86771155080384,17.896350357737727,4.13903629281838,2.6188036541441386,10.02014903537683,8.171498464746326,2.887275616244751,-0.26441406558194036,-10.96084428056406,-20.046470155247803,-13.36741964096139,-5.562725812797234,-7.507700502711123,-7.719735888901296,-7.76388227709305,-14.89267517925003,-15.384150081795235,-5.807855258039221,-4.623348935139766,-10.854915883685512,-10.255967126343922,-8.471459086694852,-8.424908949308403,0.7117251932462838,10.063179565315593,4.933378618122129,-2.5128875172086915,-3.9088129470899573,-11.111219796251948,-20.140020361396246,-18.839738000128563,-16.672612006456404,-17.683692100792317,-9.364546000269252,0.4723329145829429,-3.235276896653343,-7.816791238934718,-3.7083175351344915,-3.277819278175743,-4.920928042949399,0.24236810868668401,-0.26860336305808574,-9.67076669226864,-9.747409068582918,-3.855531225220508,-8.369011909773619,-13.87141432832102,-11.564742403244619,-12.760669466300472,-14.46298365201104,-7.119207440980663,-4.730088005070448,-13.391813667969352,-15.913553630411391,-12.59731534074376,-15.27656487782379,-14.42550005503995,-6.27430105644274,-6.2143034661573635,-10.858811776480191,-7.802031044742615,-7.6731477623162885,-14.92000320891521,-14.475727117014229,-9.836929618779433,-13.516636435596284,-13.825493984968947,-4.081352608742358,0.08538288015809466,-1.2909004972764955,2.54403645154843,1.2328064697904488,-9.14959527722469,-11.46329604932401,-8.000962552573291,-13.20425469736408,-17.598327383674572,-14.781030060133151,-17.940767709924074,-23.109852003252396,-18.055573538866625,-14.319907106183244,-17.07663040560908,-11.252355886126736,-1.7699849406308006,-3.804636209855675,-7.243021866663344,-5.178524671475522,-10.253524497437724,-17.686873085033675,-14.8278385143442,-13.9496210642668,-21.176144276208756,-20.725180438590794,-15.833324070897902,-20.425820061131425,-23.41565460080426,-18.15810253010277,-18.95987960380385,-21.809417430347494,-14.09775125807053,-8.795113290255689,-12.61939373040539,-10.794696185570423,-7.2291192787535055,-13.829282514560727,-17.56554552994081,-12.705014769403846,-15.018568977427352,-20.5800645103113,-15.101328836216648,-9.51284619727556,-11.014756111566223,-6.913599692998676,-2.8793200171067324,-11.84126790169389,-18.407675237907373,-12.149873566263626,-7.634325401379891,-4.642476899789561,5.782578167766207,10.147572885377778,3.4264487237588956,3.2526664059702686,8.635780334534447,6.68847605348256,6.7327619960389224,13.838891919444347,14.180354569886244,12.813991201954158,23.755057196209528,33.66663012473823,32.9539047648027,35.93664792746707,40.76950253240831,36.459489282198156,36.1950695794632,45.3217305974109,46.312545524567945,41.30611765847412,44.610793574182075,46.7144593361452,41.94423525316864,44.57213824149832,50.024791198794446,44.17813525737767,38.80548521634187,41.3174580267454,37.526734663457546,31.71889577721371,37.983468563223035,43.9515766408705,40.26872053580285,39.77725890258819,41.57276708166323,37.42840604531908,40.64049744321183,55.04787582421309,60.12415858377706,53.4741123744223,49.16591282314984,43.638704849191896,36.11965350624098,40.639272610583696,50.21079658428674,48.11321983335316,44.49689365180891,47.51911294581174,44.43094963924702,38.8239639884679,42.26185966919955,41.208121544776034,29.279891483131394,24.684706212431955,27.94873936210282,26.34708616607289,28.078364559538915,36.533268947207226,36.901693834971674,34.13943987609012,42.48278568722516,49.20017517075322,43.63310128442669,39.08047110895735,37.58795604076533,31.47833453335913,31.184360285635705,38.671100056245564,35.698181549608854,25.606529744302527,25.480875046636783,27.275090939012703,23.763182923884123,27.34017291386463,33.21512700913348,27.584754045040746,22.46131682140814,25.87422383036003,23.331222159256008,16.90503364630477,18.86963611073606,17.044184865455502,4.2684683509635235,-2.2441924622989924,-1.5282249215148236,-6.4049293787322785,-8.328663986805278,-2.8667233667323355,-6.197544458135069,-15.499419786275041,-16.467542957552713,-18.9497674437499,-28.30126715717347,-29.077693535936838,-23.779040350240347,-25.447897344871265,-25.297951713812765,-20.79309278327147,-28.977160681341882,-46.094245559155205,-54.30436489595591,-56.738773191587256,-55.20971268589921,-39.15133596643165,-21.640498822278857,-24.367908975419617,-36.47565780687933,-42.99582809098368,-49.56160367126553,-51.196121647026466,-39.96652433210808,-33.16377506899228,-38.725100922709665,-38.79360225086176,-33.54395364947333,-36.591381194506965,-38.72425737609283,-34.117683908300464,-37.1159729167306,-44.37509669184532,-42.51203927365687,-42.233147921060336,-48.56580189369555,-44.42020802444405,-33.59950429001704,-33.96171057195763,-37.552521375542796,-36.40225833039051,-40.99369535171624,-44.94764035487231,-36.08285085936522,-30.088772550023634,-36.72427923936956,-39.72444003871442,-37.63766248798545,-41.024782208358836,-39.820823304819754,-29.974754366518944,-28.51892058488044,-33.49760760146456,-30.832317540087622,-30.30134098810103,-37.100972129653684,-35.25773573816611,-28.79154071840089,-33.219902453772775,-38.20688215550662,-35.803105463421424,-37.637728297561516,-38.78989075141284,-28.56661270781872,-22.58226052718033,-28.78241976240559,-29.4096878732745,-24.062095029603334,-26.037717999514204,-26.412719155226668,-20.091184565702036,-21.579136919792514,-25.48712508081409,-17.02060387163484,-9.84290176597679,-13.485979592658635,-12.63936667062076,-8.290225415196666,-12.241129314066246,-13.328627824874486,-6.476875706036633,-7.76047979308614,-13.61080904425762,-8.746459470265789,-4.003780076875071,-8.5578538653633,-8.708192922343969,-5.40322411821295,-9.955041873628664,-10.3838352920817,-0.5510922484712273,1.5980422790580937,-3.6114269644362285,-0.7285928263410295,2.744414551072823,0.21624979300947,5.046077981830708,13.74458066010961,12.082166699548058,10.341221196364287,15.138269271652566,11.194127006021457,2.0455207773873845,4.874620311287378,11.893388776741272,14.24908462954122,21.48058711005738,26.916953375391167,16.88214560784762,6.56039263271872,8.181867827051558,8.232134635681804,6.553804450031544,13.310491409739697,15.926510927390414,7.706643754670156,5.861622357580909,10.287749952246374,7.211930783240312,6.055943950502684,13.094065949734741,12.631589011979166,6.696603836819249,9.557221300871666,11.095292244057767,4.353927995812341,4.793115983320976,10.776096284159747,8.47213821617099,7.525084641475302,13.703911775908207,11.78580679659764,4.957876614052099,7.17621345321938,7.981007377781028,2.053058923373939,5.4973461162931185,14.135789739376495,12.007676213014854,9.126068539780483,12.649266837448536,9.994498117534656,7.297438453439201,18.25268473413155,28.07747348413063,25.388339220152282,23.505795886049526,22.580333841429265,13.532601322177483,9.986971533505217,18.737053784245177,21.632334380547242,17.21813443960116,18.371441334304873,16.83989918499527,8.035190781653032,7.653604362630237,13.003420329301518,9.684542177665485,7.5203355260474325,13.298209278178689,12.766622151371866,9.086752283308723,15.930193744286552,21.417263104866183,16.594713115240552,15.683277529788818,17.834898824593683,11.180616526739097,6.217370704944745,8.392256647967725,2.057618206669167,-8.633191274090924,-6.529265801760917,-0.7868138313466846,-1.3783297597723607,2.450155298818763,7.513526406575305,1.8213617645377636,-2.642769521569706,2.4686793804673313,2.994683533660784,0.684858576542106,9.203578923082326,17.073633811874398,13.97208045365313,14.093943599522472,18.33006239873985,14.041235944979851,9.48406273059986,10.432551547566272,2.9588290950271974,-7.410324904661889,-2.1170287794632143,9.468347030380063,14.426006846403066,20.261156819497877,23.237906191650698,13.643804030011513,6.02267134915672,9.159663226308277,7.12099940050374,0.04795209501390829,3.3829637852102463,11.142569586169884,16.73188657196159,30.309402268230333,44.389247809707776,44.881903034031566,48.23875992858307,68.22826480096032,89.76178331836151,106.676356644176,124.50306272911557,132.17296079711087,125.69606290211169,121.48932257862106,117.99695040292869,102.42548756953579,87.01632452438164,81.1098946879551,69.93123213840852,52.99999772172167,41.441168282734424,25.845142835291544,3.2265024144434147,-9.461347867248564,-15.31763214945936,-28.8997047400384,-40.09170637143062,-42.443494063758884,-52.62892501398228,-69.51874344726332,-76.60167091999341,-81.09773872443944,-90.50999653308169,-91.90860698152271,-89.66571375324241,-99.83180446763795,-110.675958240272,-109.9374793605358,-109.85293121276246,-110.56881939433698,-102.58381378862512,-99.98649382590578,-110.67073519552468,-115.7130159586095,-111.36491840958683,-109.9055544284251,-104.41803068876271,-92.0253850037019,-90.0944083038539,-95.35578057746719,-90.64875369061531,-84.79039839986895,-85.89720333979426,-80.27451965734792,-70.33063783150023,-70.71786020490019,-71.72469135818265,-64.34249437666304,-61.563970141057524,-61.56328669086345,-51.523341134530696,-43.6031526223899,-47.22832090481815,-46.36158171119184,-38.58983850614143,-35.880272583834646,-30.775747254116034,-19.877327581532988,-19.98772077356588,-28.022221863222082,-26.165413761560487,-21.121052203784846,-20.977765191897394,-14.671078653924424,-5.497219082537292,-5.448165777202191,-2.9620114394380943,8.885702574557017,13.512445656810067,10.283746160052942,12.402726500402034,12.664396544996347,8.407109930444946,16.25343823452914,30.795264800559735,32.69906048092081,29.160515202110176,28.53561893234596,20.833158827349273,13.401272719996733,21.19685664342187,30.02131537155498,27.969748752741815,29.492029112156246,35.9409215573368,35.496724725689674,37.75770281822737,48.19477271368398,49.292684077840875,42.64269173148791,46.037470048528235,52.02112289916155,51.3226455336579,55.27108920054123,59.28029814882262,49.36984758389012,40.17750605981562,44.28318488585532,46.963019301395136,46.15630822116415,52.50904518008187,54.904628825148954,47.7929330384982,49.40061483679597,58.83238721550371,59.66966933416157,59.06610390607021,63.7661511758368,60.23409824526764,51.174304033991255,51.396043844353656,52.14378614742552,46.08809627380946,47.462229263382085,53.58445664358802,48.183462257509916,40.815853150969666,42.27996685135658,40.48171571068312,36.96497782188398,44.200236363798986,49.41220964530216,42.84694715812742,40.91660048663262,45.29384325818242,42.026898516890675,38.909435240214336,43.363447550372385,41.89795047281321,36.44848841452597,41.258528117278104,46.062790508411794,40.32558922034454,36.91975928161581,37.131860032236794,30.073113718024636,25.31598446656425,28.71104082991607,24.006648199912128,13.203702850918555,13.7976186714324,18.1981813390641,16.20729268207595,18.194816715666835,20.934242816694137,12.629892033512794,7.589898668283288,14.969977813901364,15.969233867845073,7.892665989424807,5.830045660837473,3.9821055163423025,-3.258220535750015,-2.044951463204602,3.836862044657104,-2.2910286113837572,-10.811325229375848,-10.343709678687574,-11.722176503434977,-12.578925117092814,-0.3731667470181721,10.926230562517482,7.271142707139107,0.7393669466606966,-4.61835089757989,-14.813399969444417,-17.272633683047395,-7.587664564740431,-6.368098114380018,-15.751399702145678,-19.009906311199188,-20.752787718181253,-28.185440822722168,-29.205656034102635,-25.38378885826857,-28.864876417425258,-27.592144156314205,-13.418883277289913,-6.409824887309458,-12.05422698728715,-16.140222809647263,-22.818958381851903,-34.540427398071515,-33.53427323454637,-23.256421227630717,-24.724381593041603,-31.212705537287825,-29.439242132347083,-28.06831425713756,-25.66125186837362,-11.17358278536622,0.5133934770764754,-3.7722547702511444,-7.119606741880697,-2.956112223576446,-3.6036765610075143,-4.0115640065243765,1.0538693515880864,-3.878318117427318,-17.921395019988054,-22.987941363836484,-24.852722142780145,-33.306096577085206,-35.25013864512421,-30.15644280016552,-32.92141702853055,-36.98234482457795,-34.850622600228924,-39.34479051698426,-46.8834861804078,-40.50186820897964,-30.242958395096466,-30.10980114965656,-30.989002222579348,-32.408972029708394,-42.014071434330695,-45.49174940380184,-34.86014946502536,-28.56665307303477,-30.66492401911082,-28.965830789232626,-29.990559516318612,-37.45538941071455,-34.722985647722716,-24.06993883925237,-22.991670543607082,-24.609863378724643,-20.908269778204012,-24.580142833253056,-32.24586485240181,-27.58942997766347,-20.515377038203077,-22.399924272374314,-19.936592578307867,-12.809831686277292,-15.037480630354093,-16.878623677222425,-8.95295592939195,-7.361952867301052,-14.575207852145544,-15.430776532954651,-15.001194079034068,-20.091839915430345,-16.960590522563038,-7.281762410867769,-7.995971901378908,-11.007532946122199,-4.642573180705693,-1.3905828215594178,-3.4233106016577004,1.455084997749573,5.366179934702297,0.7369745496814373,1.8480113023405984,7.984333784579508,2.7912912887603585,-5.817599606316172,-5.645125259060878,-7.334622332213254,-11.435894816177647,-5.876870015525526,-0.1961231132160297,-2.9675002913525756,0.3779248772178099,9.216749925990838,6.599899951778072,-0.4183079569971637,0.1813040061686606,-0.8084910346137382,-2.2859543688092865,6.697650928803938,12.855015319797667,5.390476951458223,1.3557502297670423,5.78837279049544,5.58061038584616,5.971352993103493,12.589946879037415,10.741111999132533,1.8996922932024267,3.0531687180314546,7.199200000030057,3.90080397990564,4.82853976165676,9.777858803490009,4.372362199225741,-2.401838331516938,1.5937537677918683,4.593475208047769,5.349157984971666,16.075433522462806,25.292237355281184,20.665855789222466,16.18937217234822,15.664816391609273,8.11196866356918,3.1925276253085286,8.876467049252474,8.870053917067192,2.4568379248788546,5.864214884347866,11.94297898004186,10.310056043367297,11.86415231274555,15.07251288134375,6.827226005680195,-0.7929622795425033,4.958392791488845,10.224281226877991,11.291375339024572,19.128424903993064,23.915688193506767,16.812561978009523,13.568656914768415,17.134058010220738,13.867527184229232,10.206381672999033,13.309138474776688,9.326879877778122,0.01474296049892132,1.4411259838663368,5.071141704055777,1.1466094316104751,2.9681662965799225,10.161559385190413,8.442966723585393,6.27551721784126,12.102724746156555,11.538317059051312,4.991610158254691,7.23645535387196,8.123299456962101,-2.0092470666165876,-5.781122521156628,-0.001420453717718484,-0.006824389130272612,-0.4302596913621882,4.980587572866345,2.095113397098416,-5.861506862290504,-0.7692605440481142,8.335886429089548,7.328654787503373,6.589393774975111,8.387513238044562,2.8293821253007656,1.091638966303068,11.79376801372175,16.829579536486342,11.070372990779303,8.760566498412786,6.374223890016963,-1.2203582498746357,0.08082698342518735,8.68714809253844,7.122825050625604,1.8037643873904892,4.126999124563546,4.072519979102092,2.6628077610866985,12.283752151411187,20.00854008079294,12.826186294291379,6.04757057495225,5.425314546426483,0.49128357245422105,-0.37864049442691927,8.566360401674132,9.197646791297503,1.3567897648922647,3.9204514520701235,10.077307681530034,6.838989077133045,4.516264146460874,3.778864594015207,-6.688884534455326,-14.863629111786008,-9.777832870979914,-7.579831203182531,-12.555781137283015,-11.407711416714676,-11.221661286721728,-20.083680234242383,-22.30729231122183,-15.273113973599948,-13.795926604244066,-12.141836240074287,-2.861550579682647,-1.5083250034823572,-8.975999690262016,-7.61061859987378,-2.9703688818210425,-5.096529327030806,-1.4117743875376387,7.148572389501698,3.7660304137167917,-3.8915838412677815,-3.0504385472740334,-3.464814642909416,-5.182819313669022,4.489928780188754,16.153762162935344,20.559618807008107,34.25759145626603,60.721152166568814,82.97184439895358,102.13468389586959,121.56980168450241,125.78841188573207,117.4493868116135,115.92367927171411,114.8078989948346,102.52173393603019,90.00894236892127,77.37282028526982,52.80216618659988,29.372652321250005,20.735234771340522,12.846599579069121,1.3806908504519857,-2.134857905247938,-7.148758852464227,-23.014532434952116,-33.16897729361624,-33.923592013076075,-40.59495221058831,-47.29596677811692,-45.036363759404416,-48.55600934638932,-59.35643761809359,-61.172095139554955,-60.07564841789463,-65.70874308896215,-64.86280203190826,-57.22475109673657,-59.99348432980463,-68.44438091226046,-71.78250060344371,-78.67969785329743,-86.05809563193034,-78.73865404771873,-67.71441776385053,-67.74224820323462,-66.8755618124136,-61.22477283198297,-62.93374797268008,-64.83358603594911,-58.80982935189328,-59.438554311791414,-66.8606066431929,-63.69600207578444,-56.44344802517674,-57.32255279580819,-54.90588593922499,-47.345989122222214,-49.04324210955652,-53.19581413670416,-48.33941002892208,-45.731072308758165,-46.22665753412288,-35.25377798944237,-22.369020318495572,-22.429280398996806,-23.767239228885842,-20.752278086569017,-23.191242599920127,-22.935055609738992,-12.95879422286093,-11.333783127907875,-21.0925107458702,-23.02694563682352,-19.277489422606447,-20.103774784636542,-15.817586975917362,-8.397475626610195,-13.223756091075938,-18.89296990461105,-10.626492150912508,-3.2301117701247315,-3.0093462722666775,2.911857361201199,8.420901095535836,5.983216670909419,11.366325422760907,24.721404878154353,26.865551102196868,22.884444302434304,24.463300848851336,20.06803678607368,9.2777291023494,8.877229119808499,13.551883784626785,12.783852721528074,17.751074188311232,27.013657876446224,23.43358129680692,15.830535863902433,19.904451753983142,25.084390793804303,25.850183000904295,31.346401498922077,33.414497159263135,25.808802733685518,26.766389991958583,38.70034511603295,41.65445399175084,36.91851649143119,35.031486167169604,28.371201738785675,20.191832308823066,26.099100520391232,36.023645994975865,34.670273217229166,32.60835852415252,33.71420297631071,26.51469315989543,19.74349470403342,25.271971705948967,29.6442785364724,27.166457334517343,29.93094271992402,32.450894393785454,26.116794257294572,25.059414894933212,32.49276485168923,33.390862492677016,32.93361797909661,40.86564316225794,43.40239529746652,37.22417291236273,37.03002260068352,36.974976359437356,27.562841181495205,23.201987485516806,26.128167858895303,20.50491621064137,13.462122107640006,16.888208470048344,17.380073083197086,10.723077628857627,9.288746307360093,6.8113223333632895,-1.5210206628598004,2.729549109605233,19.749502789265918,27.325981254943958,24.525179596643763,19.80656337960436,7.355741451687301,-4.558949273037345,1.5216107595167352,12.45587058144772,10.556486294602406,7.3734385852484685,7.817487052139082,0.09641928900962471,-7.0943876650082975,-2.0892261887499517,1.3902365459936823,-0.36517879589418056,6.042914098965761,12.27411119303784,6.581601121185465,3.4226272396577038,8.524692871688394,7.453910423444259,2.9415442629772457,3.9501626293145096,-0.2812552738875336,-9.531437006595528,-7.592813586262797,-1.2330672878359166,-3.480342655497118,-3.5839714325126324,0.9895040306076459,-2.9232494087797147,-7.188599962941489,-0.6451104997519508,2.43748633517378,-2.3330251469169268,-2.0005750632764885,-3.0936227392497253,-12.586210727542799,-11.632256440093563,4.540555582895868,16.746689617848297,24.601969682192887,35.28090319320598,36.45582955566174,29.06951945283037,31.930456981413908,38.70236812046541,34.539771235301046,31.24087899399398,34.30214781477065,29.83356128531333,22.980325745529466,24.12022806833898,19.1611751072715,4.441760342698693,-2.582283630145152,-3.9657998848940155,-9.366267150248449,-7.5209470465486135,1.0994149366232495,-2.9717856016841266,-15.582702944743879,-21.39349793721959,-26.149665705048527,-30.230585528899915,-23.410344573564707,-18.07046801767206,-26.996509582413175,-34.2523516084447,-32.11577284815335,-33.48966297863385,-35.259674613821474,-30.092238815387645,-30.36143202566875,-35.09694890566502,-27.285313715058198,-15.903355812487222,-16.3452869849254,-16.532114528737104,-12.045947324904219,-16.66179290267275,-22.33732614136061,-16.36288048834352,-12.743338081735073,-15.856966949651623,-10.79053582995638,-4.604314554098403,-9.936983545986077,-13.16275214886631,-9.638753535176646,-14.421410150637037,-21.56988319492222,-18.537332326915262,-17.403092169301978,-21.864239381740433,-17.648534663858847,-11.366316264449917,-15.440016118972824,-17.54549306352611,-12.421462114957707,-11.622134234541972,-8.432532455807372,5.049876642457514,10.992674896348241,2.517149133837779,-4.329114714478716,-7.7698785099759435,-12.094375863139579,-6.7933395924320035,3.8313121491016164,0.8642447334650585,-8.307562276041708,-7.876908541593634,-7.091502299558835,-10.465140393275153,-7.049812941967917,-3.8622510634863403,-9.897577653763896,-10.151851630922783,-1.3844560839743356,-0.4712678972776252,-2.6793337816692357,4.296083774064911,8.547608202764161,6.305387954678218,10.835111494919381,14.435984050186928,6.539528842108389,2.6099747757073355,6.863272123343301,2.782829762188115,-5.926934710280453,-8.477930578202887,-15.040332336965253,-23.873085861211454,-16.490211176662093,-1.3468119344337586,2.7646649480761907,3.6217665019461776,5.305885034124649,-3.529031257534422,-12.175309085378734,-5.92848085277918,-0.23293565161753582,-2.958214018967479,0.6294770227247213,5.813371145937769,0.8880059041852468,-0.7066477897363744,5.964726863120502,5.861312814205938,3.8226992885075517,10.70704826393618,12.303276814133184,3.911973462834769,2.02535014206778,2.7757577375068783,-5.786682559134018,-11.060341220981392,-7.25153788967318,-7.422134161741163,-6.787111904287682,2.788576312331837,4.874667483866757,-4.685986909926284,-7.039404417406974,-3.7238598615392275,-7.012898810182499,-7.71420007797205,-3.147601425606214,-6.656282112788814,-10.53804242640846,-2.699959691329675,1.2652342966711387,-5.797323599608035,-8.635021616269137,-9.99682135736594,-19.169573801395504,-21.631044445313936,-12.518802222493925,-8.717386326754847,-8.86180853158189,-3.516218722158744,-3.754269018339566,-10.241703815061006,-5.383619601850981,5.222264298760679,5.062594525111097,2.200766736041767,2.871225538233979,-2.432328262256352,-6.64415931237214,0.06455396940798508,2.597787829686448,-4.363177464781666,-4.2590188429310265,1.1946927596186399,1.3107462348888959,5.47046193238641,14.104587688153561,10.663025815538358,0.9017812271388506,-0.10846904734833673,-0.7085584317030451,-3.6876686079762617,4.6021108311251,16.837767796140298,18.13294409185316,17.902050359758505,19.962579017940154,12.13079004138367,3.151043795413339,7.307335761670374,12.283698324608089,11.506435692687873,18.09161262455165,28.234031229081157,32.25922921697541,43.667689291889346,66.51550052177741,83.08471036159742,94.9803721503512,113.06689429649884,123.99710397028757,121.4827163117584,121.10246990741794,119.82374798094867,105.30352299065288,89.6324813630502,79.43918630542919,61.84644699451887,42.85130554791747,35.55089490651264,27.65079682197984,14.052069263256115,9.231931601079225,6.585496205443913,-6.343360578668518,-14.184716219096705,-11.22895466512853,-15.237290462695334,-24.242963520065757,-28.715226077977416,-41.085571959338104,-59.75696159118194,-62.92034274354468,-56.43629673683016,-58.866614020718686,-61.875993102641885,-60.766495587417886,-69.22777862659488,-80.62841470284553,-80.43258247652486,-79.47842746412165,-82.39826188039358,-75.21008942749489,-65.1229339988459,-67.21687339641112,-69.73981863962327,-64.968826174,-65.57488393543714,-67.88921006440357,-61.23277072484743,-59.38811353235271,-67.97786087846362,-70.02074205822854,-67.9873685706742,-73.47679000917852,-73.97312134642334,-65.05196559655221,-63.3492789794919,-65.80560653071485,-59.85598937034703,-56.033812355303795,-58.406650983724695,-52.7464722455014,-44.377205751421904,-44.76032527145492,-40.701639618025666,-28.407308053282556,-25.387097441337446,-29.019782316847202,-27.396383872567423,-30.278984197318657,-38.096619686081816,-33.08084059335922,-20.74398514791561,-16.664181441984567,-12.146250773564436,-4.493709769118131,-8.661678404664295,-17.040542100164192,-13.062726561641824,-7.461690269637328,-7.300964330954399,-0.561585335781245,7.122924736178333,4.952388514064668,6.125525780382594,14.102763237171851,12.086742154125211,4.394834466750272,5.198676675653726,5.343780175742858,1.3045335165376346,6.524415743582472,13.56576733704475,8.770233779875221,5.92100171937901,12.964672521972606,15.922525757384438,17.15569565782768,26.448052360019815,31.068201821202354,26.65711203125407,29.301397470652006,35.42805131254345,32.00035321541499,30.262181402799765,36.42237790056781,36.65644661008629,34.02415397284585,38.705918934841264,38.409442421066785,29.72088366509982,29.481541873445742,34.23774205821451,30.924195332854318,30.526277906083372,38.203112405824406,38.0372887061046,31.895937612016937,32.75899340489836,31.83004938708111,24.728637292364816,26.183268451631097,32.61964301460095,30.284652963880937,29.310392919926578,35.53150774926543,34.19700371074464,28.415253139370414,31.14221956016167,31.613039178368243,24.089450952463395,22.753744899255476,24.266294593584178,17.83638931477965,15.980240451193296,22.870062662812046,22.125361521279984,17.776541847074625,22.764691229280377,24.2479761677002,15.78536340537335,13.82078309353424,17.277302809356637,15.217856485612533,18.256596866785156,27.54648614303545,24.628604211038006,15.680156254822474,18.68641694739374,23.804311723537232,22.920766567950878,27.940384124187137,34.053700298718,29.73307418469794,28.639510362410878,36.12389178483656,34.30211786939047,25.550032821062544,24.816369324524484,24.060715982488354,19.37134344709517,24.015019126509717,31.280952927663392,27.214323667911344,23.866952750679253,27.71903208385217,23.87706855285615,15.655389930920153,17.027166195653134,18.485055914338947,14.747107666419474,18.702220153808355,23.091809391566155,13.697136934446394,4.593101579368938,4.69655354250593,-0.03249076019907404,-6.657026918867159,-2.3532467653062223,2.509651603481503,2.049724118240306,9.206818938858424,17.787513239043193,12.638956356907537,5.907383739701125,7.359075241917648,4.537934992259821,0.5969842344553797,7.4791494288036295,12.019010647504999,6.10231313733388,4.672455305280934,5.82366806743757,-2.4152840598852916,-7.811905954614658,-3.53355071876579,-4.146439886387562,-7.18913730345438,-2.0222926725523482,-1.7567688830179253,-12.450508121101903,-16.533756679413223,-12.67261902024741,-12.441728023827496,-8.811851569874417,-0.15912227011967417,-1.1475988560629207,-5.080351149508525,3.899466820357137,13.49158114854305,12.49394013231219,12.903448772856267,15.268373202593015,11.923682384044806,14.304092778314644,23.63858930479136,19.740818452901266,4.980750741442366,-3.335044741079791,-11.169754424493709,-22.378079645095678,-22.613107798846826,-16.259331422275665,-17.78712889945434,-18.125277646967163,-13.174762705451307,-18.653783628776488,-29.359306822335313,-28.22512613305638,-24.899298179882827,-27.49410556340939,-23.791747483670658,-19.271652790659545,-27.206712986655035,-32.748467006179766,-25.653136420976733,-20.886978415323934,-18.172630618228748,-7.902978678513963,-5.143613872103962,-16.67815038832157,-22.259439642314813,-19.226513374713043,-20.427318663081152,-18.40800996845425,-10.007487314701411,-12.00605310335454,-21.937482185441013,-24.51102041513488,-27.662792218108034,-35.947718451859494,-33.88908584178151,-25.316618882209674,-26.59875923798297,-30.743535590607245,-31.60511878075176,-38.552991209813975,-42.979899997254336,-31.473430938016705,-19.570645257331737,-19.486464119593684,-18.973006625531216,-18.076839978004998,-25.23725904603069,-26.708089145765236,-16.240678842498276,-12.108345893226213,-15.324668242533287,-12.743661292399263,-12.08462836214763,-16.902700551907394,-11.959780050798388,-2.380912727121195,-4.438347318485411,-8.089833683355616,-4.507093599585758,-5.628574196571511,-8.56294310987139,-2.110780652532375,1.6500998735989145,-3.427289579312623,-1.98175452228754,2.999536689997342,-1.8606681002866745,-5.4347533730604685,-0.9855193733809635,-2.355665285760938,-6.218183090142683,-0.9341154167827228,0.6080683099731733,-8.602740255246623,-12.591208563261322,-12.292576130591694,-19.535491714530856,-23.26020586919352,-18.244380764706563,-20.245028754679492,-25.578529309580375,-20.100190515295516,-15.492185384638265,-19.90660627445416,-19.47761015247732,-16.18215911117816,-21.162143877391436,-21.980076546599314,-12.202368896324248,-8.461005260716378,-9.966921266569003,-3.7747477389485473,0.36891853953909526,-2.7411867134610617,1.7763176588630922,9.218163677120604,4.466726675375738,-0.6571505337797113,3.0755465262624773,2.0404068632597316,-1.792329680343445,3.2440126574234496,5.528738789299158,0.10039429826093027,3.725570627724876,13.092925422716235,12.858055599708962,13.127672316718382,21.272894133283323,22.056272817692427,15.838968960604312,15.184931423169841,12.5276387228948,5.686527740515674,11.186066357583389,23.628393419627898,23.256354237835147,16.55143024638317,13.386380728283545,5.672371051406824,-0.5324338751672026,7.051243848355104,13.853683853542357,9.293756049695727,7.395336597644809,7.65667935143065,-0.9035745724339526,-5.19406253445257,2.728743647397766,6.482865179359737,6.742227920184852,15.917923819885827,21.74262127350402,16.86663560741503,17.175682166464036,20.64041988387808,13.823734765698692,8.518899909565274,13.040560295339647,12.825300495173153,9.40112812219326,15.182679953196546,18.839794224813488,12.76519473258685,11.69188552761122,14.629975004608212,8.87535526873096,4.313665862652347,8.48804548379431,8.165719082007017,4.94864765648113,10.341491501241638,12.630507192496552,4.172698810047788,0.7580370121983168,3.293248064400555,-0.2535732439610574,-0.8910716259713963,7.648572607004649,11.721334893673843,14.749220369053017,30.976140585071963,48.716091066786674,57.709075643971474,72.1094008708156,92.29991270041857,104.87011886277331,117.25658493406475,133.00877142150077,133.67707885247458,120.39151460036868,110.96006320877662,100.4603346705622,83.72875926164409,74.9067488202889,71.18977206914983,58.14253285002413,45.622111589747654,40.6206483627857,27.65928781560691,8.714425468128796,-1.0016798334436254,-9.362055588949474,-22.335681952828452,-26.796901847143026,-27.159877971159048,-37.99799835357767,-48.24962773096702,-49.132147750010645,-55.18307015241182,-65.63376400456251,-67.13706342858355,-69.29378228471015,-79.33838785809263,-83.12414891039145,-82.2164192554039,-88.87553474604987,-92.27291563269698,-86.0479137692428,-87.03085570486137,-95.9404403687534,-98.66643298937731,-100.7232082441349,-105.53379181910765,-99.13767631646525,-87.63869362786357,-89.38642642051207,-95.15954865452497,-93.3773490125815,-94.26947397856672,-96.03810127776192,-87.4217605910196,-79.59211386837225,-78.71800745379386,-68.16852786539837,-50.19022283156786,-43.114130923872395,-41.80656678227471,-38.85505945130324,-43.56560115832838,-48.216639239141486,-37.57947366879594,-25.367927170289907,-24.199130326302353,-22.13400298946643,-19.43139520356913,-26.092068764682377,-29.48592344346274,-22.5960386096433,-22.298690355581122,-27.330689245496956,-21.474655383432008,-13.255919071317038,-12.470787251333757,-8.442097123034413,-4.533929492973944,-12.307113549704003,-17.234344389867594,-9.002459571636908,-4.248529196142669,-5.878708799240189,-1.6907562443584006,0.5688560646716329,-4.244115260336494,-0.6326624783482009,9.459035197633746,10.41861743195958,10.231853238047584,16.48170448308582,15.515017527009633,9.266825314838547,12.9101461038267,18.048964327017572,15.906909795741743,19.17779778614124,26.425094948153756,24.575363211024772,23.575886518198143,31.061521202017918,32.37691531398504,28.125606223860494,37.30930565689144,63.51663348662412,94.40682451551838,117.99444735926261,127.71408515852846,120.0410658750568,100.44955642987564,90.94452937011431,100.54416084569404,105.18456570849699,92.92377036824462,82.61435818290578,78.36204447552615,69.89040890138388,66.64311004975232,72.22183261198408,67.93615072466041,55.35283250723741,52.24256732506152,50.24156875639597,39.94979062806542,37.46956152182743,44.63849355022907,45.334081870185855,44.93827179197148,51.12282673371751,49.95072090987606,41.538014962761935,41.002772604134705,40.88697259839893,32.83610191351085,30.25931116216679,31.251212659612072,21.47052850713054,12.99201961004881,17.011931268428913,18.418660235148472,14.688214598647932,17.26277733404909,17.318292100405984,9.68319453342287,11.021829663569497,19.178055095799863,15.944153157499727,9.498359919982292,11.452987304297048,9.77189768062254,4.489193332633144,7.294428302346012,5.964555511847229,-7.578987905576112,-14.230529459102682,-10.752596842586879,-12.287007087192135,-13.213809077009515,-7.825803691667232,-10.97321654993375,-20.60077610553234,-20.305190818061476,-17.88652373500468,-22.485148257814778,-21.943038714193364,-18.327853867894646,-25.923496028854558,-34.89089090537965,-34.75883104964608,-37.23587148100626,-41.32345482361015,-34.69127561672762,-28.46044161587391,-32.10710325697988,-31.522942479638274,-26.52368768708432,-29.73844529575445,-31.106418783135428,-21.56793959951167,-13.824615981658976,-6.883341608023205,10.159402129169296,22.767385125505882,19.065325844981604,14.648612326605118,13.883657205573197,7.187815629534505,4.211547582919966,9.352271789780064,4.056581781414939,-10.504644009306496,-15.823869639026377,-18.0689235759264,-26.05722342022095,-27.397664479540037,-23.574563226417993,-28.444524319496097,-32.21454806223852,-26.20100369093451,-26.874718115260645,-36.03392109623827,-37.50878864926463,-37.58477141378964,-45.07142388930384,-46.01996848080235,-40.710928035266654,-44.72519201413094,-49.37086387177101,-44.63198287683308,-44.97592920320453,-50.99482312442119,-47.36751447221219,-41.7016532051517,-42.831102002656046,-36.826096540795,-23.866237000279945,-19.590537225174657,-18.15416641510587,-12.588839286481221,-15.700961693653868,-24.169989504918174,-20.915611430995636,-14.144366446272564,-15.3466770819334,-14.224189037996425,-11.85677868393567,-19.921543913308838,-29.24328502800425,-36.56166113838617,-58.683673679201306,-88.51077651841945,-101.48057149200942,-98.73697156297561,-89.41993646627988,-71.28130200232337,-56.91617893906232,-61.13271053830656,-66.97811391073807,-59.02303711140142,-51.538707884390114,-48.840102923783334,-39.43923151452002,-32.178522865286894,-34.915648608513436,-31.398848536070304,-20.778665972217954,-19.136779732585694,-19.036401894246076,-11.87798526951164,-11.789095222035034,-15.819103843834318,-5.689010595298043,8.870967043916139,13.48965673299855,17.876926217300813,22.084761932294708,15.639278714599357,11.129950510175167,18.04181380581804,19.688941345925507,14.824934357664905,20.572681174757953,29.724177975953026,30.25002935570234,33.430616763239755,39.24685007051129,34.8935236129463,31.16467755586327,37.953623935966874,39.80970440954326,34.24638147825836,35.47643137348782,37.448396941893414,31.810365375830784,30.969108854445697,35.401164468145815,32.18839007792373,29.784365265664732,36.523453033288746,36.943877856882175,28.64802509157532,26.5228697965636,26.396632070405794,22.389305824786412,27.395112810253686,38.803388718169884,40.21705705340253,39.567199618500624,46.945029533883925,48.73109175663847,42.870677990713226,43.10427869149977,43.93931642205275,39.04097194475378,41.80289197034828,49.58129605123434,44.48716767349947,34.64161018714468,34.41148631366628,35.010810153951326,35.44808277852138,45.838924299245186,53.89709960442914,47.644684754214744,41.53507180592702,40.64402961815681,34.28416949063804,31.268077511457335,40.20207181855273,44.617886672580916,40.54818597762954,42.30164148332367,44.348328609589416,38.9682331803399,39.29753665619031,43.928055059521725,37.174509756195555,27.92996783158886,27.340549913436902,22.429974989576,12.033575114312322,11.119400822235518,13.67246268646964,10.810190157633441,14.128445662701687,20.67911783887253,13.62404725994359,3.592288737960801,5.87750786829521,8.9557537586178,9.741908699258788,19.944437861098937,28.45620098534802,23.331660518740094,20.032971939216672,22.41506110546193,17.195732579070565,13.605278556013914,21.576980210946854,24.419437595372216,17.988242785958125,17.50329117716839,18.725967703978768,14.991453777156138,20.602817003138494,35.03092992524274,41.40510313756744,45.898836741495685,58.029394783790536,65.09465343680503,67.06018635772955,78.60448365199852,91.53909045964593,95.7203889059852,104.08752415682082,116.47073293856336,116.32358207374963,110.2157683339303,109.34382918433644,101.51123294791056,86.1419355217909,79.32308939777649,73.03569425805414,55.447753187909214,41.48739732712457,34.98687444290934,21.062602443456456,6.498552682255822,1.9971666849158807,-5.460004667805114,-17.96777382408529,-21.724658315052768,-24.675330832452502,-37.24899226890973,-45.020228402239,-44.751026906835534,-52.01691628609858,-62.287422805947045,-66.41508698749529,-77.12867715598247,-94.08446583679472,-99.01528553571464,-97.97604753810683,-104.40339359029153,-108.02268735781017,-107.9962404049192,-119.02378744850982,-132.10112219364237,-133.85936016147008,-137.21269255401572,-145.60547422604478,-143.9234883829265,-138.3434890665421,-141.10715228203048,-141.46038337718858,-137.6544917844215,-142.68624460118178,-147.51434132977354,-140.58343530949907,-136.1739347051567,-138.49509229558615,-132.94621241768624,-124.34607970794886,-122.33288798601968,-115.68146121751627,-105.29768606133172,-106.7998858846543,-110.75769025991694,-103.73973100269474,-98.44586841781663,-98.36554967565456,-90.93536770260297,-83.34567751369056,-83.87791264215704,-78.3131639410727,-65.74757281449818,-62.573727617731315,-63.50429947273682,-57.4026375146272,-53.77741180383451,-52.966885647223656,-42.77832465401792,-33.14321319252044,-36.080137380945594,-37.95277632780773,-33.02684451720371,-32.10835967616316,-29.467778941981376,-18.58462920014894,-14.048671313911784,-17.455901888890796,-12.680338299093247,-4.363534203694163,-3.655773641682974,-1.3491457117452503,3.2816086933699493,-1.4246875189396673,-5.88543266697372,1.4063172331498235,7.889467676104087,9.711561426151022,18.253501798369705,25.776927545669963,22.88414901753339,23.592135179416864,30.781742094824384,30.266411431673195,28.389290967704298,34.661854293811295,35.72925167534828,30.977488034095646,37.06703359562482,46.75281464212596,46.739966711857434,48.395703014966706,55.501964868374145,56.59243830979191,59.34516781753981,71.88572817446362,77.52581174996874,72.16393895947346,72.67599019598894,76.66195085843647,74.51308782889029,76.03647786020792,80.69082939171666,74.54438165713313,68.00879457152655,74.91622005357056,80.97322001472605,79.8089074112699,83.8497506574831,85.96204343956212,75.81946898725946,68.84514770132739,70.3933366750657,66.29649742110372,61.97960833116012,67.25469588345909,67.60248319228586,59.196218822602916,58.74425332196553,62.28710109422914,57.64255232586825,55.000723186630836,56.506357732570635,49.387151649655735,43.08308499019853,49.812758499715756,54.465184325307504,51.05535911795705,52.95154483143711,54.360424191695635,45.793806823614666,41.07602282145202,43.33405559472643,38.56557972402267,33.36379680317263,38.02647031378635,38.95234147184611,33.334318864230134,36.580593886590705,42.51010928499528,38.77367493086669,36.247299747246906,37.60234464864757,30.568267053985032,23.623485793358565,27.48318735773754,27.734624793389614,20.24445781479414,19.671783072572435,21.12991091879801,14.134950579874587,10.515517614187976,13.222383395216493,8.370986892324531,1.6210256972706574,2.420890495761093,-2.7757721629900507,-15.51264491186424,-17.592965282724307,-10.845291818609706,-4.908332194344438,8.258756102624451,24.369687634948242,25.081025676788528,17.881664303508167,18.17770998137349,17.080977945599393,11.485548346531457,13.397748252030425,15.846731374561008,8.994039009400936,6.669795492376606,12.368924978003289,10.15451834798313,3.6481443270454514,4.516939631338291,2.994579009673262,-2.9727674502113546,0.5138727231996199,5.779876004247133,-0.47360189673002395,-7.16086269699494,-10.921832778914705,-22.62022423691523,-30.93581846579325,-23.731548081579593,-17.451684511289166,-19.515650794518727,-17.998737012366412,-18.43103417777931,-28.239408100479178,-31.46944548222043,-24.943244829217456,-26.19659603568956,-31.367935851041615,-28.92681320748244,-31.200380369459413,-40.96626688339136,-41.161735006204026,-35.64438189008039,-36.91466923789868,-36.02170387921072,-32.24742588248779,-40.02450404729491,-51.08731519092563,-50.90974547498108,-50.52945040605611,-54.0905968291217,-47.44209097258134,-36.71184833871705,-34.720318926906515,-30.40570469588764,-21.03943373612297,-21.062781735229958,-23.027998188687445,-14.607501563383984,-10.621643017357023,-17.525818130314914,-20.223515349465618,-20.99490966440279,-27.72075084037452,-26.464469080199912,-15.755264524350716,-15.025453327211514,-21.553149301724062,-22.148972660827727,-25.362061743963842,-31.631322944133636,-24.892025734692403,-13.10082374682202,-12.922315635194446,-14.118707639092847,-10.968789857328408,-16.3939599472137,-23.58393926335903,-19.130587387551678,-16.34469927329846,-22.229737921486052,-22.804907310881283,-22.259201404880375,-31.68950130729881,-37.656349405665324,-34.03338726409764,-34.7264675212106,-36.14023532870242,-28.286074099950405,-23.739708913194583,-27.054954542712878,-23.354777212287637,-16.2801788277977,-17.581312917593756,-16.385889703433534,-9.018757160573383,-10.199562911217079,-14.425058881630772,-9.363787107658808,-7.203220924439792,-11.044180637084077,-4.56084962060675,6.154556784948988,6.49919130451261,7.041299054036579,12.122274712729723,8.73288406258685,4.361907524582398,10.931632616310266,13.379519357354475,5.963998949445767,5.512310329402649,9.473879321288129,5.487460278834514,2.7507887995437406,4.2474285454525225,-2.426391801052158,-9.576580419726184,-5.04318601655535,-2.682542444268536,-8.638677353575574,-7.340332970831131,-0.9081275373880793,-0.9837989649059431,1.5104230554694,8.409234594512185,5.825118027977461,1.9633863564439977,9.973425287920557,15.014357136550512,9.989879810612788,9.494014701477376,10.038045059678947,1.9540303689665333,-1.6253148935739157,2.5762720992697465,-0.4581782491912305,-4.862062405500679,0.6019385163616464,2.1637337791321474,-3.650369267769438,0.9541332472274222,12.032758666652846,15.242903925795062,18.963301575657724,24.45958196820252,17.213019086666616,6.744443163275783,9.39692459994529,12.637462336381608,8.612504317629053,10.34970928796384,13.633390456901939,7.064404956033261,2.796419112188935,5.454225115535878,0.608278078186419,-5.6811873121690875,-0.22542992959191155,3.8312664057030656,-0.834086897278548,-0.9759316861739216,0.35229147543161354,-5.581778558865457,-4.672675470292794,7.058328597345478,11.693780698074534,10.708889842378314,15.257346898434179,14.596176551952558,5.984657804058693,5.799592673455061,10.684009082978045,8.697172086016195,10.176427957502394,17.848064620876276,16.223940516583298,10.304210591550948,13.64930008852902,16.240548333161367,13.591321681205269,18.531123330172036,24.791206595293268,20.320564848625896,18.14281186382011,24.64376603793369,26.4313365183007,27.33005761859845,37.917817922568645,45.8759907852031,45.59780997462156,50.61761450609221,56.76896228715372,52.56791896513457,50.61457405541937,57.27900336827244,57.95110988296073,55.591078738106305,62.15642814143245,66.4943116424127,63.19056312523283,65.92707849405716,68.8205790318838,57.27377323702265,43.49622791191158,36.492128179057936,24.160145422342374,10.97753323640492,9.792516026143161,8.934194647798373,1.8702157835917097,2.5595403160380203,5.785437635030019,-3.3795447293993037,-13.617757803080082,-17.683680372428956,-29.0605083829923,-42.24377475669192,-43.391122448205884,-44.19145966110564,-50.27820864974045,-48.05092249769806,-43.52960991911732,-50.193667184009925,-56.31697648124528,-55.43130070925639,-61.20122943757684,-70.1069824921456,-70.59092034947545,-74.12526169368515,-84.01999212219764,-82.26250039701758,-72.3995901462758,-70.86536964418715,-70.5616965108372,-68.00743919688635,-76.22895011744448,-86.125582865229,-80.76302192987866,-73.18741810377918,-74.0950604981951,-71.36880432273321,-67.89897804678611,-74.29455790186158,-77.2078525748041,-70.92410672350393,-72.0186205647439,-77.0521336415448,-71.34211435165403,-66.0176997982296,-68.77280485313862,-64.52307095488725,-53.850787131416126,-48.470632767581094,-38.90685388618645,-23.105483228194693,-20.43067913025419,-27.52439217041001,-25.233203216518998,-19.39264810216209,-17.382153536157375,-8.960510036872272,1.0190293207530705,0.4236376227971699,0.9825439607505779,9.498979027789916,10.652491368483915,5.787421880821825,8.3323238479224,9.447799256483547,4.316172202696963,8.713047452500732,20.249446526859074,24.432548970207776,28.874708207701282,37.10842687059363,34.015049956251794,25.121825026856058,27.265304246135816,30.414906676747023,25.996593981847994,27.074967836914563,31.676099178564353,29.14986140981696,31.224654040256283,42.06333660709962,44.19508396999553,39.7126416447602,42.66589882012467,43.91048921038791,38.504121638255135,40.89582160642676,46.88032288746595,43.88581210543571,44.761474189822856,55.291465859143706,57.785635748020155,52.97696244387639,53.44956404154874,50.0617008484973,40.749347785130674,43.88218860852322,55.049203836740105,55.49303310475343,52.24860909407795,52.650804787789966,46.366771926178956,40.15450049592225,46.8815286169894,51.650901661624836,43.82088184663861,38.609839080683216,38.875063721392124,35.61621141544998,37.76407764985005,46.95092559076121,45.14158897717374,35.32857008096501,34.43079925665615,34.910694146597315,29.140867510741664,28.981488806058938,30.990382237167566,23.266116926463887,18.281869407216558,23.03841708744288,21.838350593793926,16.65385564925835,20.60202844475872,23.267562591119443,18.99378408484549,22.419840235220427,29.623925642744606,26.304409976856874,21.68785745647374,21.9605396596851,15.694235259299116,8.915462204162026,14.17987682737493,18.624644722041307,14.280951985252319,14.769881047263492,18.34207909409975,13.439955386699474,10.068329480424246,13.922471651598665,11.1614367229983,4.894758099193501,7.1737294198949755,6.5911138238784295,-0.9027078503398709,3.116073320464714,15.789667453576364,18.787047856680175,16.712698788151666,14.608421661533557,3.255695939020192,-7.058026361616485,-0.8641087371821903,6.499808294085566,2.705548224022116,1.5762479007923789,4.040703396498753,-0.33277909483371637,-1.7484435632184883,3.848868227246789,0.6072552667644373,-7.588714707134248,-4.791900579514483,-0.21671043649451338,-2.0302269610238026,1.5361789062716424,6.187030137026733,-1.8321716828887444,-11.284335541354555,-13.051580660547184,-19.591508416923915,-27.903136014852898,-24.520523036993524,-19.882177378359714,-21.287805780295763,-15.589257022600616,-7.782055139511359,-12.836382614787775,-18.417803585673852,-14.01309237855892,-12.345014295324502,-12.517886374798017,-4.499227249897298,-0.06253057386242034,-4.12842959553816,0.22115503771408918,10.264393579936385,9.140164325997363,4.969435064610819,7.810011790854946,8.071437619993919,8.596667640869914,18.852336662209524,23.81248730262314,14.264336322258215,6.580038225309671,3.495877530298666,-4.885312092742774,-9.721710105146887,-7.780173292474242,-14.988166762207754,-27.871056207131105,-30.865379759917232,-30.43955499849961,-30.74626732440523,-21.867477732947545,-13.953696808086928,-22.279084964066058,-32.577204219425234,-32.479550379301,-32.722973915093526,-33.476073512026666,-29.154772539617788,-34.1976031255167,-51.99201677855757,-62.493262896151734,-64.74679578433978,-70.2759033083197,-68.28365764895054,-53.51500202466492,-43.275201518214836,-39.59704751440835,-33.3133907271655,-33.860634131375846,-43.04234750921511,-42.905029604594134,-35.92739304503562,-37.92700389266223,-40.18993513592007,-33.91809465908571,-31.69481772654034,-32.72464128965166,-25.624128784847343,-21.30186311000748,-26.209559043853538,-24.04686054278879,-16.00264702477288,-17.237628146615705,-19.726836821070627,-15.776167071285297,-17.44063529907049,-21.782983661831235,-16.06281701758855,-11.370314311229869,-15.45403294678661,-13.456933320123138,-6.289352000763277,-6.8549954541266604,-5.789620492001792,1.9065612106732668,-0.26131595516291695,-10.10400705510545,-11.791229092147141,-12.646889907017956,-17.576869489685222,-11.860701539700646,-0.23167388982003123,0.26010786374012795,-1.845041944878951,1.5161562419367403,-1.7143311995230925,-6.5948943477853526,2.0847140791482692,11.948484992794308,11.322289967769136,12.465600147046956,13.62826916965858,3.673827128976463,-2.358914692329642,5.581609976294153,10.301251541473903,8.657138271585518,11.43517666441125,9.618141665948796,-0.826794174126201,-1.3620814788760938,8.065727726588982,9.811851465933213,8.590044023878425,11.682544308786936,7.032595214646167,-1.936408467814838,0.6717872568141439,6.045649721612083,4.413193675522373,7.757514019010337,13.916651932207557,8.473651531638433,1.9677782385643563,5.746645250361229,7.565049077906242,6.861574274581522,13.930887073161959,16.924393709552717,8.98353279980619,7.456776542013281,12.459423948269947,7.970344768276952,0.7100659027994509,-0.5959370068647225,-5.986746771207654,-10.525587253697642,-0.6080096934555108,9.352362441058727,6.076715601118156,4.4094441957757375,9.20165744782446,9.973893576770124,13.545395527541142,22.671570540743826,19.655510036581553,7.4660123115755415,5.548718704323478,7.278891988517386,2.3514347903787858,1.972992212886515,6.2920785701409585,5.100246601598226,7.759055291833235,17.4840840177474,15.078661046377388,1.4641359028297094,-2.9818721524136427,-0.3223609492727979,1.9108011033130938,11.958473510690396,22.39762140552714,17.70405463383225,10.877454935392866,13.84210685235204,12.596356598369486,6.409014824375028,8.104128009692769,8.697887719763987,2.285412749904784,4.531113429866059,12.523533786171042,10.135862293136574,7.6311957569421995,14.776936387602555,16.407443046958953,10.561708863767734,9.728108826431555,6.569900374015408,-2.654307538571685,-0.07775105952961914,12.617972501709781,15.635284880772772,12.55496714605813,11.598221386657576,3.0478735817133713,-7.8933260232050895,-5.237862823314545,1.0248279722813955,0.8713911384023947,7.171454084280903,17.13822372506942,14.072442475415905,5.96393395548051,3.2023069493213487,-3.2224989308752896,-8.374769116948071,1.916873538846783,14.750961159647494,15.555876510635532,14.955672894024012,14.80208350467042,5.262975399658192,-1.8329372973874174,3.2623330819019127,5.392320254259589,2.8623997158877517,8.430233084282635,12.670362084237217,7.729427909039573,9.451778757578063,19.062710183656236,22.943650743683104,29.04747567012605,43.31727809925854,48.724257090277135,46.26068718771878,54.1838729479625,65.77942751295495,70.59596438687676,78.84966669775571,86.53655683985367,80.08197135763145,73.67038317072218,78.27134522791756,76.4362434038078,65.31762300464133,58.9198123969773,51.40722184246344,38.41959609749955,33.81531374523696,33.193961152473165,20.255682728407052,4.230587676302511,-4.697731461819382,-18.03266792515384,-33.53367145381436,-36.340115818393514,-35.40348343802054,-41.7447069282517,-45.37071277696458,-47.93492396399327,-60.754686868803844,-70.96108322997932,-67.94728052491952,-68.02236881969145,-75.11596546510857,-75.73575794864368,-76.2049157848126,-83.92573181853768,-85.0191280217771,-79.68286849493668,-81.96834325343404,-82.72923754770163,-72.75162400022997,-67.80287962130456,-71.27527224248595,-69.63654381600304,-68.74002625524042,-74.69827943950403,-72.47888081477204,-63.137138957982074,-63.616439019449295,-66.82404430743121,-63.05779450709944,-64.52287518585823,-69.59284022838426,-63.95292476887525,-57.46455190769649,-59.334428721186434,-54.7453139511055,-43.46426010010845,-40.85233114269887,-39.13088430991972,-29.28688017817817,-25.100252250366424,-26.16871472349213,-18.970418226363247,-14.595678557395072,-22.12052098031255,-23.952738176338773,-16.842409791844254,-15.292039983706644,-13.998890320454507,-6.9401204126470475,-7.601981466854575,-13.770647083150735,-9.202553390735122,-2.3688679402908956,-4.979687313700142,-4.78901292736578,-0.002459106703680991,-2.880080477539887,-3.840769804327519,6.28720429174697,11.761209527889392,10.01441015833034,14.946316506440946,19.288213397042778,15.153668719253083,17.1534178572022,25.518365242979193,25.08023370662716,23.332977055435087,29.241997195080398,29.04946650356476,22.30176124469392,23.81963384152553,27.189353114271164,25.50002852698631,32.24774019890252,43.683241158099236,41.27057207662973,33.58284709780288,34.508666224070325,34.820299201603476,34.37770773112419,43.55281382194754,49.0139967655986,40.1627096997528,35.38934030268401,39.939355833489515,39.05630515643971,37.76580349746507,43.06848408804333,41.2464097203993,33.88541362616837,36.9306906046378,41.56266807111177,37.21224746997327,37.364584877779,43.15207640558724,41.21390376454097,39.26706065483834,44.260822013929385,41.63924461123028,32.99976625610219,35.23986614074166,41.14152251314498,40.178019001817525,43.34364501947271,48.9427374672162,42.64238682676294,34.77918384919326,36.9465804072947,35.97824317192469,30.741876173797948,34.27665453729252,36.66313121605667,29.03293292897495,28.028607445703827,35.25649812886933,34.09433701985014,29.928200430920484,30.936740123439534,24.770355024330094,14.076371778715911,14.719832269266018,17.3819128819718,12.326432571860082,14.559149486079516,24.38435664531952,24.07956270527867,18.37151592149796,17.017178375675822,10.205187431681676,1.2453876986891537,4.959176406227977,10.263714676049055,6.179796893277537,7.836009674211994,16.04879430562806,14.100951045147024,8.081532479481314,8.04616012604666,3.5221353964494138,-3.278557060795949,1.6790036543117464,8.014517670481911,5.324553323852547,7.547862064652359,14.421410585991493,9.077096587992866,-1.8805660169530425,-6.269536053983901,-12.750559379498128,-19.712761450243725,-12.98726412346561,-2.526836696192002,-3.124262588117325,-5.611831912471706,-7.410050149094655,-17.724098756973202,-24.73564212457012,-17.443766765226478,-12.429480928017375,-17.29982949341914,-19.711214091792343,-20.500839303374526,-21.77966138154895,-10.430080284117855,8.937715518629707,16.12864163312923,15.023426061143937,17.281536465220345,15.101712605096886,8.364097298646268,9.513805780378156,11.185904073442604,3.1271683548328473,-2.014936304134311,-1.5976763410142047,-9.775347459296734,-19.422099426398727,-19.020365085783713,-21.219405830446814,-28.696253712169682,-28.107284742972197,-27.330990302372342,-35.35039237556417,-36.94039180768372,-30.45463467990868,-32.2894103877953,-37.19266740497909,-35.10759771059334,-37.214130041184276,-43.68737177349429,-40.363969169246154,-35.59270156160854,-41.01926474946444,-43.742584060641576,-40.19497550951479,-42.66479326865355,-43.33701988084832,-33.60617180861257,-29.044712312050045,-32.86072079268894,-30.91779619942941,-28.33748417543944,-31.83833197684114,-27.71954258498694,-17.097802221103812,-17.03441902425306,-20.744809659822504,-16.88555199647283,-17.633594733650348,-24.068930376771373,-21.23130925189958,-16.859129490749527,-21.09435192911433,-19.545907817244768,-11.719267398473935,-14.584657602060096,-20.601104946523733,-17.53158174729124,-17.27129091357635,-21.36269850421295,-16.095642971558018,-9.966258598219932,-13.927792045699642,-13.84517915262073,-6.692825255873309,-7.37047943888745,-9.813682667165628,-4.134521815959332,-3.594579282848685,-9.833545145776469,-7.6367632886746275,-3.2402778436517585,-6.359322389961086,-4.181751162502433,3.8424130076118055,1.5202403155303386,-4.556734121979057,-2.2153995603976715,-2.564913296776887,-7.152428399969791,-2.8213551875678187,0.9415698890236152,-6.507036147589266,-9.281254272896398,-3.4736093847372693,-4.234083250361809,-6.822199454224361,-3.2012321484143293,-5.601634975931266,-11.777919545721513,-5.048563351314009,5.61438094696693,6.837547271685835,10.102415240987373,17.432697857447526,15.229749959051297,11.333241306847523,15.28104132296416,12.250918738722525,2.2048719641558057,3.5420945509076365,9.255470838451036,6.389928000448876,6.049747559694572,9.203607104907709,2.674772642680496,-3.905917039269105,0.3314219455054017,1.2234381732818913,-3.2461429390684353,1.9879360555866077,9.534420540816338,7.0617527221847,5.716491569770026,8.687331760812796,5.137076541210839,3.522473532258047,11.736060244805062,13.037067652732691,4.356548770237085,3.1235897210330483,6.188034208083589,3.8729923730651334,7.502383437201776,16.638454781601467,14.391735634524444,7.339990945624086,7.823685568068225,5.403001170837045,0.03490229133471834,6.182355157177629,14.291284609878586,10.323380453656888,6.381924834005832,7.877209790571756,4.057667795867983,1.8879136938157297,9.574977356013006,13.228059048565134,11.182397000532141,17.690269404403292,25.292815767372637,21.868358019334565,17.916748564478617,16.33994985268962,6.40162825724708,-2.2940674558088423,2.2027787780582457,6.6308086596761004,5.47477372529973,9.491208583405971,11.222009755815266,2.296998395409335,-1.33196447761721,4.832747109428874,6.281357170397127,7.10740618538547,14.990895381692775,16.33382866765096,9.907031870763236,11.19431960593343,14.025876530891473,8.837452152279692,9.176529712322221,15.867205932073194,12.964679386567692,8.319216411020786,14.589844773980143,20.27583666769627,23.96314032455207,38.8003435487355,54.31349632060038,57.452267837563056,61.36678394140494,69.77446700281487,70.4793832911607,72.6356574891527,86.49705338535475,94.90132073191702,91.02955761851142,88.28438923611782,82.4976044647444,68.12697055554143,62.36200929778417,66.30508594753064,59.89767004565287,46.21197221015136,36.779590169908985,22.02742489106879,2.703588415504292,-5.437238771090289,-9.773026528527252,-22.65617272058643,-32.540496863975434,-37.34685932583926,-51.33368189077513,-67.18722690336998,-72.68121157270676,-78.11092835900739,-84.35182703468841,-79.03942100303837,-72.32659147601942,-76.54117197816325,-78.9137060681078,-75.57604219767565,-79.23722696692363,-83.5314118740554,-78.73748528474601,-77.59854773678217,-81.96298922806119,-77.24905517849638,-71.39714084708737,-76.90347723471453,-80.14037659088157,-74.92189154075187,-73.00321196525907,-69.2182975817936,-57.31342790350497,-54.14761723470904,-62.38390471124572,-63.03330683848657,-57.710937683820575,-56.686231623884666,-50.06835477857593,-37.99124472919323,-36.62301982220363,-39.372268461192874,-33.373078431411486,-30.351830469329343,-33.403261645041766,-27.30684923946882,-18.111119119709215,-18.926029034195544,-18.88964221863168,-14.988335443743622,-20.38099635545111,-26.176982513590843,-19.610178537636955,-14.835829822663284,-17.147444212765418,-12.039823177223147,-4.075105475508767,-3.2555460484564813,1.9708493836170247,11.642216574005587,9.307056885712207,2.5807595719051406,6.102858592667042,9.137935469957602,7.344458463543138,13.299369671148805,20.20246951514061,17.20215592078474,17.75655934250166,25.407720045884478,24.239226570073747,18.622750504341475,20.010501323153782,17.247841161418197,9.291983315155317,14.04520708370296,26.839007435843456,32.980158769462896,39.104473445497305,44.393957857417846,35.25205519920571,23.305759792589576,25.77211968591816,31.557895393314755,33.01960345201333,38.42730058712795,39.835177887613426,30.629669243060732,29.22247861268512,39.44990447274229,43.06927881650305,41.67588267852199,43.40873789222733,37.42264126776599,25.744303781842177,25.09074845125716,28.118923991780978,22.93294770388887,22.290589845365016,28.991599841172935,27.118863559457843,21.049388646305374,22.435521514481195,21.82422890816583,18.53605139394411,26.730804588640098,37.14173456396346,33.55104618568784,26.70539954352777,25.427420516410752,22.371975730427913,23.88443267251481,35.80186805131487,39.89491941491185,30.351966610609125,25.248109463897883,25.878692978769514,23.648982803169115,26.42857572644906,31.92985296662869,24.83313115623728,14.392191925031096,15.906381320350766,18.033857243056882,14.140206902578523,15.683988612371472,18.82582060817235,16.199266187793363,20.557506199726685,31.74446501465688,31.067574544361,22.75813855460902,20.980396040682468,18.110541135793213,11.500865139341492,12.026984842999747,12.429126723750883,4.103957844321373,1.9781935550948795,9.461606786892174,9.587785088355513,4.652719113774104,5.625860785520784,3.986281554540865,-0.9505538200688128,4.043935333828165,10.425901411420472,4.309917549687507,-2.267646168291121,-2.8918767031104284,-9.6199880055737,-15.866885610891405,-8.936955369364554,-1.84029759064798,-0.6110368222367786,8.892497612666128,20.351429231788565,20.20210893317055,21.538344060889006,28.919635772202312,25.329669670585275,15.967924512314916,15.51082738675324,13.818063653242376,7.460688286018312,9.355772973796006,10.744029773990528,-1.2921748258362387,-12.111142259238033,-13.828098936462135,-18.538842574719844,-21.55437001671812,-14.121207035161746,-11.59839479293062,-19.338191840836082,-21.964988030896723,-22.635013809151694,-29.550853633422683,-29.071165715022033,-20.338295365823797,-20.59005545636656,-24.22387020548546,-19.17823319231703,-17.46861714215656,-23.855301913716218,-26.03119197983748,-28.444441274390726,-37.3635544935398,-36.87067791315906,-25.1818360881848,-22.282587614131508,-26.52604144570819,-25.862762582183244,-28.659709744750977,-34.567875541763016,-28.369803901827005,-18.578132965870168,-19.808863094342847,-20.140785772420358,-13.701367648953145,-13.083388175169041,-13.185326281986148,-4.958961431734984,-3.0233975622528964,-10.665206718135481,-10.907288561780517,-7.7511215829945455,-12.738608098625136,-15.003290469936069,-11.994977121283132,-17.019843455240913,-22.382990138745832,-16.035533052402627,-11.4023787801877,-13.692450298305596,-9.290833489098102,-4.024646245579305,-9.109588004599983,-11.475901829469578,-6.550809794984907,-8.320039849066987,-11.416010740177821,-5.256954225836241,-3.2799759160861877,-9.663252694938654,-8.628981477424874,-3.782327435704622,-6.526687117985608,-6.490073591508676,-1.5444971433853494,-6.051225813219048,-12.341793860897203,-6.241508992690302,-0.8881269056105785,-3.786927786009922,-1.1842216494052396,3.5737731651965636,0.03171928598649121,-0.5170574272288013,3.9170483867241987,-1.2795322122505657,-8.660622778828813,-4.7121723177071315,-1.6271207626600677,-6.15830006229278,-6.119069919662817,-4.856998895808682,-10.436332561680576,-9.383834230787995,0.902152531975756,3.2541718667946853,1.6106678042394436,7.576767669777975,8.198156471864216,-0.035936219820396076,1.0103638901466887,7.866200424177327,6.547360369565274,6.544821171470978,9.70295168052053,0.8566091436204344,-10.974389236792838,-9.635463846499606,-7.532384174093117,-11.427642948026744,-7.119141125961627,0.7414105426602267,-0.546372366985393,0.3356521329082436,6.9188576143883065,3.645800630691451,-3.3661772331037576,0.4438916152125487,3.475812422568382,-0.4261617207613009,3.0776940845758594,9.367728790583577,4.907761650897996,1.050183886088842,3.97070471364707,0.42469238538492426,-4.607666176095167,0.4255477558981591,2.5722144229439454,-3.968718381360708,-4.580155188172694,-2.2426660555798907,-7.668433316902174,-8.439118554968799,0.8704527231583428,4.521839724634601,4.008517803877687,9.11771257412604,7.195610112191538,-4.496854013369241,-7.057264320328343,-3.3861994989034523,-7.355538460060828,-8.78894480782555,-3.0152790589556986,-3.9013856817230055,-6.600021602993911,-0.007669271442913406,2.8582162541389304,-2.404666455489665,0.488884688909051,8.006401692914695,6.972629085590353,6.902390136801504,11.364441996634316,6.997372065805125,1.0109701552713317,6.782039212845342,10.478720837503195,4.2171653628717145,2.3180602858739054,2.151527829892952,-7.359754906425571,-13.611035740972998,-10.249219478629538,-11.50400650802558,-13.46160682384836,-3.5828451401263446,6.100859159274046,8.826789596884186,18.32064664909786,30.86175515253351,35.350418504143796,44.927663410163774,64.99814375269952,78.65183501017594,85.6730248267603,94.69412271648514,94.93202712285606,86.52236289004976,88.16926456163492,93.16820326749732,82.71047385510518,65.85283056886658,51.921550051152565,33.214588495548306,17.836100388405292,16.826432230156442,14.553249260364737,2.734434867036136,-4.793537503676101,-11.056934994162654,-25.476772061850614,-33.495891897275904,-29.735279971964754,-31.477683036488177,-38.18861074980339,-38.989974621624384,-42.90431535274547,-50.61328608676426,-46.60629181099577,-40.079575677279685,-48.054035474757555,-57.76368662206136,-59.84278177759819,-65.96289004337153,-72.03172627958466,-68.39594030438454,-68.84827184190007,-77.6918032561621,-77.3234756899574,-69.42336280508412,-66.12685288446065,-58.2848238975855,-45.39427884475547,-46.15353445163238,-55.55828504356003,-55.32780794241434,-51.44377052026688,-48.787354361902885,-37.562697381026375,-28.058239967894757,-35.31235680247499,-43.89951858224629,-42.23030492042326,-43.145863035414706,-45.414275481545694,-39.345724525869926,-36.47766979123705,-39.518537470168475,-31.35627259808779,-16.52359452053143,-10.934665642230604,-7.190994956632066,-1.4925521776005999,-6.117058398561428,-13.174626820710191,-7.4420456088034515,0.2322927389488525,2.5895680017894067,10.690415649860405,18.17103916998353,12.564073552211264,7.068185809680582,9.576198584703393,6.350307522160158,0.04108636821097367,2.9634988395621953,5.903630594270801,5.376970621075859,15.231879073789242,28.264768421114475,28.38326775189811,26.64589155165985,31.77344827877055,31.71691525024978,29.270499313180665,34.48731228302782,35.27289106126321,28.185686529335918,30.805207638865532,39.17442749538941,37.237897435704674,34.29936617075556,36.92367456913801,32.09350835302551,25.117169886156567,29.56438330090892,32.280124401562226,25.92100040478734,27.164904413490117,34.101794024309804,33.46368376454347,36.3747148184205,46.46623524780692,44.736635567753,34.63092654385635,32.99872880514992,31.62759489903637,26.14288146424857,31.024285196468874,39.37539965958237,34.576076324856636,27.824683967890675,27.78793764172657,22.565157704449824,17.468045365056128,24.56981887371739,29.12378032437778,22.74859312875919,21.463499508302544,24.8791898753395,21.32604779536984,21.010288783175554,28.233620365341597,27.024255568803504,21.04702905469586,23.864037379900463,23.690884371861973,14.954096902480387,15.270625840677583,22.928140726608788,22.1615935958348,19.32194708423651,18.48155081928037,7.958309779288047,-2.478457640704083,4.0478966799226725,12.85246936396686,10.943815781421911,10.130681676680902,9.332007498591981,0.3490871077451043,-1.7769493436526302,8.209947559299806,10.91648882736414,6.139965934447666,6.377616274420994,2.3056035017718184,-8.218581678820254,-7.516019704633929,-0.5001264226645432,-3.3779669922731075,-5.87903419681925,-1.506931363750221,-4.560957645300647,-10.679419687287698,-6.200825272058772,-2.732169263036791,-6.666467420030331,-3.6616538193676953,1.1918855173793157,-6.73185271211079,-14.745197791998926,-13.055236125812005,-14.967677845352007,-18.801519775129513,-14.187122244332926,-14.95504207309682,-27.350998092188217,-32.40923547348161,-29.375360425670234,-31.215651870878144,-28.522845187194754,-17.565912147148104,-15.648460789410148,-18.545442020948997,-9.433089515159626,1.5001975337041689,5.555342030433427,15.206654523983476,25.828003811488667,23.587954423874216,20.70044028991326,25.498896970090076,24.115348537741156,19.441812419494855,24.249273030529896,26.891483251131792,19.87769483504229,17.04439022892931,15.355551955989842,2.356203154559195,-9.175169446972312,-9.975011233557527,-13.161512804649806,-16.843336592390862,-10.660116945207111,-8.5589138338726,-17.41737264904848,-19.65393648408995,-16.37528403660764,-21.76860785692721,-26.253117659458443,-24.387360136699378,-30.79487480930991,-39.887043256532124,-36.514568349419534,-33.26328886032554,-37.93375436146943,-35.01269631452813,-27.822092226000194,-30.32797538576085,-30.773827649893466,-22.79834370721838,-22.635237846891783,-26.9381692029306,-21.413831339318577,-18.576186174649457,-25.953444541443325,-26.576110279166905,-21.590596979412048,-25.001366341881777,-27.547551989364504,-23.973726482367077,-28.34336763962201,-34.810370020268145,-28.105159476471467,-20.26488731814159,-20.314424117665375,-15.054456061492946,-7.118561321512727,-8.805758762389386,-9.687366291950235,-4.488129154715759,-7.354269376093798,-13.077646886654701,-6.960127894305572,-0.52836284293222,-1.91935612525279,2.037573807778334,7.639675040719355,2.721442876531511,0.040496052282214534,6.428161087252771,6.52857679700752,2.313415858808118,5.622773895933014,5.473092502771728,-2.7191435273907167,-2.046445227886783,5.044252569422743,3.518902929924622,2.697167466952839,8.99249071722733,6.736452852598516,-1.9278117919751754,-1.0919113928974356,2.135249400126752,1.9913503690716896,10.510501982441188,20.003654264767544,13.025681740305814,2.1266968540021116,2.0626913436726557,3.6746693371064896,6.029657659829359,14.747313693178276,15.012041050599613,1.9378497684583476,-3.9924830361944856,-0.6091340543927661,-1.9301460367259748,-2.121661257311567,2.901544274592013,0.5587030800079307,-4.010206773512806,3.2927437760821348,11.426968605976283,11.092556745658733,14.175356284110489,18.00971883938602,9.899941240824253,1.7130604710185056,3.448751541283273,2.492484617452119,0.6754761776382985,9.478622451199266,15.562141618904834,10.352102399209418,9.931083018920837,14.304652312876438,10.126007503985742,6.749312080909587,11.47889785046616,10.410680707965053,5.478386670350169,9.534060283142223,11.000956838706356,1.8036151589704912,-1.3758911211853113,3.350429473553178,3.0223059619940438,4.1147139790569085,10.383492813376586,6.588699302514826,-3.5857665587397407,-3.2361279270225847,-0.495439849010351,-3.341271680771551,0.9915537519155815,8.754204314679697,5.382941357611553,1.7751022083012549,6.537513506563909,5.760679732979162,1.491806166425985,6.562796830566158,8.782713895602067,-0.1165720045427121,-3.5630734126835972,-0.607696054436685,-4.13751442904884,-5.217655771524434,1.7071374048380759,0.41992133371107543,-6.921182487911645,-4.234589187218543,-0.4260668816748814,-3.660250045587815,0.0022908798823921828,8.378334215091222,7.143252690521825,6.300247037794063,13.399724466765466,12.81091545137129,5.07245595510587,4.536896468780348,2.838915974833999,-5.759545887075181,-4.676067506922327,4.488257277107458,4.730902319846557,2.6099887084884656,5.427987216599586,1.644540161683113,-3.6550321430237958,4.185403703472906,13.153566190851679,13.061186584305322,17.391550765983105,24.78256571573927,22.375415315054887,21.64513178389214,31.860277412372362,39.32375942352007,45.065132167670406,60.991163039358156,73.50153068435195,71.83518486695985,71.69888422808502,73.89658717253477,64.37964140396522,54.16817960037258,54.016672089132605,49.420847744638046,40.32640148826631,40.04513483877527,36.35149232623343,19.719606187366452,8.181924472247678,4.579800204912896,-4.924893104970511,-12.309822842608138,-11.545381905449656,-18.769504871835036,-32.084120759293086,-34.855003158639676,-35.18922483725517,-41.89288080484619,-42.27758761480439,-38.98419264863103,-46.57070137541333,-54.63289397584223,-54.35601006261959,-60.02993457413274,-69.75760449408189,-68.51400911981095,-65.85451041484772,-70.65106735699531,-69.0726613573254,-62.00980185554274,-63.2470088312615,-63.74252816546814,-56.84245939425415,-58.54220468383926,-66.8856468961373,-63.62976721744484,-55.46569477596,-52.606288966782515,-44.34218687957296,-34.36184427413235,-38.227215748364344,-44.891318083443885,-43.11161362638647,-45.867893073191176,-51.27389094114957,-44.40931339846263,-36.35262879353552,-38.6963415359376,-38.05678362875726,-33.231505698966764,-36.24023461582982,-37.08515815638745,-28.348065067544216,-26.083945915118175,-29.354830089074575,-21.89885067565137,-12.84694411645168,-12.359246378064698,-6.32971440143416,5.525637270509951,9.116425347068,12.048445073127425,19.322366867699795,14.72081483506228,2.258694363254875,1.544819734127655,5.425170413316094,3.637526166981105,6.800792000144836,12.424341454874048,8.898686295276647,7.891102291946286,15.975741624921339,16.631124258458836,11.503986016994299,17.00222405697644,25.146112818211805,26.28177962637996,30.832905190281075,35.73841606800945,29.887909183462124,27.409745214399145,36.76213168358695,39.40163502198776,33.0330137788768,32.45284353126404,31.826449888716667,26.11330136087238,29.472549006620607,37.615445784853115,33.30080773774722,26.22865377757922,27.509039434890802,25.014956935011057,19.96091768860402,26.03786794565361,32.87509288046583,29.312089091875933,27.86619353732792,30.087205171600303,24.929685228409785,22.583296588682337,30.48178169415093,31.86915419886153,25.833810246794478,27.788092006232564,30.386887501605436,25.19833129273043,25.359113042728087,29.84527680574345,25.968246653649125,25.15245002036453,34.909448191478106,36.070097969926316,26.86994078735607,24.76593721252366,23.996926902654064,16.66662874733869,16.707848788573592,22.798352753152113,20.096952661910056,18.19261980527686,26.1355614342237,27.59732806124657,19.697825059988553,17.92696904270093,18.610637483726997,15.98123358749364,23.062272456291076,35.68621952724854,34.35153741724895,26.02597791825069,23.59720747258804,18.207224870697157,11.348356450604538,14.9107724223893,16.833625466765945,7.781396043487334,5.213079736993821,11.881258411197857,11.853320210581845,10.152839339327992,13.982597164032718,9.487625936106786,-1.5207182578763083,-1.8701917333881597,0.1691857237259795,-5.546410051616276,-4.495536930746791,2.8138834693345016,-0.8191387801698373,-7.766397560053491,-6.886587624525497,-9.744392244735575,-15.6360154790469,-11.516046473859827,-8.136913288843491,-15.412194981667232,-18.045369784251413,-13.55263672789695,-15.573596206256916,-17.136853311689936,-10.258259291313745,-8.556477977503619,-12.388653527756933,-8.353052993060428,-4.970571967110228,-10.66029186864888,-11.2973757998824,-6.168818814030734,-9.415038832408628,-14.045044911686634,-11.24803908096159,-12.79482705065368,-17.848581274115574,-12.73148442885725,-6.377231912123183,-8.95848105560023,-8.43142890920107,-4.703419625749122,-10.342970970799433,-15.990495501054223,-12.547559768499095,-13.519030858422823,-19.355239055685345,-16.205076725326105,-12.110108850558447,-16.499159551587326,-16.445569693084614,-11.829180030871036,-17.01879271079931,-23.395743363130943,-21.124724620816735,-24.00530909780464,-31.947373073814337,-28.954767258500922,-22.822511484724895,-24.90983779116916,-23.90779506416966,-19.72720555792073,-24.78712465389588,-28.50240827262427,-21.351504710700212,-19.378237364253003,-25.11715561224315,-23.391857272152553,-20.775472128029648,-26.93830446035346,-29.36507945182473,-28.494207054916373,-37.66877168312597,-44.74211173761407,-38.051302907065086,-33.705807326793085,-35.50315313642487,-30.05773428718389,-25.354269905667927,-29.503741043265016,-26.115773387177665,-14.255185334356918,-11.59775347675347,-11.79661374604679,-4.267347512492327,-2.0399334383184695,-5.423818498316518,0.5180622634424483,6.40606405743794,0.25825285478642224,-4.126220461269067,-2.6620117348517693,-7.671540981619094,-11.816046201674745,-6.335267156429588,-5.573454330785657,-11.341950100806953,-9.455540706586852,-7.093407662527669,-12.327716734593468,-10.787899888247576,-2.335643437175672,-1.053000480915287,1.2348329188613538,11.120224102177177,12.878442300472065,7.8651564517961114,12.674391769975616,19.362826616172942,18.161969493696986,21.38248159473257,27.305677135668812,21.420047392969728,14.269341308121714,16.42713474041078,12.73795611890495,2.318035704116196,2.3945248161808586,6.713470353311792,4.812163309161247,8.951061770126568,17.814531639776575,14.83170465146786,8.891090946043217,12.585739853732218,13.843705565657329,11.60500708824644,18.831540888918394,24.59103347325149,17.561536620553376,13.622311621204982,17.522934618190448,16.092480394914,14.792542210284001,19.84705355743993,16.532740826340873,5.79747746890377,5.067765794410653,7.684777492988475,2.6776733756853783,2.8228482556013073,10.0983549006339,10.185096648545228,8.973663480244646,13.977258817458228,12.12525058322591,5.999427328470581,12.720184102783524,23.661929824107553,25.07653414775763,25.637355924376998,25.93160671432341,15.88793142225655,7.5254132043768305,11.771498396725898,12.654388036274302,6.455844187429163,8.238875913899077,11.356805214060692,6.810638387388982,9.929725177010006,20.415264771112977,19.261177847835082,13.167526605855173,14.316297499464355,11.13393373456395,4.051321902171222,8.142003098504855,13.083215951607238,6.044928137510534,2.213374957927539,6.053117934431326,2.8315065020739185,-0.7105121237217261,5.7839114363616115,7.751897064261625,2.7728405692002935,6.090539932501038,9.507455922285065,2.1589896664983534,-0.12198612940836984,6.387841616682822,5.725705852339743,2.5393931315554132,5.311990581615576,0.898215275003349,-9.175820427229617,-6.4710933316466335,1.765041519416255,1.7713554202863444,3.2819470999265077,6.590077597143905,-0.9498189596475717,-8.481791770938722,-4.778968455247471,-5.109726814526057,-12.134857485418193,-9.617152287181707,-2.9363480067849714,-2.4426416334803482,3.5933051582011686,15.10394870012313,16.222186125381356,14.703278580416196,22.905503876941214,28.186679046767708,27.968552820839875,36.95094726608368,47.57203330266825,48.32828584964602,52.742295677186576,63.319215135081215,64.84664116100215,63.87498816444527,71.52934469155866,75.94724486387635,75.57570516134538,82.6214457564964,84.9967248263269,68.97460136489998,50.663392158343214,38.91061219484199,23.560413342243613,11.37090989158412,9.53860529205018,1.6459274175099057,-14.426643728973325,-21.574773432119194,-25.65693931140636,-37.690142077730684,-43.38187876425111,-39.301691117892105,-42.6705848026396,-50.84739425241041,-54.08365662543893,-62.77210860290741,-74.9973093343602,-72.90717753842912,-65.01710406774166,-67.43354872722108,-69.4244650872665,-66.63900612418894,-72.78758166678583,-82.72554520154745,-86.04770191917467,-93.42184996276336,-102.93907260003658,-96.36202420322202,-83.35063798668446,-82.44497802462605,-83.96944786598553,-82.84455560785594,-89.54706051956688,-93.79530404528336,-84.85059611752793,-79.87805608864727,-83.11454426329402,-77.280813925864,-68.0309158740699,-68.18004056977776,-66.10792286894798,-59.51365863940825,-61.87697579172522,-63.46797771435999,-52.33463472709176,-44.827990713010955,-46.93115720591225,-43.39142261381305,-37.69612774080008,-38.230951824087356,-32.15898924613306,-20.13533903357893,-20.621530579086905,-26.804103160352135,-23.26280117349142,-19.53050219096348,-18.615700416692196,-8.322251614522946,1.3467456512636877,-2.435767916468176,-4.291182977002038,2.0128956520580443,2.306780087412597,2.0508724204540894,11.369536968537506,15.939484573365535,12.295356651606264,16.625657334101003,23.64855198763097,21.83866115528271,24.602932627719888,34.71011462613153,34.079861872019656,27.912209029945878,31.376194514704558,34.260927291563696,32.938650173521495,41.184638592988584,49.33491440048165,42.995999892799844,38.089441762654516,41.748807734280426,39.0654590830041,36.0571260396581,44.008081181866224,47.74246825155771,42.278300492131876,42.90322277250973,44.45112378674031,37.31802252981085,36.966691556440196,46.51161078868722,47.737101559059454,45.253589844151605,51.33241196912459,52.92019333645439,46.72725370724355,49.08877813646471,53.811692547936424,48.18534890251411,45.72784446854717,50.01283310178417,45.06521843492607,38.27304110729884,42.385774381021335,42.46765743557185,33.77039321883366,33.10085350540467,36.739092230085795,34.16416841812336,37.50790517183359,46.91588264870809,43.909640863500826,34.679596503428186,34.24827992735385,32.690028381559834,27.224144341648632,32.10122171484794,39.363120852756715,35.0418159921129,31.62398321260904,34.01465198345865,27.98619734327525,19.578884204303623,21.451196869005074,21.91386341365983,17.136408739305285,21.90419029006324,30.001212315415785,27.18548415709798,24.318294817560353,26.749554478802093,21.620770931970046,14.550328490327342,16.574326785396362,15.063094966814491,6.776621383551495,8.218030406922642,14.977537251258838,13.501065779449835,13.410316745675106,17.87401720273896,13.341368297004566,6.744172143246354,9.88738106468233,9.40475063816083,1.5669028892424057,2.3946905384211954,6.52731236901589,1.0874244609058175,-1.6117841351214774,4.106478345611104,4.958902463885222,5.477304537402553,14.035806303430716,14.196646881760792,1.41878581647038,-4.20368570411786,-2.267240632130464,-4.857116621437793,-3.882846660232674,1.0493318972900174,-6.764601304357188,-20.17567074023338,-21.932517255765738,-21.424295765188496,-24.584845224196062,-18.710591553000977,-9.967601835581766,-11.846606759273593,-12.7744065211809,-7.877262128125479,-12.86457236394427,-22.632195739042253,-20.651432189191627,-15.282145750855452,-12.318002628096046,-0.7445631476347971,10.755685104907855,8.47355383946011,7.31823415717701,15.678609395835043,17.783015996845112,14.109482293191896,15.417317773270922,12.173398767500933,3.480882808398439,6.951102772207633,16.21344917238344,13.687292854303497,9.146403367754946,9.911722792946911,3.245112571436448,-6.853792294702702,-9.42604027595038,-16.352069423252395,-30.018980324938134,-32.14280574790356,-26.181787147001558,-28.035807337806844,-30.835484104381244,-29.754929187960613,-35.66584875014957,-42.36961735023809,-38.95589030150647,-39.32531282208036,-48.75785774642438,-49.787313790679605,-44.17685895023379,-45.17129555139309,-44.725257666463854,-41.002002296750405,-47.577825775910455,-55.66530888921116,-50.203552877445475,-43.68432482070408,-44.24334648147079,-40.43392499577804,-36.94011705240082,-43.41124071564475,-45.2793844916808,-36.82095447417494,-34.45160842436204,-36.16659971335375,-30.828619835579524,-29.795423525855398,-35.96889030234887,-32.16025645537428,-22.93837078392633,-23.693838267889678,-25.05155783534829,-21.696137068121494,-26.007210276110595,-29.97809264198726,-18.60028664961209,-6.430336129387187,-5.5668136433998034,-4.3767501839245835,-4.1577735410221415,-13.222883320741454,-16.767402300316142,-9.231659996966206,-9.396887757812927,-16.019727444448964,-13.623180138118073,-9.970458398964624,-10.584393988214353,-3.2776476570800006,4.795337128527054,-1.151901437035184,-7.423701960893808,-3.442605226842254,-1.714592553793655,-0.3255147406253532,9.879101634371224,13.735613942794018,3.5774426634093928,-3.223740037618443,-4.449509637886006,-9.107804705800984,-6.888606529660569,4.053911623309135,5.352166811984662,-0.2794156296833048,1.8672514297899931,2.5129918060687735,-3.6142330657447586,-2.1383435712811774,3.414264613720567,1.1855193174139154,2.4477261240603525,10.970687855077854,10.331628895551061,4.36336282610171,7.219993443832827,8.32988731557123,1.3015796426193957,1.1987372754346812,6.425159863389157,4.928984180373231,6.977707929394174,15.880130464411321,13.311759506610773,3.055456814497003,3.3576182732134745,6.070186775418503,3.4789420510051974,8.774979854650658,17.62131996551194,15.433580241702321,13.762832340435903,19.746877418438046,17.604903372789828,10.318843873937741,13.161255528869855,16.790220121549023,13.97682343336124,17.154431725533826,21.953998453305665,15.371712664089706,9.275402003712614,11.147045339462329,7.2703630237825525,1.479092069690769,6.922350202056167,11.760671394670963,9.001622058351092,12.41271358115527,17.280375177734328,11.101180133168686,7.907361240512235,14.804658238453955,15.352497850393778,11.409718716448777,14.930740433995586,15.000834091458863,8.119945791182094,10.354225967802765,17.067683250606624,14.154729638582062,12.157932894768265,16.424928248862173,11.70612857014336,1.4230083288825681,0.9053157471109943,2.852926860172646,2.6010500527893585,11.840520629621233,21.079731296227088,13.499803065220723,3.70825643968553,4.7718208193897365,5.392788309599531,6.664087645626323,16.162297229498513,19.657215151153174,13.658115304850247,17.471834005786015,28.374440488749812,29.39654306559784,27.619508019368574,28.22423335095529,18.82255357615567,7.114814098367182,9.742302014774694,15.404410384798513,15.151739194099115,22.005284181160505,31.619381064997743,29.96229280771476,30.25795135642344,41.48321358396031,47.64649536312844,48.62872945491204,56.11191250996981,60.224137678134156,56.914172048602055,63.33958956744273,76.70357719643188,79.51287623473164,78.02038529345788,78.4261112634266,68.62522493538415,54.07617351992039,49.91977153872992,45.723966391388544,32.93735812645865,24.910909765959424,20.962401892146747,9.829338342302304,1.79061348627916,2.175102292243223,-6.553523564013704,-23.900112845762756,-32.76669214485581,-38.15654962614816,-45.710500958397986,-42.73293834078683,-35.7147138370647,-43.17207703692801,-55.06837193217782,-59.41268179175909,-66.50840456122846,-73.63044005141761,-69.18094939102944,-66.43022460055977,-74.5073839021216,-78.01558755438894,-77.13118369758074,-84.8798320731633,-91.77903968415711,-90.71616614479409,-93.64614563253463,-96.31381460770476,-87.53349489642662,-81.38144388237316,-86.13357616509738,-85.71710724821628,-79.3371622922267,-78.8825109409229,-75.41272159072354,-64.66876849727088,-63.226388346240626,-68.10408334151666,-63.71050472886107,-60.074059044188495,-64.14540219287515,-60.01140074246813,-49.756718457706654,-48.797024826079856,-48.369099587908124,-41.35409722289385,-42.15260281325863,-47.885317208301075,-42.3708649572828,-34.32181306481105,-32.18293564799523,-23.64552357044426,-13.58701472668638,-17.283018823062005,-22.16612603222982,-16.16216213178764,-11.678985708627284,-9.602205796372003,-0.5577082076374391,3.4789123267249735,-3.4813664756784726,-2.9207239073288087,6.060021800990702,7.2601244649699765,6.689023122197997,11.053955266359123,6.390277177361563,-3.39119166060699,1.2161255897070258,13.27994663098423,21.38458625631712,34.363922282638455,45.822036546782726,38.920230544427895,27.47246712432453,28.310559155980897,30.93698106758664,32.83082320455649,42.19416278275917,46.52232467492148,38.66340518767189,35.96447843853048,39.57943469558403,35.39314385628009,32.16309174146001,38.41881512869641,40.234532530835565,37.107295831380966,40.19193622679819,39.86912122189081,32.15027182650294,35.492636451572885,48.28794570809509,51.453268305559675,49.61083742577697,50.41119281571547,43.54929499314453,34.87975511518352,39.80237693249133,46.51191783996458,43.83672031744537,45.23061982722022,50.90494318710096,46.79605070661723,40.83288323876972,41.67998148007786,37.098767712574706,29.64906873156278,34.32825342598288,40.740387576598856,37.746960892747225,38.09533293660487,42.41176608516162,38.29427695945596,33.97332336238961,36.31583568397536,32.23861781885088,24.965343278738466,30.2892349535758,38.17808579546801,36.530108768720154,36.77089795113595,39.39868642359928,32.71818757968349,26.696596815334193,29.595068036214286,26.860787149166313,19.396513611097298,22.70518548386344,27.77279736454458,23.200634602715418,20.62027143214329,21.065747974626426,13.778575033684717,9.095889104588428,14.78324499326663,14.840547878827703,7.940700509254718,8.915574080929332,11.529390753069237,8.8262398128918,13.706915795191746,22.47140702765385,18.168582113387025,9.99192070597212,9.534184191309823,5.7051961064706065,-0.003424357467267214,5.189348335447664,8.924881730549886,0.2531975791714167,-4.9353587771698875,-3.3430315757170046,-7.379370822555714,-8.7222892717013,-1.1340040742871818,-1.224384733965923,-8.200684608039493,-5.234983990667962,-0.07742409327066002,-2.596311256610356,-1.1899873180846345,2.058336059219746,-5.400591098936427,-10.911320136682138,-4.107730058938858,-0.9525549216273657,-4.415828351029343,-2.2536782476052513,-3.3816969882664067,-14.381443849545311,-17.251761153150824,-10.366673404977021,-10.142084180664007,-10.845639221618752,-5.809006451645121,-10.588619822180561,-24.156561511898346,-27.96110917615938,-25.890272427252278,-25.607616877394825,-16.97965586028987,-6.189378171828889,-11.403289483996097,-22.190249156717435,-22.9897464687185,-21.875885360936355,-18.45424055471368,-4.410836090055696,4.4446521250185835,-1.6360918591520872,-3.3792899089709616,4.085802993293061,6.519280995417784,8.32442567578904,14.510249191593777,11.073676573983619,1.1103733507167965,2.763587449358398,8.676368181100147,5.860599565843235,3.670380849536226,2.684026216786631,-8.708122180703702,-20.742955740903575,-23.048807086083656,-27.428957551663526,-33.83984028687268,-29.555737981745303,-23.362902832140435,-24.565395997299483,-20.949327714145397,-12.854556748856478,-13.95232686321092,-16.20125169422098,-12.012981065140597,-16.373503249901045,-27.97235588477434,-29.230382944231515,-27.18385220159795,-31.27487325439886,-28.732435489128026,-22.126542663346783,-27.924448625752884,-35.56351153859017,-31.841984817886093,-30.255424525163,-34.20832052952738,-31.56734692198969,-31.02037765884654,-40.00177427116712,-40.19579561930864,-29.013829640969078,-25.67905170248327,-27.87238401939111,-25.98212692942752,-29.999414081390054,-36.78686992559202,-29.07106850328669,-17.346038794194115,-17.78739788163812,-18.758771389749764,-15.554030847331841,-19.719874845367443,-23.66438427491363,-18.747435824833445,-20.089936895414287,-29.34616057587753,-28.928108303268765,-23.484667458943033,-24.146628823033446,-20.370568094789213,-12.255610114326824,-14.089374283829954,-17.765484373440152,-12.775456700195981,-11.681290069568197,-15.648562287362797,-10.618904659581041,-4.039763944203155,-5.658814902035046,-2.6761404968569207,4.851695110743751,1.5941113963697524,-4.200405153102712,-1.0359695531718072,-1.4197735395746096,-7.493163721590174,-6.446929523269087,-6.016802514086589,-13.871269213580677,-13.513647698644416,-3.1734236347244225,-0.8957149102802691,-3.0201596615267348,0.16313643492151142,-2.067352009167573,-7.821923036749067,-0.32117374063689486,12.137180527812394,15.594301480243482,19.25063446821526,22.423108690594006,11.884605011168054,-0.09088260535095571,1.5131966880437062,3.5061159728980122,0.5636397733124718,4.260362840976899,6.502532380824106,-1.2111933559989678,-2.346180639978412,5.564293618147004,5.841431310677318,4.366757975387909,11.294052414988855,13.089721837634555,8.325473584813553,12.337662275808455,17.32832179897688,11.73116098542275,9.02692812814195,12.71699412361824,9.834141571636081,7.740984853441891,15.09765676463363,16.153976722629483,7.568004306134248,4.836077481432673,3.848165614942875,-2.9159675523068502,-1.0897428899977537,10.607724991917845,14.618865334946703,13.852818602603001,16.456887468718868,11.03745585270411,1.2229672139522383,6.269116210728786,17.895100759869646,19.95529516407081,20.646798837412852,21.321148945209387,10.987436850405373,1.5109216926511198,5.331659121766053,6.008691610180807,-2.985186988736316,-6.685367203445735,-8.226814053915296,-14.964650960206102,-12.154612559702201,0.33005554671943216,1.7103968701438932,-5.167106720945633,-7.184729536904406,-11.932943415333078,-17.893130048629033,-10.215345822695696,0.9293170321068631,0.7127531385711641,0.9866124482451818,5.688237102865368,1.5232367172076715,-4.43144885751405,-0.6994502582556938,0.7370651635593675,-1.7744868979260797,6.454777629965887,16.416205028861093,14.102585521105826,12.304072181844214,15.92663505855069,12.811081161972716,10.838061993656229,19.00288629866037,20.45421350382678,11.535740796575153,9.815655647225405,12.493392868681848,10.900361362611045,16.703702471470024,27.6436772635026,25.36395483192058,17.791193536100486,20.28841451941589,23.30297210368527,24.923125948967822,38.99640300389817,56.26261972215666,62.43240678348175,71.02698793509877,87.18512422470631,95.56172195715048,101.01879924953556,112.89401644824477,115.00846904933027,104.0306352713913,99.00212650514484,97.06098871652884,86.53948444813113,77.8158278989292,71.68430616601685,53.21282957211947,31.94802749762485,23.51606632280353,16.18681727842369,5.413273404631818,4.400914912933549,4.713330386349477,-6.369179913820534,-15.109158826983677,-16.787933816472762,-25.027071486864212,-33.750731142543735,-33.639100974452084,-39.24109425021356,-52.354453645668265,-53.95518956112366,-47.789412104500265,-48.20610077543994,-48.27099815889098,-48.748972370620336,-62.797777518153964,-76.77091286851206,-73.4116492890766,-67.89416582887885,-70.00688853809905,-68.3684683092276,-67.53179400795685,-74.78953783545526,-74.28552756287161,-63.734683967815215,-62.30709787541034,-66.1039397059388,-61.25249401929361,-58.03539801145709,-60.98889244294119,-57.65276263325889,-53.50352285266409,-56.99973029407083,-53.0912184028427,-38.561651781657886,-32.04950334727093,-33.15841581195372,-31.53976370075674,-35.40401764795263,-43.912178777175356,-41.40218668199934,-35.26478941348252,-39.00632403670287,-40.06414630980764,-32.56487295297214,-29.933523144222928,-28.186734297940294,-18.43345927507312,-14.769515687048672,-20.88151747182395,-19.52163516511661,-12.779862376395574,-11.368267506015613,-4.648717596020504,8.549461007757344,10.845346293480924,6.897397552828735,9.819048027848092,8.843224015750074,1.2734610452720783,2.923577326469135,9.103227355546846,8.091490724816035,10.141276137573351,15.949479599889287,10.708297107293347,3.413176862379372,8.658458265180391,13.068587647823392,8.965843057627907,9.654212005687,13.742728688698946,14.67483918019136,24.786077943328074,42.046772586987494,43.82692553738967,33.09732352629839,28.728874987807394,26.59302445904518,23.262245227979086,29.76008403526654,37.08253094915891,30.9068771091831,25.2241659006932,28.558625116557195,26.929233083917282,22.546462817349063,25.770254075384216,25.305665443687868,17.527937963507448,17.916950735112863,22.735868173461196,19.35927773211132,18.680791770529627,25.525290975519773,24.664957562078698,19.07903849307772,20.02330870604495,17.257737790851014,10.208070258163447,15.897443807545844,26.883369327738638,26.542356030436512,24.725323580822213,26.97450811109653,21.890478036760747,16.93017109522134,23.329914559604216,26.213046610259013,18.749924470007322,15.808600772790257,14.917153102320786,5.773815970665248,0.6807673347251585,3.7574900021677147,-0.16831236191494714,-5.56803213365698,0.9232092910854957,6.842182390572226,5.416202635631247,9.651764933381818,14.178416447160338,7.84389160125577,5.546376218827823,12.749287172164236,12.013008204438187,7.359656840981014,12.068607206968037,12.849918529593985,4.725088962004421,5.522391701909768,12.106409911589454,10.744892381970324,11.45411408077237,17.076103885917707,11.248896288465586,0.18517384808968895,0.6541350751320909,1.9339262021378447,-4.387474269234989,-4.7606889991371775,-1.1044725449136796,-4.78399287898175,-4.9771856094461,2.1663254512784316,-0.16471379217766513,-8.416613656636803,-7.176122134107013,-5.428142904900003,-9.683743495976026,-7.2260380153190304,-1.7641589455612083,-4.635704692259639,-4.16901799187759,3.680044715021319,1.8333593460001505,-6.956156556390297,-8.077758840295832,-9.555969944749451,-15.292739737634992,-11.27314624075018,-3.788769707572385,-9.509799346678882,-18.78034386510323,-21.5730716390878,-25.257654120256852,-22.11633908624056,-1.2918620123508733,18.771829708285292,23.849490676781144,25.909862714812572,26.976377931902014,20.96682752416369,19.902442405326223,26.111200303742233,22.820364665635964,15.325025395015768,18.638656394089118,21.46904709986405,16.91050049782468,17.77512942902747,19.32521588708118,10.03524931120386,1.6239634299260959,-1.466950556604877,-12.760675270623011,-25.339498249560418,-24.737232575866805,-22.64222393030088,-26.96336438144132,-25.12305819852451,-20.078440088460727,-23.25719423816384,-24.043699737543854,-17.450622177891944,-18.19004382613865,-23.5108285300583,-21.276916932848486,-21.485017762514072,-27.229824464123972,-22.01778129538235,-11.28814759337116,-12.15786392280898,-15.893994601468306,-15.258130178567502,-20.77677521629234,-26.208457692511182,-20.283222761209863,-17.58253777570506,-24.465589372315396,-23.59844692532675,-17.770827382641404,-22.20866252103891,-26.51923902914771,-23.124881040762876,-24.94287023263881,-27.467786379585036,-18.451876258023468,-11.56627219853106,-14.368040284457908,-11.160939309155061,-4.974505189151136,-10.841281870516573,-17.061091341392398,-12.940410435627317,-10.859026528971507,-9.604137459338986,0.6915888367852823,6.321811725983794,0.22273623076561933,-0.4416504944031341,4.328797268806618,1.1118838751962015,-1.328899034116375,2.565854910930592,-1.8590217037517756,-11.127443929708134,-10.38298545541955,-8.565197324006208,-10.607714536946109,-1.517281188893711,12.349811173050602,12.097248650998491,7.066721696331069,7.412176932056774,2.395644094062822,-3.0615446417239207,4.155124569491738,10.035798984892718,4.776574782888705,4.346620551476705,9.250554789528184,6.219120319330214,4.150740334415779,9.095268377384473,5.919078704858493,-2.910450935455745,-2.3832610328948727,-1.234187695869154,-5.0024551313030265,1.359118553694838,13.206440641834602,14.096438633675985,13.605077134705423,18.88678490513456,15.733043667900084,7.353748600125303,7.550343555282367,6.36778270202099,-0.48673066235993234,4.121689283158272,15.72531111707418,15.306499570378312,10.413345133463906,10.219139044812733,4.352763649939513,-2.6246312609560714,1.8202421502399981,4.785193458920709,-2.2423217748008915,-2.9381601760645575,3.5233871731953483,4.0702788914166455,7.365305844458766,18.2018118487123,19.337359309751598,11.85276208440234,10.91854585702686,9.431426408753353,3.2820043227715985,7.625162282394665,17.31995743886579,14.733174477177133,8.849006636062988,8.555408065725059,1.6582025997175784,-8.382618881025756,-8.164335765721116,-7.776164401664309,-12.142284525533524,-5.830196697266348,6.036888973686837,6.3202372728014655,3.5529679554183726,5.633423977473654,1.781397897981991,-2.484232930229825,5.4141924063739815,11.666677623147425,7.170124886284274,6.83587767788187,9.533813279484548,2.6426793367813706,-2.758095060742535,0.26669940599838116,-3.3934450734475647,-10.88182849035201,-7.329105099005368,-1.6749300435105148,-0.31628572755737283,9.464393469280951,22.27214324537701,23.410309870256793,24.484346606142307,34.191542246352824,39.148877519526295,42.2436652124083,56.3334566715847,70.03543771506077,75.38430830940929,84.32823809072083,91.29391467809175,82.46379610381362,71.39019882518632,68.27332253263441,58.83891234317166,44.20165033955186,38.23259736300788,32.5501267012722,21.819288349296748,20.355839648882565,22.77141195426165,11.41907841472051,-3.7569684661962706,-11.53118241181284,-23.008509160460555,-35.26101827714778,-34.865993461239476,-34.111480906972844,-43.23307683064722,-48.52345446917498,-50.925167204508824,-62.49694850479956,-71.59972115402748,-70.23413675449459,-73.62037579791573,-81.37305932391969,-79.88877736063037,-77.42528289987706,-80.71425848782864,-76.4188339144617,-67.37337100774877,-68.48167708592216,-70.62221929593504,-65.63249182043538,-67.4437614633521,-74.6587257462271,-73.13453838256235,-71.60143940676126,-76.85667777700407,-74.42066958030244,-66.40921516011429,-67.5784052942885,-68.61583303825066,-61.3082264283044,-59.681876771062534,-62.77281799418324,-57.124818173002076,-52.30724644821793,-55.22802252670803,-49.7668958967064,-36.76143196492623,-32.26251530166619,-29.12198261597726,-19.91971658848636,-18.577299924512094,-23.56411839696927,-19.984577412931703,-16.35942675609477,-19.87294700722949,-15.106665478150127,-3.476250836283298,-1.6483145891426958,-2.6772974056359167,2.1545795032664685,1.009960352882723,-3.8381124943127096,2.0659271357639173,9.09644104800404,7.726214687216548,11.847732606289643,21.029018354318648,20.232418474518518,17.23831236467432,20.663698876113244,17.683995296918223,9.90588877489938,13.20770777024416,20.467112082019366,21.727659700433236,27.371238233472038,34.772071501444415,29.51827970935137,22.07023452055345,24.681877227793585,25.633281057191716,22.917432010524795,26.64927535098784,27.445169179531263,19.903334405622253,21.73585109871789,33.733073310938835,38.72562438751224,40.0870625931933,43.99425993769531,39.828148876005805,32.769395695428535,38.21844770168931,44.924382459494346,40.80919917652133,38.470394579098375,39.39461075575158,32.5450840605027,28.37462049612542,34.752301125802695,35.42841425748086,28.849713040446996,30.099644624895515,33.525608842173476,32.224118762579735,38.858091538093966,49.033385426112176,44.77863466917261,36.070532890310304,36.70530717834871,35.78044726438828,32.248022067475496,37.31317122117339,40.201051788975604,31.814935403279893,27.47384406614014,28.62727845350963,21.890146042876566,16.680101835580857,22.335372653097284,23.969058289826187,19.37952213622615,22.50234597305787,28.01203309174785,28.693572150129796,35.095977034770016,42.62692229504208,34.872012385997515,22.314421238112942,20.298251011143414,20.11812867860736,19.401180474112,26.2774663183759,29.546861681210835,21.390218188438674,17.722668960052033,20.23188407413595,15.283101434293727,11.49140803680147,18.356506061682595,21.547187732002985,17.910880160118246,19.0086296908186,17.32338435093735,7.00601149608376,5.112297083777827,13.138624957111345,14.509857737610336,14.34403752067974,20.62499911510499,19.00929161324565,8.294881605957787,4.44082039526705,2.782166030492406,-4.761822321969751,-5.761432673433945,-1.076271036863949,-5.9849081492604,-11.878064973241303,-7.933785333101002,-8.247615535815797,-15.095737080742317,-14.150944174862698,-12.309130690791573,-17.962646090974243,-17.022639424671393,-8.985548098141216,-8.763345054046619,-9.388359063808227,-1.997230162129699,-0.30205897722111136,-4.935459478358798,0.3384145732238868,8.71393230511375,7.743667160521676,7.578785357227301,8.506474592731301,-2.295584128701857,-13.055407145033785,-9.383505286744352,-4.169232978719758,-3.0527561245318107,2.973127715599347,4.099410122886631,-7.172871317532384,-12.269432981470327,-6.229162569295129,-5.099810881801891,-6.7651090568639525,-5.020117834977463,-12.189682398546648,-25.777525495894103,-28.723405882288816,-28.22608899554742,-34.72447656088482,-35.65045176649779,-30.64275146557205,-35.18399478963072,-42.27033478881095,-40.805308074878596,-42.11103225297748,-47.00730911837386,-42.53195003075419,-37.42418508905746,-40.91453046682353,-37.784958364027815,-26.05303420375438,-22.430563182022365,-23.07596342102017,-19.966597614402453,-24.611009220154422,-33.81294008850518,-30.35453059498498,-23.174127227884348,-25.698866034299403,-27.164099775929028,-25.806626130239447,-33.228696523044434,-39.336440302279954,-32.69677248637924,-27.372175329565756,-27.53190774135671,-19.858080424112117,-11.43272424463961,-13.051501050546312,-11.350406392213996,-3.176973165404757,-2.922478732417269,-5.1146316044895315,-0.9482592653083537,-3.5687293045281443,-13.322750951122497,-13.398320839103945,-9.769189923371767,-13.733824283737496,-13.481287134622562,-7.515289446571723,-9.390097612600776,-11.123003666363756,-3.8179441396743607,-3.078576817289815,-11.367800490683459,-11.545906503607654,-6.066784496136224,-3.1502830963652064,7.3527297374582705,21.506547191671984,20.08792405903815,10.223841845109735,7.218876370648648,3.1063553877457077,-3.249142390400289,-0.023783215918742773,3.7594098766412234,-2.704761740296355,-6.017660166074958,-2.954033101741857,-7.01072273041,-10.954008417455482,-3.565986057947433,2.3419009795269985,2.8413267500957238,10.131189806278261,16.257144671751362,10.816950239508554,7.982656057547397,11.28967700240929,6.5440843120853005,0.6033188286364206,4.793018646658542,6.64339502113908,2.780674967261257,6.116053548879048,10.43431150801857,6.886907178106783,8.748095334637833,17.126520633374774,15.132279613877834,7.40048336739825,6.087196578069845,3.762347312871615,2.001380037070788,12.164568922465872,20.781072677295136,14.489420844958293,8.908018686408795,10.82007414785692,8.405799809231757,6.905790053234679,11.887703542503857,7.594017275304781,-4.114051363724076,-1.9741520361257892,8.676085447279592,12.765597555129354,18.03275128416466,23.46933497885097,13.828289742495649,-0.30271133645381365,-1.9388240921669095,-1.2127643333986031,-1.4708727889546211,9.550785954084962,21.143286781406132,18.480910828835807,13.944618662377437,13.181851805941792,5.132696075644077,-2.131901519525934,1.8096720493943312,3.021614702476267,-1.1112304613603294,4.770894660105727,14.242699627478329,16.31392404308549,23.572000723981752,37.53518028205479,42.319511575221824,43.54236974357194,52.9977707552076,61.67038042135596,69.2561549512856,86.08770274780129,98.17423222028792,91.78204825007687,83.78506789983365,83.68943150706743,81.37349663462942,81.06105332340601,86.20432936110107,80.07141725623289,63.470498390145536,55.1859273803567,48.27683505446117,30.553068845323022,16.89637824394097,12.240469778068487,1.3333852971765037,-11.347204464744117,-16.906710577428917,-29.441661358724225,-50.03683365434253,-59.969181894002865,-63.348249657346905,-72.26776961961485,-75.183233498808,-70.18272583860967,-74.4707644198248,-83.80908273700203,-86.18643750308458,-91.63314830547401,-100.57070062597009,-97.57509570263755,-90.54702810634296,-92.98138250395783,-92.6821658388778,-85.85306183149657,-87.17746331842449,-90.63286870733208,-84.33317279303745,-80.6779347219287,-82.98460350938143,-76.54288102891299,-67.62097279250635,-67.7371751619287,-63.92010717690584,-53.012885864537964,-51.57303584913554,-55.58452074475368,-52.952862658917404,-54.17659429466519,-61.483340094395764,-59.33389461330995,-52.95208292191988,-54.01427974122342,-49.979214511363416,-37.623193655371836,-34.025971173091584,-35.399464423660575,-28.967467482765116,-25.100652275903425,-26.44107714119514,-17.910075946177408,-6.1355699440796885,-4.439604674303011,-1.0665724915372392,7.296641597142701,5.464667022360999,-0.3210588829265917,2.8021676791190258,3.310231583690648,-1.4726694114524914,3.941052551482594,13.009287912257902,12.082722954348709,12.368006710341174,17.931934292309393,15.331247210049138,11.415496213372693,18.50570208560306,23.601766768212485,21.35736365862637,26.394463065042213,34.84142514470259,35.19836825735121,38.157201683298496,46.80451337968903,46.60631454831446,42.88807105565432,47.435048608793245,48.20268910995726,41.52724238494546,42.457367024073584,45.87638706458999,40.75834135107891,39.55208610943987,44.78572802022714,41.46416648700954,36.74698607609695,42.397501574694516,43.84574220805186,36.27203171919332,35.56165110661294,38.63066112999757,36.42084275299661,41.32882075290036,53.27151814281444,52.716081582211444,44.21979324326948,42.834648346160094,39.6061849599242,31.833927508626118,34.1025964757434,39.77356078898281,34.970552528176285,31.401698391416215,34.5344552211159,30.679489618602204,25.978193647013015,32.729526767997655,36.06190718515829,28.590010232426636,26.296075982701478,28.384730119153694,25.543010156318125,29.14370337225359,40.09141123005909,39.705828471286225,32.04141619532041,31.912560173884806,30.113895984075654,22.871066309149935,24.679932410750165,30.240060158173254,26.915299404605662,26.617961421154902,33.500896712503284,31.88035592601222,26.975377282411323,32.699063241618866,37.373166380520736,34.51622198222863,37.05923499841348,39.613588957736035,30.798069461942998,25.103968374747087,29.236954788890497,27.31737642140927,21.45565110941388,22.83775564458994,19.750195518928916,8.0236784390321,3.7332082331239502,4.402644120872033,-0.3280553716105814,0.9760852019667758,10.44191806236587,10.445929950885638,3.555137715671356,2.950348522526993,0.3075055710312502,-8.436183208161616,-9.854055912331768,-6.357485098804144,-8.11748949408264,-4.498479551456535,8.616099338735633,14.926555900376567,15.705429166379107,24.195767727769166,31.90706997358751,32.24829046629411,36.23013257024546,39.35649869450369,30.835086104306598,23.674237584976247,23.892593682056898,15.98279263199873,2.4780229067334227,-3.9507879027143824,-12.692359771922078,-27.271482282346312,-32.71724378378545,-33.217141095086895,-41.391150314635354,-45.860356299998635,-41.39872829096372,-43.466942780167734,-49.10890925971555,-45.311619909077294,-42.77686209145241,-48.296807322852665,-48.77323871594068,-47.2789968575405,-55.12170803418303,-60.39137518464308,-56.894418421374574,-59.8734133653545,-67.02928499611868,-64.50198293383475,-60.91763777088184,-62.00820314741683,-55.28280822625403,-46.15391113391453,-49.07695152803613,-53.34245922323718,-51.10225113176433,-54.83810741313934,-60.14214905654805,-53.65166213631173,-47.29745620314374,-48.86921040781359,-44.68317655690073,-37.941128351641424,-40.88906853659178,-42.37443784503813,-36.82506257502111,-38.10440596100794,-41.50158001681237,-34.2146370247749,-28.773219661713796,-32.32597628318353,-29.947227864770994,-23.06928112834234,-22.447060210855824,-17.73350571013396,-6.991322628273523,-8.039178034943792,-17.111637352065653,-18.36613513273932,-19.26146612440356,-24.024403776828812,-19.246391884933935,-10.480527893850926,-11.897731829837065,-12.409316058260181,-5.2201653329908915,-4.58902023618782,-8.199874289530106,-4.600747944022204,-4.749102857440116,-12.630479097595934,-10.58206031220912,-0.09850023912353834,4.1321616402446235,9.369858562201054,18.59033393774248,15.532550991428344,4.8050438030473215,3.280693516044259,2.858742479527946,-2.284763813537432,1.012860618363615,7.728441424876072,3.7776231667703577,0.4385398666665973,5.417177633695235,4.486654793974779,-0.9599495668007756,1.0750376783842974,1.1370245601168185,-4.797525330674139,-0.8514954744032872,9.66077213182109,11.765894019228973,13.833127557734064,20.463335452378875,17.357748561062195,9.854457905742823,12.98406003448731,16.53141510327468,14.010087156615464,18.027544412139914,22.865025875312472,15.227111294312895,8.133191131633591,10.027417848838935,7.809460561112601,5.2858388325814945,14.118654080182285,20.427951786420323,15.955273668663953,14.967182703909488,15.478196708150135,6.883034732569021,2.244885443183359,8.676221272625362,11.228464374954738,11.144477672863292,19.235567969247125,23.16741903105737,15.618923394183433,11.953282502570142,12.639689234846301,6.9212261540471065,4.814574290878534,11.382845595483332,10.414902406344378,3.44809483811129,5.555102039243546,8.71332444677636,5.946971274661047,10.63348822496382,19.59086649777489,17.72034371981112,14.629778693677757,18.754618597380123,15.848579906820895,7.524380177153892,8.8620547708801,11.374387373258449,8.018073399863514,12.710825980354887,21.374540352296183,17.241734362816175,10.131178878716614,10.719655361436859,7.1751723305907245,1.6051583365709776,6.419747494041912,9.281633308083805,2.7454105535178304,4.270462117071406,12.591004239804574,11.45304265150876,9.404877756751912,13.254809631284852,8.728993175633589,0.9084469145488949,6.423690245278504,13.632123633511908,11.5072556827103,12.898528549304677,17.143838022329334,13.802636806430792,17.14438496571847,36.392087010012645,53.18257626332847,63.82310072018619,80.78880283971831,95.39769130140073,100.00312488126032,106.76809068687935,111.32202574121602,100.38062019580997,87.24925720039808,81.5285806026632,69.18914842632738,51.773639257320184,41.78103614003294,29.579734130530923,10.89297072283032,1.6835863471827013,-2.271421509657369,-16.702895284119954,-31.37550928389875,-38.410105911258434,-50.545144337643514,-63.697617599940216,-65.02557594649437,-67.31896332176869,-79.18920933229984,-84.28508203970198,-80.96985101572191,-82.4664939199098,-82.40962238613947,-76.55435346013451,-78.92534014662922,-85.40147635218895,-80.54735943162582,-74.17415353709491,-75.54539677464291,-71.80130476758227,-64.02173555351041,-65.73267886652891,-68.57453101597085,-65.07760477943646,-67.4329701290607,-72.03228971582902,-64.72699610142504,-56.579354088134494,-57.166001793534676,-52.715777099041226,-44.0002136450742,-45.01397236520984,-46.46756698037758,-39.34619468508097,-36.91011509395188,-37.99912841120937,-29.575565360247836,-23.13464422127757,-26.950391796009498,-23.94246785122632,-13.923393368961126,-12.567792053476314,-11.891997038824858,-4.312702810482493,-3.446709247302285,-5.867566345287611,3.00962484054669,11.058896808330754,8.407664437695086,9.488051645184465,13.492353171152192,7.985421942072825,4.762400872479246,12.04088450542344,13.749030634132136,9.499128777235764,13.157282279383535,16.784060627997086,14.366473425024251,20.412996689259877,31.331308955491764,29.716325984671574,24.268678847762512,26.25354257611308,24.845028282547247,21.67575623091568,29.30946310757597,36.757641849711476,35.12488057826887,38.45781050863438,45.339310244604135,41.043841998765195,34.33950557061916,33.70062289473488,27.121701349457673,18.695359665667606,23.608767050416592,30.756437074379956,29.255477757943147,32.11368171673587,38.65342799579032,35.129672514859664,31.37379226010392,36.40930363131943,36.04281442500087,31.851958529972563,39.78007874219478,49.6135592701941,49.29771857991356,51.73133738864267,57.80835258737127,54.915623162945636,52.627187025531484,58.556358218742226,56.74684464105779,47.25550594424262,45.7851079151431,44.361869007843275,34.53979969587788,31.61077798235895,36.56651105273639,35.44024318485509,36.80544264042639,