1.7077691300988045,13.307112410520627,45.092718529575045,89.28394794287057,120.88187895930028,128.63290231379304,117.24543784328867,92.07663532596985,72.556401602553,77.37320401053954,86.95630361140059,78.7480359756805,68.12003495099805,64.79457338490059,54.784382252173,44.20681524573358,44.56814756353734,39.62444832582386,26.452879780365876,25.614981217250804,29.241399410477356,18.769510109259247,8.847631086815333,8.576643273216597,2.0091748870486486,-6.3697284345204945,-3.526340203145474,-4.395583385938314,-14.35598764838311,-14.777243328725064,-10.727971734930568,-17.496677327557524,-21.882509006761495,-19.00915742747529,-26.29862239298555,-36.971556919895356,-35.89682078966495,-37.58663415446332,-47.17096145544799,-45.87422578863397,-38.8346606436953,-41.61422875194402,-42.04783981570088,-35.98478588143237,-40.33889945689626,-47.671958208225824,-42.78213427857165,-41.025658410467976,-49.0306242737401,-48.75943956437801,-44.65181915401675,-50.45337493847859,-51.852755423064046,-44.08956419326777,-45.8302125879842,-51.71516927743073,-47.24078125062308,-47.16014152712827,-56.60915928404778,-56.31812267881423,-51.01778616700571,-55.71711168698501,-56.98066388754812,-50.05608217779892,-52.640040067368275,-57.94512050418712,-50.806140992651876,-46.542081919751745,-51.55569822488256,-47.65688196406925,-39.83679285489785,-42.836102783247576,-42.87945690421972,-34.894027036811636,-36.73666977936081,-42.13653341736344,-35.90862818588635,-32.74806899051436,-38.45113875692875,-34.8846672899326,-27.358455710698045,-30.485322392823328,-30.817746927059847,-23.902219583149748,-27.24364421339078,-34.03703220683178,-28.528112616835752,-24.165766643562186,-26.47952214376263,-19.01729998281159,-9.125255723978691,-11.879217069629213,-12.40600120977953,-4.91774148324612,-6.943147560192973,-12.754875165983577,-8.52884841127144,-8.61159896345222,-16.837172325153496,-14.477958199357158,-7.898933444944687,-12.22868771126354,-13.25406283427499,-5.639264292739812,-6.5777502423774665,-9.867911581568826,-1.6404304549761997,2.963881160626752,-1.466597794938254,2.8637370834404154,10.073380535627415,5.834033019305988,5.08349787122566,13.5518729200001,12.831806113185952,7.669679545792224,12.071849355811048,11.744974717003132,2.914433335574876,5.543837166963365,13.842018099279764,11.083806090184503,9.647056966662285,14.557945173562462,9.27679323838274,1.4079671099642814,6.711026481998529,10.32834192104715,5.35615329937981,9.241710199287409,17.34811712804068,15.491976413718653,16.637540135087843,24.597689738341646,21.129442961687584,12.767528174963171,16.3851627407839,19.760543454977167,16.921007192454137,23.42602007444764,31.97825772621854,27.01146263272562,22.343652265551114,24.450226375079836,17.714820735426017,9.46511901321776,15.012312857997708,19.552019583816264,15.86557717594966,20.433198172334343,27.666343271889545,23.32852144929621,21.643734702088526,27.874090245603938,24.413576004040436,17.445906214002292,21.973368812659587,23.77415505768483,17.28231128052173,19.96568386039807,25.989653331928956,20.544965032545257,17.132309928346476,21.501363001988807,17.725064804854373,12.381139612914335,19.49675621268034,23.72389808460322,18.61691292293611,21.94481091663113,29.077629139964124,25.809370948110377,25.273518580327647,31.599234814388993,26.88784064153505,17.73425034656441,20.27362114142125,21.544617623505815,15.950592961910798,19.826173135554633,26.159110954614327,19.905753904843536,15.995997177105636,21.041487308942372,18.023679498416456,12.613802385222915,18.8166514537549,21.83660613333712,16.180959194642774,19.21802177114098,24.49829711564206,17.665629847133623,14.298154564724344,20.7239889884163,19.04509094629527,13.849544332196118,18.193714793470512,17.42868941043451,7.640998011984136,8.607914313189516,15.695275267503085,13.442736534286347,13.761407157198292,20.349780125211204,15.223336581701613,5.019560262968743,6.0172668838808185,4.922226185074637,-3.9661055870990953,-3.139356252653611,2.3018747711436665,-1.755685052308237,-1.3742928919799862,7.997031178094685,7.112277678216062,0.8766846563270079,5.053661963577951,6.622162340165902,0.29427537712241714,3.318046176643545,9.209780964879803,3.245965271187935,0.15660019063226555,5.648954083330818,2.108222937669628,-5.140746883451944,-1.6580984326146027,-0.6693740361687472,-6.895905527667732,-3.238402127128977,3.9043145840299327,-0.29426459104055924,-2.0336939096267415,3.7631077757587836,-0.1226151284800312,-7.528810221978509,-3.8240081468633327,-2.6464103179933316,-8.953796900819647,-5.497706698975122,2.007711599477853,-0.6066294844034998,0.09709856985713805,7.822326727825823,3.9211358230280853,-5.358552058955075,-3.7804443652699833,-3.71745783801455,-9.856838362098554,-5.570099645860859,1.6232763339819347,-3.916484309900253,-7.52798321309246,-2.338377090500207,-4.854807662518554,-9.072051800735077,-1.1248899041096765,3.015909936313073,-3.513010642327943,-2.6167990419515053,1.9719435362641724,-2.7933177118125894,-2.8029303261207317,6.214270816154139,5.162890870569751,-1.3475468236302954,1.2391154297783373,0.00114442206223353,-8.849007802403609,-6.9147026507310265,-0.02806112659966109,-3.356471444907564,-3.727201879637894,3.635346497387487,1.5717229694874602,-3.5985207531985153,2.63515965181341,5.72300059652019,-0.38822641663704927,1.5146372046898628,6.286308222383205,0.34808163190947905,-1.6966503251428464,4.860990736640645,1.3192612183905323,-6.522442403692107,-2.6404228479326504,0.6452641735180119,-1.8386335734898616,5.138194501819487,13.420749134266464,7.771331153188095,2.6124199660141576,4.432995455606975,-2.8751080053284106,-12.798698221651977,-10.046014187541566,-7.773219494123149,-11.908613869101012,-7.10348591973456,-0.2729298897444905,-5.184359650046935,-7.036359532401393,-0.6522751097846036,-3.5327921122114336,-9.90275181969002,-5.740530962182886,-5.065706425708177,-12.668330668375468,-11.054427772294524,-5.6511095255484385,-9.700625484270684,-8.710019772715288,0.8801060353469046,-0.6091518525315056,-7.965158609751751,-5.915772039742656,-6.937700293150674,-14.887145457556638,-12.423766427708482,-5.9845990746366295,-10.076568331476269,-10.741996890245874,-2.809305029211559,-4.212046157851065,-10.658024872470524,-8.077017156836806,-8.762488863641133,-16.31434994777412,-12.675663644376836,-4.2376655740976865,-7.150981654174123,-8.317637882059383,-2.215248431926228,-5.771070196166278,-12.793837998654883,-9.048101461640815,-8.969804083194457,-17.2055767213817,-15.250096790811956,-8.606852389559393,-11.974120463078481,-11.86937776849587,-4.0410290743495,-6.458300518562672,-13.054350178749306,-9.136943637492628,-8.533957948790754,-16.199664052703366,-14.55328086459243,-9.116273848223072,-14.153282821639886,-15.822611887498509,-8.922264357296466,-10.890176131529408,-16.04055135583645,-9.805224064982198,-6.547931887595819,-12.305373417654627,-9.619045449368983,-3.9077176289274203,-9.488800388994719,-12.14489092440874,-6.869142506220305,-11.16041049178177,-18.552395428300006,-14.201439448694597,-11.81213314867618,-16.091137552205996,-9.69932659110565,0.7990642151635279,-0.5294179232415686,-1.4213938821337622,3.1313299325124917,-2.8219574667576417,-11.535119120901967,-7.089910988960129,-3.525699178061811,-7.316256900748916,-2.047503308670555,5.818012138206402,1.1734719245518233,-1.8130227091961992,3.10936631432034,-0.7909351568479464,-7.766848988378409,-3.8624288597710907,-3.3408053150603476,-10.50697804233198,-6.441500720192356,2.8823118996205777,-5.668323627144069,-33.43622385652446,-67.00923696352541,-93.00927639739247,-100.47369703801158,-84.12215894960592,-54.984730549223755,-41.7385273689524,-51.254166151451216,-52.24095443954769,-28.534357675048298,2.3292230123397157,32.45595646274431,59.961393400061645,64.80789093899922,47.815864241743284,38.819549228895355,39.97508676743429,35.1449015118121,34.01139045645543,41.23343993483418,40.194299277076006,36.23245495542018,43.13015706801663,46.05920412515799,38.641634889480564,38.495575534158846,42.026913110166504,36.491191678690384,34.556991165595036,39.27205113006309,33.83196747119827,25.94821702151362,29.885991643492467,30.475994641064815,22.569368174972553,24.1668153550111,29.767447029723964,24.77574784742864,22.059108580381412,25.952370647773858,20.143333510674008,11.788839647236728,15.159483295106199,16.684763903096844,12.072158088219823,17.488606605215644,24.87317229310205,18.617615329865863,12.62859374334462,13.774711681205694,7.722836451931703,1.6448292219837364,8.207425203492736,10.992222734278947,4.481657921085723,7.564839757939177,15.606079547831158,14.38632838303192,16.48705231545791,24.289717523772698,19.261212575750882,8.714309446953107,9.233023880675715,8.468257167069122,1.5732831587030618,4.8273120763208155,11.27300621033012,6.41418143541409,4.305301136124723,10.117750286294338,6.648017221569782,-1.0179643419049564,0.8018695795432684,-0.669291432488116,-9.189686307031742,-7.505677607130838,-1.7451837088286486,-6.249854859219436,-7.572636786702727,-0.8035294828399699,-2.8683041310326924,-8.548085065150559,-4.688980105072794,-5.205028252553495,-14.30383943701327,-13.776370422254416,-8.978609190229975,-14.128176121682586,-15.527363736040785,-8.599008920890684,-10.631945516442523,-15.577200516473477,-9.55669030158708,-6.727142780921856,-12.14510374926922,-9.001285021838855,-3.4192137838707928,-9.032393642129682,-11.111681825235356,-4.306740030449967,-5.861879078597836,-10.421342715271075,-4.998906580805133,-4.151387672337738,-12.159814689472684,-10.68047053100855,-4.684425023820653,-7.87913687989373,-7.0876111064687395,1.0437981090369028,-1.8014318587078062,-9.489907982714373,-6.511972909055785,-5.603530331030569,-11.76344634586736,-9.004210860425061,-4.480657166911186,-11.753346012771274,-14.811472390221207,-7.626309877975201,-8.451475120929668,-13.794024123132747,-11.201007172547165,-13.130462654959704,-20.950387405221257,-15.425941729620021,-3.4323255675366036,-2.04194098779534,-0.0947314645158035,6.737800527703498,2.5654035236810513,-5.169131966750761,-1.954699274067562,-2.2250600409884935,-10.826213265881027,-9.999512401288122,-5.693212541034779,-12.116730962202537,-15.15205968850838,-9.766845182881816,-12.993628283764362,-18.87293893324076,-13.50783252664998,-10.806964352812246,-15.530745925014564,-10.893299266750102,-3.44006132978061,-7.209653862810713,-7.848223059945106,-0.07770537267120226,-0.7787233614741194,-4.665747505933237,0.8100169848482088,1.4515673388645656,-6.374720255730361,-5.112749962849338,-1.587888639682292,-10.193785861664477,-16.006454337490297,-12.483953642239435,-15.81903729779385,-20.42246505007978,-13.434457415267747,-10.28508502891614,-16.19568158643133,-12.600907773923897,-4.629317099929141,-6.961440062049815,-5.916883961166521,3.602629746569331,3.9568297548693128,0.2551646104663281,6.1291069678138825,7.520383584825424,-0.09918010586512427,1.4330966492139325,6.389171948830801,-0.3924237232201153,-5.693346863288209,-4.183987803705309,-11.567216802386415,-19.780406108629137,-13.989149448711135,-9.279079785124406,-11.628094722339812,-4.662902281543808,4.54101098754814,1.2701417709882723,-0.3064797156803001,5.484837145652238,2.4724050903680967,-2.7562534962229037,3.5055909380955863,6.171329933616279,0.02602284293692847,3.323663280050683,10.793915224150437,7.769693440699917,7.081154679055555,12.30186554209196,6.067047231849645,-3.844812821258446,-1.3580769040169893,0.6459177283663392,-2.7830813628656994,3.9483754602684793,12.931629087390924,9.099969175676428,6.806367738706917,12.239863568623862,9.086772646361377,3.6140724827822286,9.901397285259444,13.738159487325628,6.123262424221134,-7.36522079165313,-34.171020080419886,-67.84496455531266,-81.57364750002111,-74.02256448279431,-60.10777052847082,-40.193877791235614,-16.795257281694543,0.489435152192911,14.70645233475934,29.137701878427315,29.4683815319564,14.876458198010646,8.756807085790099,11.658614045272612,9.003043214491665,11.387849863553607,22.118718012326376,25.6322512004914,26.492344793385286,30.098362146732665,24.627260273054937,17.9099016149353,24.771532205323815,30.859993020400758,27.128748389711696,27.778396648239784,30.208703147167903,25.51065075410227,27.224698665536536,35.45600654528733,31.023492478275884,21.951791623935918,24.02153043400144,23.062478049102985,14.356416947683048,16.24605780652458,22.457086826773164,16.822490552400986,12.317214765306847,15.130539001258155,9.899560896859745,3.4246786832687293,9.323523475043409,12.273935801286886,6.610876664408432,9.837900467510876,16.357824157509597,12.418873115285933,12.524209136111487,21.440642287658466,20.59970155398452,14.331046493129342,16.0908650328805,12.636941838054472,1.2093055994517572,1.4973389142360884,7.96441407886278,4.567615827820208,3.634458376808728,10.09646471305949,7.394150219687082,1.8250517104237498,7.075208167153775,8.4029160616071,0.8075296650716641,2.2156662287712923,7.694750336065952,3.3764642073104687,1.878814608175407,6.481968219392055,-0.5498874883997322,-12.843632126392126,-14.614761620340982,-16.770145105279983,-21.623702430560453,-12.094518339997343,1.1961437224754743,-3.1741554246812074,-12.753953067148638,-15.274558172361512,-20.198421295331528,-19.65436661078585,-4.2330025698073115,2.8724718788997357,-7.581637207181077,-12.047438529179555,-8.442909776907722,-10.953341935572686,-10.625787985621422,-4.809603233395967,-8.78524724832108,-14.036077305386554,-7.083494229457132,-5.023404631616862,-14.215814075538198,-15.55898689839795,-11.586454664196424,-15.218748350936822,-15.447662659688167,-9.990053194347087,-14.069057733295455,-18.741400892555635,-10.358728003740376,-5.565825649350917,-10.914239031915816,-8.229968950184517,-1.1539247779069262,-2.57943170803802,0.3643232987715168,9.997853789033513,7.889819801118115,1.3583691947972993,5.689579229507349,6.557899134114539,-0.8544403979214916,1.6197705994593685,8.79371710712012,6.726993109740937,7.890661644821119,14.441214344237377,8.77550295176739,0.057362129123526895,5.205434228132405,9.652022054933438,6.249818204066985,10.356996094526389,15.48850136706346,9.663829652562166,9.338881257714796,18.367044297446686,16.897396411920347,10.45255835855752,13.791632471764688,13.608183374737916,6.765912472152495,11.20532435869435,19.259087855135125,15.179881999633409,11.874150710196464,14.036835894797212,6.627302940314156,-1.8827748094012056,2.9611651979886138,5.978084639786655,0.5041490966793716,2.752369913884536,7.848677352517527,3.310880288233362,2.9701491420397024,10.485896133591199,8.204246916498732,2.8402823015374152,9.091756245793201,12.59554075659912,7.677721734510846,10.433554755563947,14.37239639070445,6.755943928550745,2.6237724728960314,6.119906456620548,0.2229312128675871,-6.435274094790189,2.3935520934943844,11.499768363017903,12.474320214873218,19.236935415301062,24.48112791847336,16.252396370291407,12.70966607684443,19.999427674916696,18.56929662568477,12.683515632102935,16.46890546498699,16.47403391242753,8.59159782641476,10.277448492750505,14.940718742059317,8.050787972323366,3.371371975531808,5.421477327980447,-2.656486398148849,-13.500352954540073,-11.950588361630142,-11.899558514728598,-18.22568317584185,-13.824343277780233,-5.40845445631275,-7.777531580716714,-7.689591161791414,-1.5488527565975405,-6.772682182222673,-15.387888463461609,-11.45765312217224,-8.890811109049455,-13.312712087128938,-8.99902402288947,-3.6515294445446775,-11.059399381571078,-15.371876950640594,-10.73090742756677,-14.133696374096056,-19.958814278025052,-15.947774315663986,-16.992568043753668,-25.773580491349865,-22.97104172589109,-14.635475277414624,-15.703655226997054,-14.258694471152676,-7.7858987178460035,-13.248811532894585,-22.741048560935965,-20.716311158564565,-20.007129431997416,-24.816375844383106,-18.740244248431406,-9.65369090723594,-13.141778422504077,-15.815696925370672,-12.44612308711158,-18.959674413054948,-28.22572525140893,-25.729977446852885,-25.29638946875719,-31.6379182920189,-27.307630896387934,-18.392247060944886,-19.636731849564732,-18.024675068684683,-9.532472797418878,-11.13955007555583,-16.00028104150577,-10.223295370107005,-8.720830714309844,-16.46713888939079,-15.411767476860767,-10.514867471643798,-14.859848356098832,-14.260772169053972,-5.438448786986101,-7.273497685489349,-13.343243165293039,-8.75838523847742,-8.15904795209931,-16.674146241800347,-15.985674617910181,-11.089065474610702,-15.385630533849046,-14.773064926466775,-6.119461891282257,-8.320901893272401,-14.67083939259111,-10.01069909184439,-8.332202013672186,-14.369330340438403,-11.114801555478735,-5.2936930219278135,-10.450414521305206,-11.629361440416792,-4.537452331596351,-6.825151889463999,-11.661298700863542,-5.121694256676085,-2.552844060102573,-9.100112224955874,-7.1751701631988585,-2.82363800715923,-8.855649819202766,-9.39043376258856,-0.5473031007614155,-1.6286794350690024,-6.900404990791122,-2.6000395913913588,-2.748613441508436,-10.306760362325972,-7.160579514860813,-0.4114363263255676,-4.238174636209251,-4.0926508594526165,3.881076137531428,1.386597814646276,-5.383797946011791,-2.2093905957386974,-2.549778996852435,-9.72659956553427,-6.432475144036311,0.00044130725914692803,-4.179833360247625,-3.8742774490634977,5.032773732328053,4.375796910958402,0.44093326242516473,6.915785700115514,9.554571903293976,5.15735747514387,11.094818514580922,18.745371238501132,13.052645604471513,9.211446410905538,12.831782664381851,7.831479932716746,1.7749089909651126,8.421367597576133,12.02995261736275,6.89013903488098,10.209993944439848,15.639533983493521,9.329085641256722,6.486714063234606,12.363314323279981,9.502297259570307,3.908457715138132,9.015331923917397,10.465549780760703,4.467231387216774,8.92570459479538,17.073232553404804,13.801469864516104,12.503208346763305,17.6722946481519,12.783370094757206,5.788845792359885,11.557013858621499,15.087411095095248,10.895074632037591,15.744038606262082,22.578628251771196,17.044118201785878,13.424193563521722,16.72756257005149,11.06093164484821,4.124838618534477,9.557261399565073,11.596711164556673,4.7429589909018155,6.609638672177472,11.94634133064327,7.973316941165773,8.714740173197061,16.734435423095594,14.151397099909083,9.315522091239455,16.460008050253183,19.659180400880253,15.589998241350784,24.17663348488931,39.70602636037747,48.56499960081641,63.670393483585826,85.25929276200293,93.78804791658379,96.8454325295246,108.47261752262321,112.14980352061654,102.19158247221603,97.63536001031085,94.95967738470725,82.57989420035486,75.30329461062888,75.13070613452739,62.25060756353048,44.680070266737125,39.64477553969952,33.73465702137762,21.217014759818877,17.389055960079975,14.5848484107341,0.4553737091631609,-7.381950501067488,-3.8271190177821093,-9.368059263125478,-20.274648668521163,-22.862075175457036,-30.090399354416405,-43.487707104075646,-43.68312284697254,-38.410536349945964,-43.43655683574743,-45.06687962049668,-40.3280557631782,-47.94132993016357,-60.22620585136978,-61.23161175455323,-64.17916464471,-72.72804667744886,-69.8701692005888,-63.684832969609666,-68.91064725496022,-70.42879967101173,-63.091876519563655,-65.32357328023392,-72.40655544690263,-70.37326242024746,-71.98526063875185,-80.12264823786988,-76.18988662840839,-67.1825452241742,-69.43561430949022,-69.27733404383748,-61.207499208458884,-62.1930407158029,-65.23573783981558,-56.47064086935468,-51.440538003994234,-54.51036740400106,-47.49993842492763,-37.70771567708411,-40.45881720892095,-41.12976090010978,-33.8432705397055,-35.28909127527668,-39.490597494353786,-33.206331931856695,-30.822385692953848,-35.907075204925064,-30.29616415521111,-21.015667929643918,-23.098043170195485,-22.393563135822458,-13.861935624558097,-14.181136899408392,-16.874383194231246,-9.099482884969065,-6.000910148344394,-11.136543025947951,-6.104792948494952,2.1920330739010554,-0.7249029002739724,-0.13529234273883373,8.382997356704799,6.85486414448922,1.6787864703684146,6.610083017090064,7.260842783600966,0.34121222050665434,3.880272620596527,11.21390487558891,8.447829229498755,8.997779197203249,15.557535245165438,11.10859356188875,4.351915869554055,9.609482926914856,11.715336715808922,6.233521621735869,9.555779555728952,14.611446967470508,9.31968789714349,9.339633047782844,18.073596490483347,17.040939827121775,13.232087748840453,20.178289142997617,21.25671973033913,11.935796893762632,11.241103440093127,13.148977166580451,5.214880716702769,3.920006727576672,12.658911989830438,12.203098292018488,9.360731346885853,17.561107086361805,20.631762574192056,14.322625135568636,17.30454420191156,23.444257981338115,19.567866256240613,20.913171484373425,30.494654985675993,28.341316187379327,20.4035991983808,22.740121625429783,24.18787915583958,21.94737632686727,31.024805391294613,40.499405532528506,34.41000436194042,28.454838449315435,30.13018262818982,24.813772177147563,18.96614398027318,24.256050775165896,25.66557692731206,20.056808109262917,24.67589719602347,31.44147300601595,25.837756637009768,22.950712541611146,28.844277359062016,27.760368818231314,25.549930391283755,33.546573425266004,35.47443511815052,27.05141540490758,27.363430446153593,31.057041184731276,23.34513710662641,17.355036542827104,17.937436917546815,9.701995466644991,1.0361401561380448,5.673323378398607,7.2040216079058865,0.012647033756505888,1.6613672483802977,6.198958850614115,0.9911379965424358,1.0324806376075657,9.52570136157263,8.328247398764656,3.9557389982483198,9.701799252160118,10.826229416167013,3.289882268630309,4.822204015810588,9.62424122050365,4.878008361800151,5.274481013737847,14.359227804315422,13.037048034735747,6.282790787297621,8.276971760975199,6.822922110494773,-0.1629394532060653,4.914537019516145,13.676176678074814,10.855248999319011,11.012743965058625,19.282325633118706,19.18435763178509,16.826567802769745,23.663910026278,24.196952075334924,15.975055542695452,18.563574553517654,26.000606968452107,23.74447408459039,24.35950172334019,29.906864009422286,22.83376507395881,12.38341577102992,15.011493298815363,16.58385875438668,11.657660154300311,15.63063604220724,19.864414214371784,11.513650660143384,8.707976653420788,17.462389739651865,18.74990762571436,16.407680434451372,21.831192410248477,20.038886728981907,9.418540838867191,10.609909586756961,17.460096606128154,14.551297073630327,14.604251940518143,20.47910720722753,14.832979352186683,5.994814494501086,8.720801905187162,8.083652891663977,-0.7492082394785582,-0.6512540043988087,2.648311909864594,-3.1596303429836,-3.6812340485118122,4.393221615570448,2.7428779609077067,-3.7893894666015067,-1.9770595949781509,-4.007831671530097,-11.83224465023815,-7.229922371431214,2.9920126386586934,2.7173818001663874,3.1680261678285446,7.950900122536887,1.3834327052767366,-8.457251786178942,-7.163992567811479,-9.214009124208038,-18.7955828082088,-17.33189379410995,-10.775697526420188,-14.066943253857456,-13.687329475111154,-5.735575412408222,-7.904684570561681,-12.808166980295601,-6.47385974389212,-4.9872815324099955,-12.869591280967999,-11.415485019407633,-6.646270061046165,-12.199831884675847,-13.977096333301068,-8.309779162372168,-12.222724884252353,-18.731209102423524,-14.492518210902341,-14.910386241651803,-24.91478967599622,-26.34360104404769,-23.887978134068863,-29.81128849068067,-29.703614201574183,-20.78796865124125,-21.551258471993314,-25.66926418142984,-20.15179018394634,-19.85712512559278,-27.77826887447683,-25.36811807882227,-18.746558985077492,-21.24492995754305,-19.568639808194163,-11.644609388054842,-15.0226122407907,-21.585174660839332,-16.855541961209305,-15.9233822885732,-23.382732906694244,-21.229969714853254,-15.541873449996906,-19.934083833831156,-20.478103950487693,-14.877330562147478,-21.901189984083185,-33.430523368840696,-32.76356196484181,-32.47691706040301,-36.533236932455644,-28.894290452331106,-18.263031877496697,-19.3106354528881,-17.472862191211775,-9.058587347391011,-12.181201973574828,-20.0429008721868,-17.869424591912598,-18.32460242997535,-23.67555549570011,-16.718108068510446,-6.99272508901048,-10.61644584132525,-13.029734463961912,-9.203140223519707,-14.988153974356795,-21.493618490319385,-15.025579531045242,-12.046237067532259,-17.788646556335184,-15.492165460827662,-11.84535442925359,-18.746699967493758,-20.30108102613628,-13.19106049953983,-15.728246095975065,-21.162476608899535,-15.74033178195948,-13.529414653311841,-18.133593410764583,-13.055563984131501,-6.271505434349862,-11.304827579538843,-12.613891120714776,-5.669982082836057,-7.979266645853665,-13.011591632092587,-7.784958036872888,-7.389619803568143,-15.277497125011404,-13.002467821782094,-6.81203746267045,-10.6858946601868,-11.040492804707593,-4.6252912153311865,-8.944979986365627,-16.51188713987213,-12.25664612723562,-9.763225203394907,-13.190578453961656,-5.888626655130912,4.2428722818263545,2.7397040191884328,3.9900690188653076,11.773343498488305,8.812233063665657,2.5841778313061203,6.618369524663424,6.083319143890311,-1.9637516441106948,1.0184439474481577,8.385247267537487,6.132185161038601,7.587894505810502,14.90353330048364,10.48214384504416,3.351443205011332,9.118921164285773,12.963336140812217,9.20505714595193,13.483106048212193,18.60110042607986,12.686415142121668,12.215773163807937,20.80890622752478,19.50432485622501,14.004510417798727,17.250403963490303,15.303045770754299,5.619004695393213,5.931548645379147,9.699944986105468,4.3255734473035465,4.514048196887098,13.220984919252087,11.863320551354722,6.269065183023175,9.897581312123952,9.627287636804176,3.4213733634307917,8.776199546739267,17.23848284992738,14.061335137451847,13.701841755337135,20.39657092760411,17.61549114099083,12.854156107009896,18.71578708545928,19.072778604609375,10.440857311332877,11.943418523150973,17.33987560552509,12.770332135759904,11.902086365375187,17.291115444554947,12.13915409811921,5.9241753111226725,13.495707584884432,19.0995764157028,17.263237031801808,24.12997142406083,32.527372884918165,30.807280748628614,34.73065587921904,46.86072253485653,49.58893164308603,51.42946065765514,67.4985801899023,83.35525218019589,92.5352528166531,108.13326528438951,119.4926358449877,111.95104027342728,102.53370297682036,98.15964632848045,83.1177820804138,65.37150253792649,58.66464299486739,48.5529931417683,32.279686170925295,27.435321846927557,26.420787724407184,15.41744274219646,8.002978156877946,6.615396619393371,-5.238628460134889,-18.2353395706927,-18.39157251801735,-21.374397832102353,-31.545390135534365,-32.62664856264425,-32.483739235047494,-43.29610287052794,-48.99693311703742,-45.58779400165852,-50.065458433738854,-55.74071409695583,-51.16684336417312,-53.04724815481299,-64.92181255822871,-66.931812473097,-63.29966179904447,-66.80791865942648,-65.59492560810033,-60.06255146300744,-68.71585189090165,-81.82344584630518,-82.17717558421978,-81.5739173079568,-83.34291431716676,-73.351076183365,-62.47019804990124,-64.71022335327066,-64.10517138373996,-56.4984120170967,-58.94234634262879,-64.22898853983527,-59.36004959812276,-58.06688078394012,-62.53198708423932,-56.667774302925096,-50.08170798807299,-56.35838041822022,-58.81123706476997,-51.86208815454091,-52.80052770491449,-56.08032164795911,-49.2629462986426,-46.260087309208814,-49.10928165003571,-40.3760867345912,-29.064243008355923,-29.5983772354422,-26.66302004663097,-16.190531153225855,-15.56977999995176,-17.71038175503419,-9.546223484516059,-6.156760816574611,-10.769744015940656,-5.942946202344013,0.6268025821998702,-3.1595203665617015,-0.580546169823912,10.50159444895013,9.353671580926463,2.1434807446614728,3.406844062500017,0.382880330104046,-7.783806005924012,-2.5685871882992615,6.936959069212033,5.589782506026545,8.274196392286534,17.968572370990874,15.82368206856826,9.506865130040044,14.425143533998687,16.649730339294017,12.067430852109542,16.977273564577104,22.31487083797047,14.59514617566645,12.096906823221767,20.36175805585793,20.0650151838806,16.800815596133816,23.22811938633402,24.07639937281633,17.040928404587586,20.88020662643885,28.03596991704033,24.224308870767018,23.87549161740098,30.486457705095027,26.55858240020727,19.687515807132506,24.086709578104273,25.61387102660458,20.555891447787747,25.325354151124156,32.73582193254384,30.34694333267605,32.20399021182049,40.08404907305917,36.020036398855886,27.841149134666093,30.3339475952282,30.610091604894045,25.495921069294305,30.33717794321438,36.02015641463228,29.370994119562997,26.53073683227072,31.963438086035755,27.901224453486375,20.19101448626178,21.48687744095152,18.104638187553892,8.513998969268558,11.172861626724899,17.88529317047677,13.829973540765634,13.445673657777059,20.454964748821645,18.615181333002383,15.83003282946312,23.203097144511787,23.654572131601295,14.340867351297643,14.94485967388484,20.593904709183047,19.441376251747567,24.714408476468282,34.84025317787586,29.047995515081183,17.436759413173704,18.957855865262296,21.90361463625948,21.730472520582772,30.696499742043557,36.4855405535582,26.60495840820187,21.30387128934001,27.756446400122723,27.501882362603936,24.694509427083513,31.170733419773413,32.5373545411678,26.292121496946812,29.25413231601524,31.583836910893226,19.56497660257021,12.111527544786547,17.17133422169994,17.51496643822293,16.41874671414441,22.54274842622692,19.784224056635964,8.474202042521341,10.407845227313677,18.248686178658037,16.006874600420606,16.26673779077216,21.383052270436377,15.393932862745388,7.721821315815319,11.146104034753364,9.650252534784638,-0.018157016769960954,-0.12492082143054994,2.0070017599850134,-6.367498389417288,-9.046355540395362,-2.1223285070955593,-3.423577879261593,-6.223361059763261,1.112552078788255,2.5682527503856205,-4.629371827623833,-2.23044867592698,3.441707584940705,-0.12782926448598442,0.6964099840618296,7.4312463922268925,2.406972471157053,-6.050742702452661,-3.0333944942416444,-1.6655932049308713,-6.035249065643094,-2.0076721356082343,1.7150017591999123,-6.1637579396497175,-8.784688142343196,-2.16791390076297,-3.971903435443126,-8.271668928302182,-3.520325426553542,-4.295400206245081,-12.17596253803693,-9.370614619538784,-3.567532506959736,-6.765484304840001,-3.744940407593624,6.324808095771598,3.472163606349419,-5.841932455129585,-7.3485649623696325,-12.267462436105372,-20.050961498137646,-13.515132054556767,-4.212589231984861,-8.854897566913337,-12.771264090881731,-10.419858402147776,-16.07897511296506,-20.908373753276646,-13.182477491997131,-9.147009337420263,-11.692372271786105,-4.1916066253944395,3.2834059284328623,-3.6528572769343137,-7.985309745004983,-3.1350274857164107,-4.80120682125316,-6.873975808227229,-0.319190425643332,-2.702092943476306,-14.478725987286492,-13.612533729443829,-6.399672215832847,-8.515262040580042,-8.109067077701129,-2.6107871074876137,-7.8263881651982645,-15.348923496578838,-12.727304994485166,-14.865918607827147,-22.994351802446772,-18.03383212627574,-8.169628544102022,-9.312946607820233,-9.378880422401203,-5.612943423895367,-12.709892083321513,-20.075150055386803,-14.484916397847945,-12.73045656415022,-18.441063759859123,-13.879496303639893,-7.15237814573636,-11.894785781253187,-13.253379822913383,-8.260888304383718,-13.301848562775442,-18.907632230440306,-11.872273746174614,-8.837252168779411,-13.894314164074826,-9.768928686764285,-3.963171562498144,-9.047737111146366,-9.872631710672144,-3.8151664951536484,-8.017952496688231,-13.81697369047101,-7.804194421104846,-5.7135289286798745,-11.507319922854528,-8.591723856804203,-4.410321655321459,-10.751761515528552,-12.41779524867581,-7.10320031993966,-11.925368600194874,-18.49963180749079,-13.577683899418652,-12.594967022304465,-19.03025157019145,-15.234141609298481,-8.38477190401286,-11.196418565102405,-9.065254263854627,-0.6560844090840798,-4.252712703498852,-11.154251664517169,-6.958572258236514,-6.144581261114038,-12.284984850148009,-9.465936701325852,-6.047270599131892,-13.917371331028797,-16.75003335251522,-11.025681219361152,-13.613162833153279,-17.305670034268548,-10.924444981944593,-10.021949681380523,-16.34766057927237,-12.310121294523825,-6.200159255014388,-10.612908610176044,-10.302874834887707,-2.968349813843713,-5.757136385426303,-10.404754555545198,-4.772631663744036,-4.633324091764081,-12.42187672008617,-10.417765866538737,-5.88394487347042,-10.680830043655776,-9.128973196582505,1.1900709706868042,1.1831500527447982,-3.396708009305667,-0.015583147195612046,-2.2770565924615553,-10.995098285229867,-7.781652185751806,-1.2627843507082983,-5.754016033293459,-6.320123788474256,0.46311959438324424,-2.10715827045137,-5.887870175507059,0.4937184032826556,0.36913815238605663,-7.882178332303724,-5.082006353142972,1.5148706095145523,-1.0364726292558752,1.13908504263408,8.95759214880408,4.768887861362782,-2.548562007968332,0.4027535217014657,-1.2534119598143865,-9.610863193022297,-6.794126638159101,-0.6605934587569167,-4.439052354968435,-3.7656100647461193,3.5303789867032407,0.6182419023968793,-3.8469995314764587,2.439181255951705,3.59567567127916,-2.7286795618435877,1.5372814458494952,9.023323746970695,6.66178447977059,7.861108147491292,13.71940368364358,7.589600315862851,-0.6934988888039273,2.5530090012233857,2.249632548703185,-4.519333515834418,-1.4348058523363143,3.2686217327152525,-2.0628368863134647,-2.232385685024987,4.363106399982334,0.6232762511688774,-4.804926387798327,0.37773187058732116,0.909007485372552,-4.723295481491379,1.1252133543574239,10.016944391325744,9.03499556113756,11.507259339525177,17.159448762461903,9.408955767059313,0.021963909224448575,4.122400334033637,6.890989182279309,3.9852148746572227,8.93337066968214,12.064353467521528,3.4483199708764585,1.4306528081241543,8.828323686294905,7.566533139787901,5.33742811102273,14.654846724945546,21.565588097458452,25.997119462844104,46.45687420484053,77.16762443891787,108.263343051021,150.1152628386222,194.6452195757018,206.84380833143032,175.31230852761922,125.57202320740586,77.86701069192053,42.94860670696473,38.80891695022071,54.608661783449506,51.26516683869124,28.700232476007745,17.262800811891175,14.574706501813298,6.587671670237489,2.704154250756732,0.9442099506070804,-12.309132465245368,-22.778836887541292,-17.979257184609633,-17.81998174892005,-27.80924237842837,-29.568689016984322,-28.002178682292648,-35.05531281842844,-38.21989021829802,-36.74413800224585,-46.77140138681435,-58.93894455602401,-60.38620772570978,-64.82606321064262,-71.78085327294288,-63.733763525022454,-52.70360032972199,-55.580513507177415,-58.32055022849849,-56.29264011500516,-62.85674485644073,-67.29824529535044,-58.8545200178904,-56.21988323802094,-61.41731642342802,-55.128793363976165,-45.56611668310904,-46.688315003395246,-46.374951340231405,-44.61451907602192,-55.460140404894915,-65.99058700910794,-62.78883466408318,-61.46396271230833,-64.14506236442773,-54.70178323539403,-42.92515988823344,-42.1271283813412,-38.513372134284786,-30.501742995259747,-32.956933544129676,-35.79645542274842,-27.78712882525653,-25.43079300435231,-30.8807952433427,-26.5762100029691,-20.370517540473916,-24.701285521208725,-25.096243758007425,-19.437260534570374,-22.942159140568474,-25.619382812615108,-16.4759025581058,-12.928368562055503,-17.262326853894354,-12.041501738334754,-5.117381391562409,-7.530837323506757,-4.737177083594875,3.165581894273034,-0.5412541627966747,-5.5932251738414696,0.4913599508782571,1.809738551268174,-3.679298609859131,0.9914185092586258,7.081563578366922,3.066670843940739,4.840671084444421,13.120931110436223,9.691716410418827,3.798035051612249,8.585763765701534,9.066538974106182,3.9151331676117094,9.94976205294239,16.766750800339523,11.051456103329373,9.033239456165083,14.12711931867579,10.591609754962466,7.6043039294577754,15.892225806967316,18.075672157063533,10.088225120500379,10.181534022202403,24.386876640003152,45.97465013729529,66.50456171929825,79.19052020241274,77.4873776981762,58.72717856084401,42.60281596102744,48.520621106651994,58.010389898353196,53.618642728560395,50.92465371947682,52.588701936809876,44.89497685427153,39.65614415366272,45.40262611893268,42.156956511004935,30.22717866029944,30.177513261757394,32.99026082481957,25.51422625008251,23.27398784509986,27.913390461687655,21.731757460494187,12.435503757858973,11.820470699989936,6.690427139212796,-1.707780003493459,3.398747717135754,10.606507829938979,6.076199441218762,4.370543401254009,7.554696813890881,1.419367116464176,-2.8106556959335562,5.229364705755055,6.816155481811789,-0.6352734658896972,0.10313056848465507,1.8493096146500236,-3.5000980242702617,0.7878944077025727,13.375385384131164,14.96056895720359,14.015638607203332,21.61619033184689,21.417545277288486,12.864778487282173,14.627566947236339,18.949656094056316,15.250440078247195,18.751063471537034,27.88185811783908,24.117368664291938,18.031774688536153,22.536068145001273,21.923527570953947,14.451618562535968,15.632080684418451,15.881505297118965,5.957730056200438,3.515197515284827,8.804835734374505,3.457685031221458,-3.6379411196853515,-0.7360199840759432,-2.526207391542421,-8.826580335402884,-3.112670687200052,3.2978547433461394,-2.9837862217839093,-6.108386032053488,-3.0329284531267806,-8.745172938322417,-13.329333198668706,-6.24731373885823,-4.881821119503981,-10.733256429797915,-6.5076387369924555,-1.3770862186815573,-6.555878208595431,-5.844750756752963,1.9729149812268179,-0.15150552128309203,-3.529592181099595,2.4485317765410897,2.2474475015078865,-3.193375834255291,4.558134218340367,15.08601928867659,14.09225414607334,15.26457091155757,19.89328545382377,13.273151859965349,6.526474247417818,11.116858151504495,10.317867380996796,2.45935283336187,4.752054538985032,7.77876673005349,-2.343266018395076,-11.817406707466224,-17.678974745366705,-32.22146033096205,-41.50747745780514,-32.69885724374552,-25.42819138491712,-25.91990758361485,-18.88587199450641,-11.913052676888132,-14.344064938189701,-10.47912615058759,-1.667525899342801,-6.03413615796179,-13.080645120776172,-9.883308479028646,-11.274551840421376,-18.3486540969588,-15.362214178714293,-11.825393379407785,-18.10008822839732,-17.974445024162513,-11.202319006941124,-15.696878559077684,-22.103670377670092,-18.01071052305546,-18.623015253191557,-24.761278781120268,-19.56764596520719,-12.429128955392041,-14.365133439490254,-9.744919520673673,1.1206498420055033,0.2412820422529749,-3.318218452625786,2.101570009132959,1.5578462885340751,-5.2474120038870735,-1.7595334673540213,2.5841516743082016,-2.6305199598394333,-1.0184356340372787,7.533273640044465,5.162876776395773,0.859465083562285,5.454476288318115,3.5619842606738383,-3.8392465757388896,1.1698434837691853,8.933556355990639,6.8909512289403985,8.64717544807346,14.409326922060547,9.191940932573964,3.9203948374229958,9.5466371967787,9.063696914694379,0.8991669984846116,2.7432697398668173,7.067178406221771,2.985694772442852,4.0632234455085685,9.276521639272499,3.577971564459865,-0.6600307821169118,7.815460093269268,10.887038668114256,5.7023944489803515,8.517999631653675,11.663105166863991,6.599410746054926,8.655761416671776,14.084001962942901,-1.5964021535349717,-34.332057103926005,-60.82796357647373,-76.44237702281009,-81.24027544817113,-65.29774601208409,-40.8139176655412,-37.99555813956641,-50.39297792418227,-45.90660589466982,-23.629512074959393,-3.182598593342382,12.412468926041655,22.049981908248128,14.39875944110326,0.047444888697369514,4.7834186965431345,23.6401096278558,40.2799289765438,55.70161542240121,63.63560083087852,57.02894560406693,44.338420244330095,31.957312006934856,27.38171880888905,35.52789204317461,39.84190113520034,32.214506015790356,29.85181392852656,32.84890607074879,26.709333342430625,21.46056770566659,24.833125979221396,20.715277742821797,12.721380572864351,18.61223729039739,24.39318853579784,16.08646568716088,11.325231866141337,13.146179289493022,5.436458889997855,-5.766524249183323,-14.845991125499856,-29.798955106916118,-37.74230058773823,-28.402023924849242,-18.829426895726407,-14.714670681574853,-11.213262809850956,-16.427542346364586,-24.447889281660025,-19.493353667244037,-13.099881071886404,-16.437505067892662,-14.71877276098435,-8.173355104896,-12.428712373010539,-16.04289156504199,1.3958831125590025,37.129040611150195,77.21534577688332,107.74575805863064,115.23535378768081,94.23508083928354,62.25200514857402,51.716447498711126,63.31235814007482,65.37900217318884,53.812238127871666,48.04745530775293,43.56551094400531,34.837904538935334,35.88845076901668,39.712321425921004,28.29143562497901,16.695545414373278,18.378721735749693,14.873611496502766,3.1874640027015197,0.41423066175812706,-1.313414053093151,-12.090156843645703,-16.8010238231386,-15.537158391439103,-23.357662379085657,-29.22289973086188,-23.766509011259465,-24.57345728771873,-31.964899510927147,-29.152590741752668,-25.470765431129898,-33.24077386703209,-44.545237395337814,-64.68080315571174,-102.23973594564407,-133.23920150833575,-136.64068937072562,-127.05216047273929,-116.65232702751693,-103.54048260756124,-99.05845373215642,-105.01487579185678,-99.70653608878972,-85.02237408473908,-82.30129755830222,-83.84117945468253,-77.7982739058564,-76.9086070034737,-79.27739424417611,-70.33387850444075,-62.638160253005765,-65.98441697235069,-62.43220006405079,-51.43331129507244,-49.34194235019413,-46.36221957645652,-33.93233273179054,-30.10943121964555,-34.45039770835589,-28.19723230375778,-19.01923655130823,-15.325708933781767,-0.5716934267897562,23.230717253198574,38.30463578107296,55.83918956530227,85.69402260560678,107.05159258551683,113.79888341717302,118.56674359942095,112.53202872847586,92.09704498277557,80.91667357070254,80.56085330224506,70.35821570396126,56.36842214556718,48.76105365132161,34.391581165045054,16.323605615344018,11.029760003442009,6.584936127020623,-7.611650128582643,-13.961784495426357,-12.323377001553041,-20.5715491055772,-30.00638487148966,-31.068507748793664,-38.12477907800192,-47.85726949712743,-43.71165524303794,-37.87140041797663,-41.958030262354576,-41.19060625046146,-37.090220721067794,-45.72244823783437,-55.030745889280965,-53.25369719167732,-55.89814275828112,-62.619002427460586,-58.15295681256105,-53.95658834542643,-59.296482391650294,-56.760826600358456,-47.358631258741255,-48.675267112066095,-51.01048037206764,-44.00608458707387,-42.24996555382971,-44.431493658253245,-35.89795852523668,-28.520574924643448,-31.81057005568585,-28.880724623713,-19.79352162223759,-20.629617486233613,-22.31649642938827,-16.07100867223575,-16.438218042070186,-20.568387691285178,-12.461761933960805,-4.211803935047308,-6.47828023281464,-3.043963656062604,6.016580662689622,5.0130874024516565,3.501148094479026,9.927957481590305,8.399046045159794,1.5924573898384053,7.167687349601831,13.91156872270585,10.704500660652318,13.172807361644605,20.754510371339485,18.89220748576341,19.44091371772553,30.509355864794866,33.486016605630624,28.71581663914052,33.119097680699376,37.49928054485207,33.417536608875565,36.83139427422335,46.17335365454035,45.37299537785863,45.24520752042891,54.78015377930809,56.02292621681632,49.2565979542038,52.91308770339751,59.46128173306568,59.900135687538814,67.98185024759626,79.43721387117691,76.46037602373866,71.03778709584591,75.49960239267344,74.09535773965241,66.43224340160344,68.17522193286727,68.78483059127707,59.30510673212799,57.62496957329703,63.563838582715505,59.8162566950485,55.51265442377642,59.81808343969915,56.594602521226236,47.11315214043462,48.39353487288855,50.095489125284814,42.0536816704615,39.65550728119041,41.50595323615324,33.20867781161924,28.11197420835934,36.10413652045426,39.372766810855474,36.41009845892204,38.9782250415881,31.6068297258016,-2.73701609917382,-51.497218888638315,-92.97179270558921,-114.36763134230415,-110.63467399505197,-85.11287009237186,-58.889335279778656,-59.07784177687464,-76.8278540877105,-77.81537515225136,-62.70688900862939,-54.44942724333687,-49.32546771726213,-42.81550968810379,-47.893467086571384,-54.66918074544075,-44.56342262828468,-33.061475212273095,-32.163805700727735,-24.164871374861097,-11.054973917377374,-11.705974520448606,-14.243354845664719,-5.2866588821247635,0.30346958308994126,0.8992040067265354,8.074716635434092,9.909520711744603,1.2318118269971277,2.5654909465961655,12.248172713006774,11.514347879802983,9.815256960050956,16.65137280413385,17.01075130522676,13.924881941120951,23.809382096750152,34.57296971692621,35.711809737890675,42.01679119353292,50.02101451700601,43.78671234233279,37.01948250847645,41.06623602079123,40.27658809956695,36.028720639965044,42.57328879966336,46.95979237031794,40.61799812734048,45.051398969799564,69.01948161573117,101.10679678528435,141.0122102793079,179.36694300433817,185.3847134016219,158.97680887651205,133.62583541860147,119.88452613700267,113.28851220615147,119.18007466112113,124.34123866807683,110.89577310603251,96.17365644377114,94.18239253996371,88.2696477270072,77.68726484225772,76.30992609243474,73.11417920880419,60.97254939093711,56.34871507578524,55.59266341489824,42.79816641653496,31.735303877047585,32.043595000441826,25.209975315849178,12.083152189295001,9.508939802043878,7.488998392067943,-1.6590957548259833,-1.5046056900292806,4.181247316149778,-2.820233389053648,-12.075673178110277,-13.291533293536578,-19.962115362728323,-27.95533969912352,-22.20453445990043,-17.426497584438323,-25.008796583757047,-28.225182593896182,-26.86078796532253,-34.52395013519915,-39.226384591132415,-33.772435647069116,-36.666316077068785,-46.317684477221064,-46.14841188568368,-46.82428528898721,-55.829078465037504,-55.281868308595705,-47.25446071696274,-49.14451150252437,-51.57279936719469,-47.24994999507348,-52.11879339878649,-61.39241362872368,-57.40728292059656,-52.71603658265583,-57.902280482277284,-57.697745771888904,-54.32398037995412,-61.888954883107104,-67.62903709952552,-63.485434560004606,-66.04516995327077,-72.21261427587906,-66.06743303366895,-60.072316094909866,-63.96554915839822,-61.850449312558496,-55.955752591739454,-61.29383896141459,-65.49255235929826,-60.54563028667433,-63.29655034568463,-70.07964657821651,-64.39294001360535,-58.85917913189476,-63.101712966921404,-60.958430262724946,-54.36077807038807,-57.76478232436919,-58.536801355831436,-49.16745210073202,-48.31540789747739,-54.20611432257792,-50.13381078816117,-47.213644664268095,-53.551504580847464,-52.05266041997311,-45.380145774905,-49.47933187710484,-51.98824073164175,-44.28616955386857,-43.777547385280556,-48.565182978811414,-43.10997965690888,-39.75898697497526,-46.942524979037444,-47.15197732691347,-41.77141898103247,-45.34751760287763,-45.92685513938814,-36.49561850969675,-35.14411111349576,-39.88087334342119,-34.78700829950154,-31.129529426915447,-36.47090061570714,-33.5405801253453,-24.858032269551416,-26.35883148080979,-26.8533490454462,-19.352477879718816,-21.17175048418151,-28.852405980756107,-25.366762438978192,-21.92189222072659,-26.906271801722223,-23.800905713775645,-15.309661925091081,-17.5686816022956,-19.184243732623788,-12.756776900930046,-15.773288995761575,-24.117384226155703,-19.281314252052894,-12.048210813984777,-11.87380191345203,-4.587854430380462,4.926487439215283,0.5588481285715048,-4.2683617339924,0.5676291040687151,-1.3390804950286876,-8.352440738248305,-4.9960156315028135,-2.2339677335404655,-7.5577699392513775,-4.380902974466714,3.743029421328692,0.2994508535570426,-2.761274056913124,3.6216188377046983,3.6535295043938243,-0.355364910414667,5.568766924126333,8.685793891582088,2.367656697647147,5.60819144556126,16.31126435415646,17.430281628019657,18.17537702276698,24.32859612095522,19.548112652649717,9.17640706972437,11.091559197164356,14.057714579639274,9.390146015384811,12.716624694866931,20.36334881114664,16.54354877762664,13.872004607533583,20.645069153437444,19.692921292226764,13.86531536056994,18.73392318134303,21.835171156771658,15.955176636770332,19.201687669781116,28.223235456209963,26.196514820605636,24.622989110553654,30.97074562785726,28.545837607363822,21.440428402064512,25.999710345220436,29.566973318693712,23.66435671869936,25.355888654954747,31.583103822705265,26.13535906275022,20.594228625938467,22.928348846585475,18.153167029290884,11.674799795370575,18.886758749006358,25.14384992517396,20.592505340658363,21.96538471508159,27.969981153133208,25.041839120064125,24.64488343230724,31.745691876307568,28.626890715754115,20.108345962911923,23.30487246808201,26.290299663878127,20.74033391057506,22.902395623747786,29.492266183603007,24.8024825644151,20.41466818402822,23.823657642453956,19.119025973325282,11.212060682450879,16.584621938848688,21.64573102569915,16.692146839650988,18.51597330388553,25.169277312154666,22.158644300906495,21.53280541890011,29.35971760334826,27.183031538353852,18.28597110801075,19.698257470317444,20.625247869125207,14.048961026270785,15.965521812094265,20.866939179971038,12.36016059881511,4.180232155713252,5.837966494815592,2.031914986700269,-2.9694327795498383,5.6121324952550005,13.394274057844935,11.169330088378437,15.299361617769614,22.263360305073686,17.179506651688826,13.738914467226646,19.608647749851286,17.242045195877473,10.397418151232877,15.070461697767184,19.02740990329846,14.147746652476492,15.45233733540967,18.667854541739025,10.059625667894904,4.145276400928362,9.22005044478348,8.030259243132129,2.7850283231996205,7.152980072005624,8.195942550395133,0.308758008737942,2.533405175358193,11.619725268257518,11.012863522452736,11.343233598132056,18.00607534063143,13.67447880637928,3.999335473699788,7.007425853181939,10.936689705969757,7.182464110959204,11.081644468005296,17.559742350576336,10.398230533591793,3.3041208250079968,5.93607183027219,2.656917343915032,-3.2912032805225686,1.8443653618827236,4.595258715917432,-1.492932759109629,1.9691721855852784,13.114909664209723,18.19921217639582,29.398308243092465,52.109714621747656,67.12780302901992,76.82333437062209,97.169867619099,115.00411118818653,119.85975915726057,125.15893289115722,124.69496954322452,105.06205759006147,85.21503838175256,76.97939363820191,63.64090576629626,46.32574354917034,38.17012638571154,28.15468090145294,11.560038534158108,4.796508950434657,2.770479499950198,-10.115329974966393,-21.801095578390026,-24.792963448644073,-34.62616294288727,-47.628856985934775,-49.252957889362776,-51.041846871763845,-59.3596430795709,-59.16593098783356,-56.35648078403833,-66.07552633376092,-74.5316753771917,-73.28236377297682,-78.59616969285557,-87.73050157575395,-86.49245940525874,-86.18625037559598,-91.83574798581762,-86.62603408726848,-76.20264862488798,-77.47282650022325,-78.7946681023339,-72.38161178022014,-73.5585093671816,-78.48255958332162,-72.36297260246249,-67.06676425320768,-69.47970654391482,-63.78938228793179,-54.99317738439043,-58.71035371867872,-61.34825610702986,-53.926971521110914,-52.98828454359911,-56.498109422572576,-51.21142728484814,-49.791733090255846,-56.91764609686966,-53.44885064606081,-42.851211391312795,-41.18741192002036,-38.66840773440697,-31.339998756295593,-35.21295492691218,-42.7081824723623,-36.629505335898315,-29.654634796951832,-30.078127748375405,-23.851052896336995,-16.26656822078599,-19.706356262394024,-18.669812017936405,-7.320773373028081,-5.105184335876103,-9.029980987312113,-3.653542590880366,-0.31134538308129667,-4.216574586921183,1.6384123214722415,11.600879780489166,9.463772230054033,8.220777764516084,14.814190498756199,12.497996959316751,6.638158948755417,12.97620171747585,17.97598611365041,13.90343265012136,16.873696988543088,22.779728126108683,18.164871934106586,17.56428356888013,28.271842394525592,31.89014386509198,29.358584902629943,33.625714441015,32.95729001169945,23.45553286223312,24.327619603815723,31.925451157705456,29.64111524072655,27.553103640054317,31.067817628286612,24.78518080068538,15.098282155255703,17.384929609354273,18.73061733625961,12.61042360794064,14.89399304032222,20.506561506114647,15.149146930891206,12.168052732491814,17.748219937869766,14.502145689761932,6.00294910355104,6.294937452534152,3.965278514428791,-4.120841486379445,0.1638653143944473,10.670792908980467,10.01345933965069,8.785425958520156,12.272843125386407,5.510373908508453,-3.839010388634874,0.1030262489020144,4.245090136170752,1.7628536412384863,7.746160653179002,15.649000663010655,10.538572905008472,6.944447159012813,12.302897559511008,10.099899381140398,5.120081424026955,11.175043056993875,14.044439506437433,7.850139235248854,10.26594917759965,16.10398410768751,9.967556617391562,5.622986488647195,9.874620214228873,5.759807498433575,-1.5199827800882537,2.403230613567259,3.2503036299562114,-4.808565488009494,-3.8620170222220085,1.9146040288399344,-1.82487710654181,-2.834961860710207,3.616155956178977,0.7753497645071072,-5.719554974232238,-0.9743338399691486,2.396154058193213,-1.511467513836827,3.2544189976961055,11.736230897393197,10.00662161654745,10.70053447866156,18.516376640732616,16.345191645743796,10.140382032598858,15.288996357637895,18.423723672041547,13.434567743724472,17.574731828342564,26.261703052340692,25.203120300361043,27.021025032051988,35.37800920280617,32.135473177043835,24.16453012331384,28.128283749045607,30.71058020727523,24.7500606220799,26.220993434854236,30.620060341113614,24.945942668807803,23.23093671877182,30.107684915724686,26.518370282108812,17.32113261296293,18.666935334728382,18.541658186258108,12.822893593742595,19.344706495509428,30.07180615750143,26.960849282124485,22.644513167949615,23.20175378898068,13.773919030597682,3.8473610075944955,9.184871894981018,13.435813277855033,8.767340935873099,12.200664440907776,18.57311916294458,13.647327940124367,11.536107204504985,17.28553687527762,12.57659124348935,3.46204190658184,6.255997321968521,7.694074590601396,1.5765606714746254,4.553143050536055,10.53622173400371,4.637241485185818,1.3045785251937065,7.361739958389734,5.320945365039777,-0.9614661391530048,2.4107458468237652,2.2880912817703676,-5.584169839485671,-2.6156200138436434,5.184224739510709,1.3567550129209698,-1.556419881534367,2.1830963310776315,-3.0370270880094297,-10.181964978699504,-5.056224529956691,-2.5042831511295924,-8.329348351580556,-5.071979676761378,2.041870543408863,-1.2443219104057408,-1.7416148690926367,4.68406153836338,-0.003732945627647588,-9.936451869061946,-9.112711946209057,-8.867790139643052,-13.68727681433078,-8.555357537976894,-2.1941541535373217,-9.931638716974696,-15.89780630011599,-11.518963292939045,-12.502438212034384,-14.837938572657553,-7.542955622167443,-6.243492204238767,-14.566882507920415,-12.308849783034653,-4.4797247381981435,-7.224714116861979,-8.628349249687002,-4.151207118625225,-9.913068363371305,-18.323015689771694,-14.67681186655378,-13.794878494074071,-21.418429413431447,-19.909708784978275,-14.454878694514244,-19.494024280424064,-22.003400860307497,-17.188446211315,-21.21751404194982,-26.651330056569048,-18.970839963232912,-14.124205796267614,-19.386360453189514,-17.526868076951125,-13.124813607048491,-18.808338633065933,-19.32472569934005,-10.575701972454,-12.074834067198251,-18.523418516256385,-15.083284239409087,-14.97275108722037,-22.174067966379997,-19.525065173868548,-14.413105442706742,-21.53164273097668,-25.766865966776596,-20.823714910390365,-23.16505970434343,-26.777593323613136,-18.763624638374772,-14.993388476583947,-20.992879732429003,-18.791491077363002,-13.365137204502807,-17.96647847161411,-18.547289472958447,-11.119524957424453,-13.679703094385587,-20.215205845028713,-15.947762128528767,-13.842685889305638,-18.413180422613262,-13.253977770789938,-5.1243094825685995,-8.543960806561302,-10.243031993638965,-5.659269463322154,-10.904225786616822,-18.096951839347206,-12.492826453533167,-8.811280769460893,-12.630005097127079,-7.578814978908925,-0.2340436367206964,-3.895866034166859,-4.2956264582671775,1.9594403299446075,-2.7995717135357796,-11.242228980111516,-8.309134832760659,-7.341928298191103,-12.52273315664888,-7.060369864382873,1.8193709086369658,-0.5117893199840395,-0.21491858423878063,6.706239382509968,2.593497401105851,-5.696574323028827,-3.344228596987644,-3.634617913787733,-10.023216913985538,-4.872964128355895,4.656935133600989,3.4536748211726325,4.729320314571403,11.961790427610822,7.5546540383351335,-1.03828695706529,1.279763187533193,0.753733244198707,-6.587709437752854,-2.9088589979383577,5.272027690730236,3.417483353565149,4.914196296197381,12.692689963133246,8.511402154641152,0.15953670754354699,3.5288118566710662,4.824258666951162,-0.8646383347134212,2.755029824888537,8.60119624928447,3.828848018588196,3.158020814881662,9.671367284851815,5.953834904749311,-0.8279237992751747,2.8327096923693484,3.2192184656504015,-3.00654089737783,0.6422784903485708,7.22890509530055,3.6358625130739797,3.5518708362608633,10.180720331505983,6.439602161147054,-0.35725497317493726,4.156355844362002,5.944650327561012,0.6647211844082359,5.154393512146896,12.289890329916762,8.007614682926327,6.43302806551645,11.472036030166668,6.042638275309546,-2.368152564650097,0.597071030367947,0.9333389086875559,-4.968256966468763,-0.08964562546214605,7.635611989789867,3.8241405111237246,2.82467129451436,8.512301886192628,3.9745325858277734,-2.8021971093184836,2.5495365766662292,5.172763504851916,0.4255525222699883,4.994370423604938,11.45689755663875,6.490309260832557,5.539151919094381,13.044058931844358,11.403799782003635,6.422497805373781,10.749443474827412,10.03418270036601,1.5710992306408613,3.8090487286308123,9.607240676264773,4.433632647094919,2.1739739444588406,6.977744982170751,3.298010819690046,-1.0464726727587166,6.0901353260094435,8.937782849775964,3.5927187736723054,7.611461245389211,14.422111620991917,10.387380088699787,9.137723225408596,14.202561884385544,9.493153713841401,2.8680418940129613,7.164909708265334,7.281646050605839,0.21315189813533308,3.75574616767702,10.112709221203176,4.957917547673355,2.7348546091551373,7.95575861198866,5.458227215067721,4.157788256383619,17.040973347259218,28.78280589320429,36.997893869054096,59.62548883509201,88.58899866560186,109.05373015020659,131.57082253070422,154.02078948694594,156.03216561641642,144.2022589067612,134.02255745359085,117.52234067476607,97.3431296746986,90.73138446776045,87.74875422033217,72.62672456231864,58.035742450842,48.985064031849575,31.745284139186552,14.181848295451928,8.255683672686663,-0.6940192346150575,-15.40371616748958,-19.49278285948889,-21.48762903382458,-34.32729734537282,-42.69089621709199,-42.990627617958125,-52.23317289341378,-63.48218449243616,-63.854205122879684,-66.97636063775663,-75.2368946161883,-72.24946643563838,-67.10296453326663,-74.36977572463769,-79.12986917652357,-76.06550882438054,-81.15957638456057,-88.20297372132615,-85.35631525246512,-86.5220494487035,-93.79144921041637,-90.49943242925838,-84.0550984755702,-86.38268669689593,-83.1562848733439,-72.46628908300865,-72.15346929867144,-76.25893800343101,-73.07616226507584,-75.17314059986458,-81.63064800776314,-74.57895543534077,-63.93402827933963,-64.68472175188467,-63.29768372017426,-56.66194943603582,-59.43419117747596,-61.99152030990106,-52.580349607732515,-48.300308435246784,-53.48772382435245,-51.40392672303496,-48.14200960767046,-53.80796769993197,-52.30535818286855,-41.872973370963024,-41.29911633443717,-43.40616981945281,-35.60740567829111,-32.61501895144593,-35.92391349566739,-28.502249163242283,-19.884170923090316,-22.525499359253285,-20.523609821850503,-12.32494278981692,-15.325815006491219,-19.818563162565173,-11.758874303409904,-6.492085995453016,-8.914854797765678,-4.607916223226563,-1.9436211249621733,-10.859490559530643,-12.507486387454446,-3.022948040455201,-2.176767670741425,-5.452140761010803,-0.3946124093842287,0.3410770820567598,-4.137528394875621,3.3671434074721405,13.558216899833589,12.528018270594604,15.286552648155418,24.539898321795487,22.969914495942362,18.088037519074263,22.014872655492137,20.65557390346185,13.453969082575018,17.548293960175243,23.15463365019337,17.413578745869746,16.09561274168854,21.361310726319477,16.35830603660411,9.79568608431789,13.009217547834696,11.00859672678964,5.0187779002484945,13.331993630976227,24.31068364580187,22.846687341739575,23.363997232475604,28.021548467311042,22.402374174427578,17.994774868294513,26.742082308882388,31.703483383502807,29.820125090042843,37.39204392200089,46.47039337775984,45.65305590620425,49.818275202822335,59.68690509511644,56.34338488783559,47.45042659786327,46.92468073638936,42.38168781408783,33.93712144607825,38.43164606490798,45.3891898625968,41.21089521836747,41.016182298845195,46.86767105054664,42.81683801915817,38.55422990473676,44.79233758131569,44.38536052968674,35.711891862903144,36.40492234935233,39.2503853649533,34.17692296931726,35.92186203154765,43.40886412326042,38.15019335415059,29.242129660631704,29.827198180555246,26.316169027994984,18.44157722831317,23.188134136737474,31.363095985284442,30.10509331086121,32.77028815718696,39.568834053263934,34.6994240681832,29.1801567117335,36.07603303481708,39.692492921816864,36.67792344626278,41.732280174195665,45.89542763164363,39.4150945376395,39.4312795649938,47.44288234281943,45.27166817581479,39.769371804752744,41.40049590842589,35.51361713611334,23.138274079959224,23.84623295374425,30.196710906923414,29.65924461694827,34.6072077913451,42.85111698719764,36.61631438056854,26.994427795207024,27.960048581222296,25.238427936638544,17.658930280374502,20.88035323852999,25.249080961355823,20.19080556915872,21.500584261045198,28.89441468320759,24.66322532014716,18.373100573973957,21.701608129610598,18.6366110802907,8.240738493751802,8.403658297293136,11.03879916260599,5.447960574710346,7.088028101371028,15.005384789312961,10.55513786666721,3.6004733441866956,7.01510610792517,5.49468460942309,-2.2159798967488644,0.3912653741410641,3.894063044816645,-2.472625009487717,-2.179087259136191,5.2836319773370155,1.8895011712789065,-3.5589418058322932,0.21844007046385716,-2.3153321669317917,-11.199157192384597,-9.14330631711971,-5.736820960439533,-11.820520489318488,-11.123781671445062,-3.4600375415103217,-6.8612518541560945,-12.838473109262138,-10.234131028229502,-13.97192261814029,-23.478989258565583,-21.33354510847426,-17.48656034316056,-23.206369059456915,-22.114223144220553,-13.714868898108065,-15.475737801192967,-18.570676827156966,-13.186704727890003,-15.799876146854093,-25.764629374598105,-24.943573491335904,-22.70158631165758,-30.06350433688025,-30.96047365867453,-24.906469460525155,-28.54374624167448,-31.937636382149815,-24.83540168880163,-24.880859351364364,-33.05639621943691,-31.27942009444659,-27.95842034060096,-33.6167003457503,-32.401006471199736,-24.615998229802575,-27.90971551334179,-32.496153618972436,-26.685840099441535,-26.420329571796767,-32.631623476381215,-28.646852092574555,-24.308127016788212,-30.936678908304273,-32.06494471920841,-25.84216832362613,-28.541588403849268,-31.53337220415586,-25.52898060484734,-27.547255269910362,-37.13825200187571,-35.065660745495364,-29.24697769880708,-30.997143721925035,-26.619322248777642,-17.904262978822867,-21.7488108321962,-27.01694307019915,-22.12889617233749,-23.24630171846245,-30.276863240679877,-26.13368117177524,-21.159283586162385,-26.770786699994275,-27.20272682141905,-21.663341083917874,-25.35401362905702,-27.453557351222525,-18.486516408719027,-16.9801866689803,-24.136812824688228,-22.22286609325377,-19.33507119819462,-24.94911884528603,-23.24315479828408,-15.04366786149371,-17.326349363331033,-20.271537638890724,-13.978081744266,-14.565684224937579,-21.235933504559725,-17.08192034031602,-12.088215463771656,-16.880977642581183,-16.32264795825034,-11.078143073809892,-16.833910466955544,-22.333847917693554,-16.887130847343926,-16.472800743373153,-20.608749357987566,-13.440894687108614,-6.3082944377911305,-9.89415160011012,-8.41083528090579,-2.7341003289213828,-8.592452484955492,-14.100119772122639,-8.742004231386284,-9.27859654092962,-15.395531229913269,-10.940324697335068,-6.3215254444987,-10.606618982486312,-7.662219151874801,-0.1411051552068896,-5.429526298257771,-11.634704567050129,-7.152194004046454,-7.585908048703975,-12.635888589896913,-7.390820864597167,-3.3042845741973523,-9.184476348228985,-7.178014383335279,1.6078830492346254,-0.5898772092775344,-3.481058092421587,3.2256703330152656,3.6531263750334473,-1.1399896783440644,4.588945003473208,9.07890168515142,2.3176551022428344,1.8578588223852153,7.719854971365009,3.0166566384038127,-2.2209680143841712,1.758411562264277,-0.8448868097285294,-7.892369599821549,-2.3921795269574524,4.227634260948173,1.1603841545653955,4.095305078752351,11.907516069123592,8.518337773890764,4.717881260954989,9.89224715429509,7.874886841550991,0.6861201467478151,5.068275392318997,10.033044372685412,5.976252332931958,8.61240089064953,15.316638800107944,8.929253578058926,0.9548526681444145,3.2916332136152775,1.950322528098689,-1.7637782442059455,6.1531623219849205,12.15146362621843,5.63417945942563,4.411670610702633,9.634997789738078,5.487132825600426,1.6706063806682117,7.851527042353528,8.7292574253749,5.398689441181166,13.070356848114885,19.58334451947398,14.416626708651162,14.398266796616038,19.716351777845794,14.670427174439503,9.411192430065826,13.072754506552599,10.278238473976614,3.309583631092317,8.324773690217036,13.812922439829784,9.816715420441103,12.298216096175556,19.465250118353865,14.88974455991988,9.81111204067331,14.388571638363741,13.15749588964313,7.919131428668447,14.309999533365012,20.20206020545505,15.539500246283271,16.966802272031067,23.41808710943687,18.690577343813725,13.734314801035687,17.916958248423494,15.067918209371607,6.949622576552283,9.62121858851698,11.961471061510146,5.3998010575840665,7.089157780209069,15.335815629031396,13.693528613427752,12.271631107471112,18.158966166019624,14.654075534917034,5.572164670565278,8.73285302910766,13.937603636050898,11.872947144376806,16.13943945520945,22.4552026866807,15.663486015956778,8.941995610716992,11.814019748430306,7.866896881186557,-0.7864759388639246,2.5224705205986497,7.9451970139673165,7.3709776731565775,16.17170843348292,30.34777233642445,33.20751768478248,37.67363181621965,54.23961432649534,67.17461117401241,79.48554463620538,105.85931149592466,129.67095299986312,137.0800014240566,141.65994308531938,140.45774237139614,121.32325202352156,101.37517427477762,91.61548346607135,76.30270744861022,58.966496300311846,55.41981048629623,52.17190950154787,38.013750278368995,28.175314651534112,21.581272875623895,5.002021330421944,-7.7678275615874695,-8.136217825761664,-14.817785127235311,-26.76602132732567,-27.608014960645274,-29.297460404859457,-41.36924473586854,-46.27460516652339,-44.58070197549695,-51.52380313558107,-55.70820496457601,-50.40163974404576,-54.625889651021346,-65.65175122143759,-65.25823324669086,-63.52682589645268,-69.31972620349687,-68.47176065939114,-64.93290251325794,-73.03687304509467,-75.11021604699637,-50.72700849310921,-14.947723282422471,12.714386401030385,30.433877272278774,29.238652062854726,3.0975031902082435,-20.03646187156704,-17.798974072588706,-12.04316889918375,-18.2844920676494,-20.851261384405852,-20.73474067056034,-30.432563627097625,-37.247115749678834,-35.33226120486343,-42.01085464634323,-52.06723344728269,-48.065785040939026,-43.806157180986055,-50.46595655655634,-50.904303996094086,-44.604764460183574,-46.468873795868355,-47.412668228759024,-40.966424407703386,-41.941347601132094,-45.44675360289246,-36.810841619537975,-30.93926255327886,-37.806037659572,-39.63223097934264,-35.74219439367119,-40.011069594938256,-45.67458501067795,-54.98012356733223,-87.34422030292673,-129.92004072955245,-148.06049621271595,-129.10253586882826,-84.19076211210881,-38.69625431085787,-16.357996786884513,-24.09076251779715,-48.427348770296234,-58.0177905119739,-40.61081288021959,-24.398578267859975,-25.36851990235906,-19.747656265724686,12.245703204835852,62.557123017106,109.9519094126611,133.95340543657832,123.33642191484451,87.05796072732946,59.566179901980405,64.67395913646885,77.66991581441805,70.21848574311318,56.9106103597856,50.54628555569707,39.27582556881095,29.750717962477868,33.68963204545664,32.49819510342303,19.698464409070176,16.879521749776366,19.964615559858643,10.411844186980968,0.7396957033803253,0.35919604717136067,-5.572920354507917,-12.750645541471687,-7.746130273836954,-4.540495727301569,-10.143597817464464,-8.957976308124183,-5.749452243979444,-12.947684595535938,-15.23633950550191,-6.634769102975131,-6.53531638092421,-12.675193417056256,-10.349416889035698,-11.316306374213232,-20.84053828879908,-20.65026718886736,-14.463600633778226,-18.221085688253687,-20.59351263427302,-16.00001707041477,-21.904938980837784,-33.4550632022535,-33.61056428500578,-33.13779500551494,-38.080241616358045,-32.48160793827008,-22.482573209792058,-25.086725197902066,-27.749494246905215,-21.80101523914113,-22.729751597016673,-26.80750989625581,-20.1615165988863,-16.46661487697695,-21.81614120706342,-17.447558152622342,-6.908519250809457,-6.750754942948367,-6.425570410457369,0.17057308210619126,-2.3409410466913316,-8.46533116232735,-3.4952541120027085,-0.5523199510640606,-5.870521370439086,-2.25086721979524,6.359733629233467,4.951368222250637,5.225211286087024,13.055744339225006,12.19820629637086,7.3528708365964865,12.46779621340894,14.134854134604652,7.087868433588891,9.495187871823111,17.022559020052704,14.201395342920108,12.67122877901595,17.923533699242267,14.323282691812867,8.597919862186412,15.90944895369873,21.905916230339805,18.858496502270718,22.394527398222653,27.52615731590348,20.938957418379005,17.306209186156867,23.211749508534798,21.454241779522263,16.07459494508025,20.834321660677233,22.53857371204312,15.943366309670402,18.179363012535447,24.006384656480282,18.975652668256078,16.425171144554756,22.077892588275468,19.124806131104748,12.83273567700062,18.237585032183713,22.60440815076665,19.683843425428396,24.90759186937876,31.406428088553984,24.01057806000084,17.388413061385304,19.56525605682619,14.77140371870096,7.679547223661759,12.277700877930585,15.580275838035963,11.659888067267097,15.892722610632681,21.609002010278907,14.202516318162566,8.360614172326347,12.101970524400304,9.951985239486476,6.123110853814346,12.943429972210174,16.057350868154046,10.285953038636048,13.186328840662288,19.627731339038867,15.046678055195933,12.253743989880384,16.48656972324062,11.469773580464341,3.104822881858192,5.904519678713964,6.656097523825164,-0.2112077593171091,1.9923447207324727,8.04713673487494,3.9276437017583787,2.5359709751918307,7.9410415770762794,3.1916107421475024,-4.421184696411402,0.9050549195554454,5.514849913650077,2.253301986958852,5.920277372590262,10.478912525169408,3.134202266313366,-0.2506810064104139,6.693625710242966,5.4576726523397285,-0.43748758008683586,3.065190559397451,2.8931574509109916,-5.692910353713076,-4.197409748180636,2.8962284021540876,0.34694935845242236,-0.19394830642552963,5.3390495397438595,0.006458848400274775,-9.33280672398972,-6.6316290045920265,-4.647296768915665,-9.31722122370231,-4.738455707666244,3.2300020192756262,0.5464125824385557,0.08756369085571791,6.013266801530503,1.4836817245208715,-6.886564562582515,-4.052278399623908,-2.972879315284725,-8.701433286030712,-5.221118847594932,1.1171078808936872,-3.164671882004301,-4.219006117597643,-4.200754415377421,-37.35345875146781,-104.3485404344478,-171.52580524868955,-223.32544597808746,-241.9325314719157,-208.41740632640358,-157.05044162512883,-134.45162842956822,-131.6064752567879,-125.64413192478,-118.85076654621366,-107.06782816386561,-86.72495446936674,-77.13701807395563,-79.67766101712115,-70.48621580761882,-52.80767633330767,-44.42658729255077,-36.65852883690823,-25.152744869918997,-23.72426571623126,-24.76155682239044,-15.583705912508885,-10.323827797674372,-11.37930387834573,-0.6254232836292992,13.912811796545471,16.3234815510453,20.232453749545545,30.780805266961437,31.387794568103846,28.68610295305657,37.014994413672966,42.82046929164991,41.76545242323857,50.429686353151226,61.772694737264985,61.42907913991637,62.66764592241064,69.67342364901614,66.57580209608264,60.86933580283804,66.1768724477208,68.5480584102887,64.35016907584281,70.2561155232822,78.7556913226525,75.60198015576978,74.49518547999637,79.71561486056443,75.63302440828507,70.42178057935163,77.66870011834379,81.86294558596545,77.68945506373899,81.73278794002555,87.26348736889918,80.79982784825924,77.28507397057689,81.71097949548984,77.22227791191753,70.22056754556839,73.92406645126957,73.76435447177728,65.9597131192417,68.5943469786827,75.38761052508158,71.5158199076242,69.90686048810313,75.19229766380333,71.6118457073849,65.89191098402344,70.37433471384364,69.43549693356596,58.731302874692034,56.7215758408308,58.98227511824115,53.15913850876963,52.11412182882646,57.74463037839874,52.83869279157628,44.618115515899376,46.44051255773048,44.674575270403956,36.45492178252574,38.725294262095794,44.232816847160535,39.734390812570794,39.195715192080726,45.633137756907665,41.97320344702641,34.89301623050105,36.988365984750814,34.46386524627085,25.643256414618964,28.761526909793588,35.70873734217242,30.782833034629235,26.569965927867937,26.968910406831245,17.71073242102343,8.480547713236877,12.389713129980386,13.122516434076285,5.682642142461928,6.996429910928207,10.781529616481393,4.6809017990354285,3.224190106793533,8.5699566072727,2.546885011894668,-6.59649660649608,-4.08757849542168,-3.8599950949997393,-9.33926913319792,-4.853977472708674,0.577115501366787,-6.10974874509416,-9.54166392573218,-6.057146105965405,-12.111172668555563,-19.894660854412653,-16.356535016698864,-15.901250157439115,-22.31543732180733,-20.3302848023924,-17.684700956710174,-25.338394052375865,-27.083858100422272,-20.326611470549203,-23.56808826943312,-30.595909192945673,-28.789594758434177,-31.432268008580344,-39.47201600742845,-35.42418899042921,-27.96111428259092,-30.830319626841263,-30.318399764363676,-24.609498123323373,-30.553773218477406,-39.605079602491465,-37.62521859901971,-38.006987781611855,-43.87270193946415,-39.10940651842318,-32.1105087095233,-36.97173293862678,-39.62580237752221,-36.598707814250986,-43.33919985212932,-50.28593774111485,-44.727647140620604,-43.427123822145425,-50.599464817996186,-49.05465096336778,-44.7768218606133,-48.70825207280255,-46.60489126276645,-37.74112092852298,-39.63694260360912,-42.47146211240009,-30.339113711628777,-15.76987898928016,-1.5123525342173396,26.74924447178551,57.27321125633368,73.47557841482875,86.49206591738752,97.28051941020331,89.99843981471626,74.40789603172769,65.0689192984495,49.88454253738818,28.021220556224574,16.11010467030539,6.931109992122601,-10.502767438188489,-21.52872686522156,-23.89232051580032,-34.704276833068256,-47.77343887048918,-51.52478307349215,-58.96535145160891,-70.12732707251108,-68.16341043165221,-63.64474813891903,-71.24099748772207,-76.23014812868459,-74.50425175698142,-80.3354107163456,-84.95133072606075,-78.7632943465686,-79.67019428960123,-89.79173700523451,-90.61161822371928,-89.01409501887413,-95.67609043188496,-94.93827824821874,-85.92965075461474,-86.27104204750088,-87.83488566310658,-79.74913645982419,-77.724788559959,-82.39276425416499,-75.54052050793631,-65.8805520628307,-66.8824322967827,-64.65774309834858,-57.63181641094947,-61.6441761227792,-66.35765851176976,-58.84296894760181,-55.743239263464375,-60.78085343884553,-56.7855850387533,-50.474162673985134,-52.47778958950703,-48.29856318179475,-38.6944701460596,-41.92520027831465,-48.82256911614467,-45.59295788545424,-44.48164167013998,-46.43936197883407,-37.510107690030864,-28.144137493690597,-29.278927462553597,-24.813063348286363,-13.515654016638281,-13.041225250094612,-15.967956658187177,-11.275570967471946,-11.987689694022588,-16.37915800995378,-8.160994381498984,1.2669010026439338,-0.8902703176118814,0.29747755386623975,6.404086530206207,1.9877632125423348,-3.8585986596190875,0.24070799145448563,0.20141632691468292,-4.450146763433759,2.256453937238683,10.060145906128087,6.503633647179416,7.4050678569353385,15.139337395426033,13.438531649788054,11.057624602423271,18.76477300837031,20.5767157117058,15.965385240343323,21.94623327797965,28.928189686729997,25.63274592668186,27.573677163263504,35.01747712143945,30.728382665053218,24.195617651998646,27.64658390161684,27.062689308933052,22.70957985939362,29.856933215814255,36.83613535339248,32.36145922127406,32.615044405130384,38.053255794798105,32.43503630358708,25.521797443262738,28.3989904224994,27.204887328536334,22.380222923102878,27.577783845065426,30.60120866329447,21.461698217333286,18.00321647697005,22.602858747702832,19.129354280625765,15.065093622621585,19.295237127527695,16.346438107169693,7.1373054614999285,9.403582179586314,14.548629106754513,12.09623733667631,16.233560482008297,24.51839322598379,19.461230175744053,13.28729875487489,20.356497013003487,26.001914873239766,27.184543943535456,35.7411457748143,40.09524861526865,32.49319730909581,32.54664292297549,41.07138318652219,39.018650162350525,33.816708652604426,36.57428891964353,33.52941766214853,25.991410796186052,30.428404556179025,36.35679548743908,32.958725595008985,35.492834948449854,43.113106296682346,39.04748642758154,33.69212075305307,38.6520109832989,38.753752523672574,33.491021299708,38.09238001401974,42.180570414538565,36.30220285874216,37.345627516897174,44.85138370220933,41.27228058623605,35.7523337863834,38.90575177868484,36.235303685277316,28.72743664047546,32.40537241989404,36.70534667101816,30.882481491422183,31.033238274784125,37.82461246448455,35.04000028169397,31.771306069016426,37.55870174859885,36.620393808133166,29.412829274972527,32.48917702354807,36.16252582208713,29.84796295617819,28.926028376804204,33.740876298124554,28.472220216902812,22.71912501525188,26.498269071363993,24.197379038257466,16.51140035105736,20.275321239583167,25.55919945235337,21.61652085339711,23.063282727256233,28.312154091083077,21.204933079547093,13.626128400285825,17.72045398374301,18.23874117007517,14.577117012683381,20.919403957841052,24.967172613876592,16.44854429697145,13.441606121064407,17.541375457215388,12.881130908822644,8.728335467439699,14.044471818215696,12.875960736262604,6.163134735206086,10.181880810888824,14.445716435310127,8.19942274799696,7.032336062598839,11.51604815677166,6.101540182260392,0.050233291341297504,2.9240180812375054,0.07304315064392064,-6.657147530160529,-1.055125044108319,5.17944036695388,-0.44204118900338196,-3.163412270509136,-1.466618257769763,-8.64141073643845,-13.726882197566871,-8.007578948230456,-8.584718406879302,-14.982957413922012,-4.240636120763963,28.70591742665285,68.94064196778245,99.62478983934699,108.69506076331815,90.51609011878679,54.795577590861214,32.36737020574212,38.90890706420878,48.63491546443821,42.81423253300318,36.37348975455417,32.860282428703506,22.432139261155875,13.487975265075937,2.753390430191058,-31.773956859972653,-77.30387806536557,-101.61069371053594,-106.25011112062775,-102.44318801772623,-87.2388792794306,-74.57452507116334,-81.77315577409547,-91.28587230798622,-87.33973364467982,-85.4867842660734,-88.45910297944965,-82.94164136749039,-78.843474393168,-82.88289232422964,-76.93920041697903,-63.66883689849831,-62.459652491277424,-63.502063945373415,-55.98828179374755,-55.21471783669638,-60.0017427117633,-53.99390231480922,-47.454889634381516,-50.703489377075016,-49.221989667412096,-43.928372757963075,-48.54009521526895,-50.80105962922751,-42.36968625657606,-41.17095530746931,-46.40901791663221,-41.41989947392801,-35.529277549841794,-37.595304406619654,-33.43612389935955,-25.978981464056012,-30.560806453631077,-35.010859075337194,-28.646746815055927,-26.97900807126644,-29.742481723777676,-22.24271766572159,-15.587242643150194,-19.238156796631984,-17.463384922892082,-11.70860095440808,-17.226633171409286,-22.238191067304886,-17.22423296518578,-18.13100974764147,-23.257969876295075,-17.631730605123394,-13.169269242031003,-18.764477355581704,-18.374886527830053,-13.357684952562076,-17.271968768864227,-17.994835023093124,-8.586794028315209,-7.118960316998954,-12.245694030965181,-8.087702954705078,-4.274502535845963,-7.626091144439795,-2.3352072366743846,7.450435155536804,5.051079371803909,2.194043645379436,8.037727425033895,6.715551064995797,0.3898370129852693,4.0632477002167455,5.926191646162128,-1.9132921568806194,-1.843462246822214,4.816317275201795,2.1879139272049803,0.352980163184923,6.42067212767371,3.8382230744799046,-3.875539950890847,0.8797875637090047,7.568425060417448,6.352618241384103,11.065583798869184,18.382071674405246,13.72379044574328,9.989736768267761,16.412155604643655,16.702189999237117,12.334472347479068,17.538881089225534,20.405082420296587,13.307300423663676,12.711126111544386,16.426438765560153,10.659975035251858,8.038461022569926,16.077627086716543,17.260914116506655,12.741097811468602,17.0163387418095,19.05725398066975,11.926458079329967,12.472588433412373,18.068244944501153,13.07281003040014,9.072124075252216,15.0267251589398,15.466679776184687,12.04860407937112,18.30265242971398,22.009783982311063,15.53370391426886,15.203471967564793,18.655620314905075,11.914618111864396,7.583580819802531,13.917409039568549,15.02623039563693,12.511891795023466,18.85250448082766,21.511769236412135,14.339717740827417,14.966612563437808,20.97994323294584,16.97263223768433,13.653006521515952,18.726363120525356,17.067695255041087,11.844018701099422,17.5708304395025,21.772045685444702,16.15678078570162,17.224045081346993,23.09212204753893,19.011619416743443,15.841536501389658,20.618294263482948,17.463220706230686,9.869223933804975,13.171259259600935,15.7308758022339,9.62832533674522,10.52595964706652,16.23274364951812,13.136806056701193,12.109232971159813,18.389517598910462,14.922203972037455,5.377384637153863,6.1514153915175,7.3952022446921895,2.5038854629157545,6.385130904795189,13.89186659250435,9.471965828311646,5.592751805469481,10.184712617080418,7.850408287610859,2.4570089083671767,8.236842164223987,12.468041096915533,7.543661210162286,9.436421256742044,15.19918045982999,10.320920864693226,6.040416759406069,9.278194646950867,4.586356929291456,-4.37177470537635,-2.6980622597245643,-1.56888090133873,-7.9202226803939695,-6.228903306252838,-0.05096007114891421,-3.842739618476923,-5.590229293003655,2.097834291993044,3.220374744764266,-0.14126558825377344,4.5868007060876925,5.297042315423535,-2.6237475664017347,-0.2218471792062955,10.229425697757305,12.905333862006124,17.34896691336025,30.301158280613365,39.292322775365946,51.23744952568518,79.31844624421655,105.63590048819506,116.13903818930197,123.27005465711248,124.76571473303952,109.84232937364436,94.57806168746203,87.80182073543372,73.89735687211913,58.104268316891094,55.39321202829683,51.549209480020075,38.073218882656136,30.390215195569873,24.865388208072016,9.449912905326922,-1.5017759779253586,-2.295457130766506,-10.916888433590362,-24.553210486449014,-28.85188725653965,-34.36425154215578,-45.73778604160114,-46.78571851161975,-42.69589112810846,-48.888942643079695,-54.23066084253421,-52.90602056817033,-60.37001054705013,-71.75363854966047,-71.72147631693362,-71.61147910455233,-78.43345753432085,-76.92082833237652,-71.10216169275569,-74.77406821136358,-75.19223242724652,-66.99468913514622,-68.18508644946189,-74.77439471517629,-70.50554955615488,-65.6678588621441,-66.45658783602268,-59.17434869226215,-51.34560788237721,-57.801904628908346,-63.3738954855491,-59.157947643459586,-60.67277633846146,-65.09807700005308,-61.06106609182885,-61.83928759717787,-70.62874361090991,-67.93944026251508,-57.635252857251515,-56.048154518966186,-54.00216778384677,-47.15368788989632,-49.95612015084775,-54.53222112722634,-44.93658894645731,-35.152747413622436,-34.42508902408681,-28.87155276421736,-22.875866174791746,-28.685550673223023,-32.146172334604515,-26.640967420507415,-28.318088722073387,-33.71481289938391,-29.72474346002774,-28.15918163130738,-34.11683824324223,-31.29900565423091,-23.19431234023191,-23.16499755050752,-20.11111091403897,-9.746862707812049,-8.990219000051681,-13.766722723285099,-8.576784744560552,-3.3244324160365313,-3.3209979189174357,6.024127249136589,17.785340388147773,16.033930543194998,13.408249735895211,17.553953393186166,14.305058726088468,8.672651752771905,13.32891602307659,14.687688380115075,7.212981104467806,8.067486408790568,13.917438282926424,11.32058692422667,11.19470032725171,16.990844866988194,13.419856295524367,8.18645603454466,16.417287694939905,24.138440377232214,22.96412824113818,27.085462107668427,32.738242463448564,28.252963482307756,26.45970982981258,31.224515001188806,25.029893641186302,13.549569804116429,13.40986298486174,13.857744762449697,8.907707649756304,12.912716908953868,19.535697476999275,14.74623935331211,11.43972123449725,15.033160944964196,10.369378227300404,3.614868805912659,8.34343934529329,11.94103570009429,9.646947833213833,16.708415718991976,27.12171625552596,26.78197124034059,26.879590211006317,31.605339202022712,26.631192746176744,19.221644044603188,23.11052495684232,24.967642191027004,19.20160775510343,21.19329150227668,26.25031147026464,22.77612719243337,24.088599912269345,32.96617749105051,31.464666993692937,25.494198332397467,29.832371643765992,32.38666279913466,28.468424053688956,33.2285847819955,39.7866204141662,34.45817372847292,31.62462381623517,36.95195475897912,33.05612092960195,24.383066082807773,25.061474892563055,23.34388026545529,15.8598009635319,19.76107459595642,28.803443812085277,27.52074808382798,27.238084015998158,32.02228271148251,26.429416077092558,17.881999295020243,20.630962527487288,21.427981625471563,15.901567729471257,20.09454740713071,27.656494354957363,24.721588978238913,23.49322251106931,28.148122670266815,23.966372604676838,18.570514150917543,25.62113817836955,30.281216025181358,25.554753857668214,27.123122767998016,31.107720121494083,25.894291590132802,25.046951655174382,32.20753051416043,29.31695249619095,21.399264731386126,22.941381299208167,22.29961763590072,15.903839324666697,20.11327414011774,28.360989318570105,25.563968679888927,23.497605182180887,27.451554882509555,23.255788781300694,17.925748736226403,24.27226331321599,27.253096291200194,21.01392816441403,21.708436256576018,24.580750994164738,18.09507933411863,15.650359420989014,20.07117126242899,14.869389181008305,7.071102626136762,10.257277603970875,11.197363933115028,5.47899307092999,7.989253965869962,11.840382680731414,4.792001609780477,1.4271347772191376,6.622091395306098,4.0283418224954834,-1.3613408838731036,2.2175254271758806,1.0965744925297385,-7.5832407297477165,-6.308537962596652,-1.1794531569099465,-5.658340703729551,-6.564108457479433,-0.028402519049945063,-2.1506014664119513,-6.85440042970647,-2.4213695673097133,-3.6637170264004846,-14.282701558207368,-16.14638549594145,-13.535259702728851,-18.421561163314863,-17.813741682821153,-9.896587928807463,-12.504675469650648,-19.117647464556647,-15.993887098146413,-15.359045308769765,-20.02804627394138,-14.788581979057629,-7.616983181190171,-11.593887444316152,-13.029683576685915,-8.339721275854142,-13.47270607752622,-21.211059105496737,-18.46849863834203,-18.98175165233766,-26.01331258113332,-23.444175366015433,-18.51872117407961,-23.306913622446295,-22.9553700417985,-14.1226237142685,-14.490606027321078,-18.951293701452165,-15.376726830183628,-16.83312163886558,-25.064689522058856,-22.258894021198245,-15.414742454975507,-18.517040561827933,-18.856094234027065,-13.903155222104163,-19.8517919527157,-28.298316387233378,-25.08067595111213,-23.593765670167492,-27.43414987064832,-21.73922210489075,-15.280901739256285,-20.686653785582266,-22.659994698072477,-17.598800577249087,-22.268979100015784,-29.29555901070979,-25.314992054913475,-23.88307809626,-28.130891145836777,-22.64292066774511,-15.820007517008655,-19.975046989033725,-19.716094743770014,-11.730903406212857,-13.634982757146055,-19.524679937442855,-16.38528757273319,-16.114962770410195,-20.612571791958096,-14.680629912835784,-7.648194030940036,-13.580859737673158,-17.946613551367122,-15.565067312555154,-21.416199643830147,-28.695849852687928,-25.541304054692304,-25.887507177229644,-32.30355534754992,-28.15241962194559,-20.670279499121442,-22.757637335344924,-20.88736319494106,-12.067221813103213,-12.140419537424634,-14.343217346156315,-7.6732195358759,-6.692241912028443,-13.634858893231986,-11.546199586167583,-7.1091228839700396,-12.198701964141756,-13.332038974159527,-8.660913685713957,-13.997125990332828,-20.88605474192096,-17.10173995914814,-17.2989036221218,-24.112448900271204,-21.298658276821936,-15.975374035933406,-18.945192109884335,-16.041845953081214,-6.943594031677328,-9.494487450140234,-15.813573463979255,-12.039927906973466,-10.257186611571932,-12.665535665465017,-5.063463007778669,2.4981492830239906,-2.8344572869677958,-4.9909533315711085,0.8315793463521635,-1.7545519070327218,-7.0087318020636244,-3.683314372190989,-5.3454394989357175,-13.139556304423177,-9.702921184833393,-2.862748504277416,-5.8014681744116565,-4.931815030166544,2.2400588890235884,-0.08200459799209625,-4.106709836930779,1.772345247918501,3.0308188335011126,-2.454245081116236,1.7807052790081483,7.934519082403684,3.9049324136177974,4.195860238142641,11.242727619288754,8.516661960111755,3.474971380634076,7.797801206615906,6.7535677353900265,-1.7762319703244827,-0.2940664455220552,4.84993964962441,2.0796488936595368,5.056328984802525,14.461634250879703,12.422216949379123,6.525353429326241,9.386231344419821,7.442782150594983,-0.4267633187831761,2.4762087182707804,7.916000921444135,3.841806018942141,4.5557106329838835,12.36907897594795,11.73868462231664,10.104763251526675,17.39468756262728,17.703336382486068,8.736751620264815,7.961387320421086,10.223773152122739,5.766434783510307,7.564093827407945,14.799450171782897,10.557659317461392,3.9081730185026307,8.03385279329516,9.595609626235792,6.304893791585232,12.252458235965165,17.406609182238256,10.468970644344495,7.396299800846548,10.334436177753268,3.7008965588684175,-2.7847679734158737,2.8220707697757264,5.39750045232901,2.551462338361571,8.701273589387561,14.211029763545666,8.31516985149368,6.704331096457009,11.803767304342859,8.494322446756017,4.691496276450945,10.363331629330315,10.336977165489968,2.982658630623676,4.964050573794462,9.556324217985477,6.496241382630878,9.470405772346563,17.687898126810474,13.549358962617134,5.658371928656065,6.85862955083234,4.706742262926406,-0.9114160482571028,5.450007309136163,13.783858820613704,11.137510743114772,10.67962301992118,14.142853862767678,7.682219883850467,1.6878600317063635,7.827113198217337,10.241409228066205,5.628088270561853,9.165264942146415,13.394094857218759,8.605042608041746,9.540325170447773,16.467884162792142,12.654127245289096,6.930488053096688,11.418060399945608,12.009245409963738,7.0584202952114685,11.82977157393361,17.436521033576813,12.841358086787235,12.68229373174682,18.016750548026184,13.09994469578162,6.818128954277973,10.226516442755667,9.282349107985894,4.070947033639837,11.808535404712666,25.77975478170385,35.59429922031664,53.53012864752695,77.78780125708863,90.71171935841043,100.34288745701932,117.62982951877494,127.55919413679003,128.06989203469828,132.39685244586764,129.92786491065988,112.27616238533368,98.1100774106836,90.72545565313128,76.05111656033175,62.73993687702884,58.91262813909507,48.82478730947127,32.85977298402686,26.788525666930106,21.102682732088518,5.682364202936783,-3.884200060892779,-6.512071817759747,-17.50715049586443,-27.67729824863946,-27.188673506325173,-31.275157796876606,-39.756312916647595,-36.92445030185553,-33.983814786804146,-43.074571483797605,-48.42746783852159,-48.20497330530051,-57.315146253819876,-65.28072861157818,-61.522862926511294,-62.872062251017425,-70.61165159163073,-68.1595548429228,-65.03985434292619,-72.78798123634391,-76.18661806245052,-73.48381554906223,-79.27356263644377,-84.16148526171582,-78.65147154878183,-79.16235245285614,-86.47850018477051,-83.43256142112462,-78.05134382282336,-81.20195090562824,-79.52349562517227,-73.50908675325415,-77.56029453840253,-80.64974617793551,-72.3595930366885,-69.04897812624746,-72.62283193068446,-67.7808710522429,-62.576591225603366,-66.0175757119961,-63.67515812544365,-57.15445062997654,-62.67447501581491,-68.90577533529117,-62.83913322159192,-58.13307962363616,-56.362387863729325,-45.75889394242718,-39.026317746552174,-45.59456175302425,-46.32726318608775,-38.093008753714344,-36.94677000189478,-35.59678036907202,-26.051523582958218,-24.271476853049037,-29.234239411306945,-23.74202519707343,-16.87072266282606,-19.25391552232309,-16.437270769362236,-8.696397750950318,-11.709460276643515,-15.469412517289634,-9.368813610881666,-8.844865881475767,-14.167189242174992,-9.165581379081901,-2.8185280332042346,-4.644262297123542,0.35425667698805663,10.294027259437955,7.838230204938633,3.3492462014908426,8.72393317721279,9.500509604302726,5.596306872968648,11.88936820858255,17.486286389503313,12.447390797076856,13.195517531686141,20.401633158565435,18.765926349634196,17.83132800778118,26.417019978546378,27.62686655954353,21.128521983904456,23.395957528852865,25.652065187842894,19.472637193128286,21.271837703399555,29.85567827213492,28.21887987498502,25.6844026546476,31.919632491794683,31.9319508001113,26.4891320756455,31.32995028186514,36.56562142989721,31.94698045034501,32.481623463954136,38.311952573829515,34.29671455337402,29.9458133170657,34.467776238109614,32.94986134076119,26.83863485560793,31.811200419863876,37.57319518723684,34.159550195748025,35.81747618278516,41.89763894836961,38.75460027185902,37.14205363919658,45.04824376568138,45.1147486531265,37.34623412464839,38.119548868968664,38.572551291932854,30.30619246201336,29.100577197802004,32.97598102635874,25.1571551285532,16.504476421813994,17.68077579165057,13.416209715878232,5.307207085667297,10.247703346100472,17.095136511115946,13.658587047680706,14.226425133789391,18.559907436553218,12.32063107100755,8.146228947092032,17.309101612297162,22.07289012140596,18.95160401845523,21.736106952660847,21.536474023813852,11.56472693844973,9.386022413500243,13.710308354433284,7.372218722410856,1.8091665203688965,9.92914378799786,17.032963558008362,20.163200202839484,29.30080850431,31.877048109004996,22.257300431350743,22.231200124966247,33.072131738147384,35.15984149161443,32.98953378206054,34.3547585807854,26.418702593043225,13.508205141666291,13.040867407686104,14.788567436279383,9.296705620000887,12.152031705033279,21.085636305614713,18.792260048917164,14.934382651068457,19.158077401837918,17.24469881122079,11.551967994604196,17.464897428236995,23.535838307481733,19.306744291271478,19.807769606740603,24.543286668268657,18.917995222175286,14.08623017130675,19.492183584836535,18.63444803929611,11.39096514552201,13.408392980620796,15.830786136425239,10.394416719481885,12.006451494625168,18.785391369435,15.093944338163586,13.100360337025439,32.77194494299683,75.19822693317111,137.40903302654937,201.31188057879433,229.0783652381886,210.45528433393508,171.5310715469733,137.69498571239993,126.01316204728488,136.89912312611412,148.35464474579214,153.9864320479548,164.1921492435801,167.72250937297846,153.07326348478273,130.6700414550895,105.48534624102592,82.83822808054585,77.62174324707013,79.44171854710241,65.81757149878658,46.75687986123638,36.129458821636376,23.873588708198064,11.526692145494135,9.453298297983357,5.046952978856186,-7.445667764113631,-11.025076327977331,-9.520372357886647,-19.33035416370091,-28.524682407254083,-28.522819654479598,-36.9275259432255,-52.503107335893006,-58.161193801065984,-62.23087977968664,-71.94285319644844,-72.60258027825297,-68.25809037011379,-75.34581965153484,-83.23594960094799,-83.56725961573143,-91.19542268320217,-102.41017405889966,-101.5972244105592,-100.32716917480114,-106.92001567761069,-106.24779950460581,-102.08098411239229,-110.10253013649961,-118.40155648794747,-117.23226877923499,-120.76448599423803,-126.8882160557066,-122.56257532830867,-120.43980939875387,-128.37057665925994,-129.32977398266996,-124.40108121417845,-128.07954243786125,-130.19283991825964,-124.19244606292037,-125.70832040783145,-131.22162801584534,-125.6458091004113,-121.0229933883431,-125.65183537409567,-123.38186698762121,-116.62101145400877,-120.02028232997377,-118.19340950874982,-90.90000619779089,-46.20242006975837,-2.7777994027303006,25.79105090532548,29.690566148278855,7.748094958511757,-20.01387890252189,-24.854729230347957,-12.275352411683654,-12.983589898447024,-26.003011695631464,-31.70250164176537,-36.25471611175456,-43.984170361996725,-41.13359583525507,-36.19177259721878,-44.81320895393494,-50.88265464250479,-45.61750802391251,-48.96710447162876,-59.970811913222725,-60.56347505841286,-58.8634229280366,-62.88769955644119,-59.50463556761616,-53.26286900430484,-58.330801781157575,-62.18411297437142,-57.40736760452599,-59.718784713912655,-65.54554669994826,-60.66376726026384,-57.35170697343038,-62.3031612340612,-59.04601497200956,-51.42867438259783,-55.0243986612644,-58.42372317982263,-53.90654329106501,-56.23149051761193,-61.281033406969804,-54.46646130810953,-48.54942464358538,-51.96741995907725,-48.56021872731924,-40.380375543786904,-41.906424512178695,-42.071844863320656,-34.37849764779962,-35.37795341655368,-41.42429269021652,-36.63259701856549,-32.49166448024513,-36.80605985565456,-34.02712808840309,-27.564251868861476,-31.47640501126318,-32.89340771290693,-24.142973473406926,-21.716500977344587,-23.61393149974071,-16.264546337949742,-11.917224549818865,-17.183778273876246,-13.980857332160195,-4.366961205309457,-4.198929173248848,-3.3686085380836204,3.9287695417445065,-9.711815184318594,-69.35873914501721,-170.53076667100433,-289.9800882799167,-385.80973737746626,-405.6515388811059,-348.10256312200016,-274.8389373870692,-231.62599843791617,-219.76180864257796,-223.525996928788,-214.61269529853965,-179.4002643236343,-144.65288169433364,-128.72848652110065,-114.19313215641677,-94.38211355411445,-78.25946177043389,-58.69925358906259,-35.267958075411194,-23.525856467415714,-15.840096743111893,2.8913194632175383,18.633267943637154,24.70282185871673,39.503496729884176,60.13774348640412,69.9157741027391,78.3235767556061,92.10375614166762,97.71699583167151,100.8233253754461,115.14406412847192,127.21333912238696,129.68961391654693,137.97243107226973,148.64154120273852,149.34378596557792,153.4573614917964,166.50281122521923,170.8006756135174,169.93709625703633,178.61488249476253,184.5495568612281,181.0386404888384,184.55175222691548,191.67579961419946,188.5255752929602,188.19918894564992,197.42095434684322,198.7656974155516,195.3045114087742,201.4001065204684,204.4504735228257,198.5417151388462,201.73710441192247,210.61961519142318,209.61563829681037,209.73023497695547,216.54597089376648,214.01717845139075,207.64330189579752,212.8877196303264,217.12561268411537,213.31916612386408,218.0395308856751,228.69272405158415,232.12403794379998,239.90124917575258,256.14281063373767,262.744253431853,262.67386320295657,268.8459447265323,267.58737925450043,252.84548070648984,242.59842635815642,235.45229670938684,219.6520286713486,206.99392619597535,200.6795464352018,183.53530490117802,162.03023895759154,152.67396063432034,144.11404084326597,130.29862261054706,125.53617669628034,123.60847456400404,110.69516154002383,99.28184715227401,94.5645679100625,81.18098434005954,65.2393535019443,61.05287863995653,54.64494722905262,38.818301045288514,30.6572686044586,27.723250879083103,16.96510381712554,10.635622167626265,13.075717905903222,5.70993567571616,-8.008453273180873,-12.843449063695711,-19.0659869661288,-30.492162826125426,-30.047178077103066,-23.553440878322355,-28.37034700546321,-34.47800395373928,-35.18539136457183,-43.56695043163285,-53.1035741966579,-50.99991966998784,-52.141158518211626,-61.91317518475499,-61.6427624444416,-55.23851499017276,-58.14846094216935,-60.10623418005459,-57.22191705004353,-64.14521237256918,-72.53413460836505,-67.41925117538648,-63.26288525476667,-67.92122360954407,-66.78438340510071,-64.2664969450459,-71.47690474408795,-73.57546129588,-65.91115416969579,-66.73318358146604,-72.64415427603592,-70.93567728668671,-73.42697441983819,-82.04911792757848,-79.7474858720424,-74.35446119475017,-80.1822350058178,-83.25610747724588,-78.89500259553964,-82.97398563503576,-89.306264616937,-85.03697312584276,-83.23201883327552,-87.4545374001219,-81.19421868205293,-71.45011175650384,-73.53902741652344,-74.8287043083123,-69.73525993068816,-73.96446244357168,-81.47248700035341,-77.13063199152202,-72.83573556815567,-74.14527186626562,-66.35931248017631,-57.12899646464837,-61.57068800806306,-65.424981790964,-61.49466647308139,-65.3584453465801,-72.29260960692454,-69.31045731510685,-69.00225963677123,-75.21111288800333,-71.29282988095521,-63.45723304332828,-66.00997077290171,-65.82750957584862,-57.975483545353796,-58.912436200109816,-63.063143043325866,-56.88359360545472,-53.353880748872015,-56.86795409238091,-51.866544050864306,-45.814422876186796,-52.62954855588077,-57.04586288031416,-52.09520420489202,-53.79450305952915,-57.71066811579874,-52.13020684562936,-51.05295694200595,-57.928057507296145,-55.011698206536316,-48.051492500214536,-51.05604142012026,-50.89265460167074,-43.0323383709099,-44.22423615425578,-49.8817584966672,-48.21197914390783,-51.481303997143854,-60.14610697749219,-55.77673319170793,-46.33334938041623,-48.8229193568208,-52.67856286934473,-52.74242291954746,-60.47086073269412,-65.80000180252027,-56.20189026068044,-48.755699279721306,-50.95521071924205,-47.636845574899354,-43.39239190166798,-48.15519055840066,-46.44708268738351,-35.416296396879204,-34.28051247035596,-38.52059867969605,-34.28693587355797,-31.95947050963835,-32.871936155644306,-22.216098509653435,-10.636565163372286,-13.414696640656194,-15.245098782006686,-8.713965846090876,-8.435550145927266,-10.041410455755138,-3.9602613929961836,-4.471291064984062,-12.92464066731615,-10.3278168382239,-2.604649272752238,-4.532676119356273,-4.440546763914236,1.8497445755205995,-0.18086004721952165,-3.1141001756897655,5.515928001734031,10.258746894051297,5.467129992982366,7.470945151156584,11.458864802342063,5.8458510673225685,3.9376855116031884,8.391510935888947,2.731586621038326,-5.7069884912315825,-3.2126353086260013,-3.2796025053607027,-10.2474558557342,-8.960506627973466,-5.877339693504913,-11.872147523954162,-12.416450541268388,-5.34613314769242,-7.744551981445662,-12.141816150030511,-5.524312067062148,-2.0389433672447796,-4.938617149891624,2.026269393932503,11.492834550662975,11.047796155153662,14.981442913485632,25.40698312720593,24.481756130468735,19.767482904000097,25.377346122194044,27.45393675233693,22.056886026008858,25.198530016468812,30.04073586675569,24.681137484066213,24.235735646100682,32.703883942227534,32.89883010676408,29.857226589300506,35.19617964112789,35.579581519022426,28.981691214822153,32.58831418531683,39.60375667445024,36.773771456083466,36.881324188512615,43.06563792566031,40.101631912624214,35.27387829408087,40.58849499025302,42.06503463959457,36.88604075079276,41.260336944253424,47.357923257032375,41.31427571198071,36.50193407278711,37.55786058045357,30.420621837369207,23.543002211655356,29.391404835323982,32.00299134768069,26.64661353734143,30.240634437451135,36.62738563896,33.28180232598332,33.6359088710607,39.88942870510265,35.1576974483571,27.428136418420245,30.81539303967248,31.49215671538513,25.650611020465213,29.325553344874876,35.00747989036413,30.064408982375816,28.70163102421585,32.971118255298215,25.55828107838144,15.049288065785206,16.210459301143548,15.676506642613324,9.923864962121073,14.069965254944254,19.678354941554005,15.086595909067201,15.9001176953687,24.129576668212966,21.192678383981743,13.346098055168717,13.726700260487762,10.773107553062486,4.234295527194798,10.245644899180574,19.115587426469613,16.544521028857783,15.712051635234072,19.275812826738143,12.174913556219458,3.70912439717899,6.2239838914827645,4.070442025879597,-5.551543593510257,-5.470870133252647,-2.4697013929050096,-7.205495236178409,-4.690861074942854,5.005414874580904,2.415095810160799,-4.5555988423635725,-1.9336439941800037,-3.1749699020373683,-9.679765929712627,-4.566657310860973,3.029138154626046,-0.5172989694223724,-0.9650583641725579,4.631317952135632,0.6813578729863257,-4.579893758237191,0.18326396713141602,-1.1239042631677427,-11.878946417014891,-14.562249149931443,-13.600153614417264,-18.501183022629867,-15.864762796689698,-6.473645497946447,-8.57832651736503,-14.06120980850775,-9.992338179700532,-10.313223965185642,-16.99949703414481,-14.02334571323378,-9.24659164968214,-13.139098437127435,-10.649302071836985,-1.915331586323488,-5.530325553125323,-12.83399950460769,-10.040112588661346,-10.883613959771854,-17.49538802981749,-14.636634698718803,-11.643089806422331,-19.321125978688226,-20.809585983811445,-13.934851784553567,-16.54890599369692,-21.348201641757083,-16.57994667381856,-16.31785276906363,-21.3188521908409,-15.543616425823334,-8.745571877062105,-12.755230433009896,-11.973901672181997,-4.483159742745839,-7.0340537194843815,-11.54372129548235,-6.579275658065777,-7.09584751469949,-14.20607715930392,-10.647240055761142,-4.824191419751366,-8.774372131277076,-7.727574456762685,-0.5402908160910469,-4.323753610739953,-10.34347960849411,-6.283104472965778,-6.693029754071112,-12.942772188038116,-8.779497347133212,-3.4315438600030173,-8.711132797913537,-9.24435864432429,-3.3478644857001996,-7.322426372940484,-12.302934143990337,-6.924355188655586,-6.527449021375639,-12.698829283855735,-8.766142086999643,-3.2453000184020238,-8.290757936707195,-9.268598971616985,-3.88437313419906,-7.382080135651229,-10.926396281970042,-4.2303769681416865,-4.052613737993463,-12.482759290529469,-11.503930136917585,-7.168460462115657,-10.214714291430736,-7.6834818123681305,-1.1299575461519744,-7.414894129159919,-15.130253703562145,-10.864026967744412,-10.28740819614763,-15.937073756766903,-12.148306350748083,-7.661821979256676,-12.633337432432295,-11.021214969111014,-2.3774820710699904,-4.164617187061768,-7.7111854159104665,-1.9443933910621274,-2.2132199592725836,-9.28106461175075,-6.148239735240756,-0.8768690213976176,-3.919357778948313,-0.7815818532376055,7.53630538971165,3.5531281020264074,-3.1384603923207193,-0.19943693476554936,-1.2302091242327982,-5.79890320530361,1.4081544565165443,8.55021201083843,3.695845246102252,3.45655751226829,9.75800142463549,6.524405818057256,2.5897130875328265,7.698974273051434,5.734626660302089,-2.679836550270961,0.742155902565028,7.109180550866765,4.44067146460287,6.82360371119719,14.475111262567987,11.320786264873387,6.817097182147765,11.551802723046313,9.904545376162549,1.9712995958553259,5.0263544873543005,9.978712777929893,5.597754146636145,6.184821531035854,11.65655777005048,7.204628297395294,4.054763561947768,12.05658260267768,13.41584926027333,7.123773127677172,10.395328458831411,14.857090393054705,10.46676469348281,11.604836144605704,16.967035433175045,10.54150518654836,3.5097548989461247,7.98201044098955,8.798709110748332,4.112578020270676,8.713645352791817,14.996761167724808,15.732049380072171,27.223726846624153,49.115391128226136,63.54291875619697,76.82386389679172,98.00717711816353,112.72619776346392,119.92423264132898,131.3866171981188,134.66253084251898,121.03808158265959,109.36089307297114,103.07172911988476,88.22081963453107,72.92916904775855,64.99652830128056,50.23353840806601,31.81504389134851,26.752290593635337,24.291371512957053,12.719375296969638,6.357374023265727,5.380129824278876,-5.278660241202725,-16.175652465375833,-17.965537591636544,-25.673069355889766,-37.649536311446454,-36.979444925620385,-34.25277284859221,-41.56770446817626,-45.22842179475731,-45.2867060424642,-55.110791568395385,-62.804700131221466,-59.199486869103104,-61.97479612689678,-71.72474262558104,-71.65938432783487,-70.43339121419075,-77.06658631813431,-75.79820467381973,-68.1322802741129,-70.58014277451302,-72.11670902202371,-63.25882319930709,-62.37411999072775,-70.07009767927879,-68.12672440026829,-63.959977772017,-65.95167634854569,-58.79500289841111,-47.083850744619376,-50.85725841518621,-58.61981761956883,-56.11871270590318,-56.67267932399615,-60.383251613472225,-53.312050600919704,-47.34336937338024,-52.46509041248228,-50.76985504817019,-41.2496681993199,-42.02697248437185,-45.44602541588396,-41.050949620052876,-42.7740328981873,-48.671439195942526,-42.57636785013279,-36.373991660321735,-40.970365272217855,-39.29426074788087,-29.963510353741064,-28.418796270260465,-26.82692083397061,-19.07761545318491,-21.144363040976593,-28.616631192883546,-22.226691953440927,-11.58989254346792,-9.031033876071799,-3.164070307720175,3.6549214863503625,-2.0745089970099007,-6.865124062331965,-0.39913303055297167,0.09621959195226437,-5.674517404806689,-2.550031072073769,-0.3129034207244593,-5.623276831696341,-1.198808288759568,9.865927623736512,9.31221882768841,7.2943401671119945,13.87406511287895,13.693090152962785,8.426974086759788,13.67070647641443,17.541892307945034,11.584897270425436,14.575653332770443,24.677714090720826,22.81911627916392,18.831532232754896,22.78265058793937,19.85667050644919,13.328945420431857,18.74381517408566,22.71937695179153,16.10976018335301,17.178215803398945,24.321383538000948,20.325882973489154,16.274078973407363,21.473171447440944,19.670943239525343,13.61820218582386,19.44246403909679,23.98176994658536,16.80956992203751,15.032379491567717,18.509420493699675,13.274308984022102,12.089121774026065,23.55096572969995,28.822983609305556,26.12119299758892,29.402451046624154,29.155833265420053,18.727584803008057,14.969921758276234,17.196654710656784,11.698818500989944,10.060914679701206,20.319347948471346,25.743005418674105,25.614989017841417,31.460800419423833,31.833190851593756,22.24958284506873,23.30244365962891,34.83210520560386,39.14111874745248,41.788841567392346,46.85609596611454,39.88765707050787,29.15585710647773,34.19377010403112,41.7193579321734,37.64476577978832,34.878802800385735,34.280781319141084,26.616640838818086,25.58499942925453,36.44870100985744,37.86232007103786,28.326617482637786,24.269907908178318,19.442673987814896,9.229040812103621,9.520519315165533,15.631822602479463,10.13259384895797,4.383527956584519,7.6037437714524,4.199289580993721,-2.5941263997079482,2.5677282971805218,6.730403417300804,0.9721943674325848,1.3501483177363964,4.963179490522873,-2.3658438018697714,-6.802611369345346,-0.023769254602898027,0.061803565723608234,-4.901660750667416,0.6132763333230535,6.388973787650713,6.392729534649143,16.31744978084959,29.64567508875338,28.126699187711402,24.508887976798952,30.02041419714678,30.43260842333927,28.062689853270832,35.340521810431866,37.691680460562644,28.304226381299898,27.337703098244443,33.22033695310844,28.65559094679108,23.519711647604574,25.701721740424155,20.938047654013186,14.465190671323533,21.508389573691424,28.26711762387406,25.48491614150919,29.36999239469985,37.40774946666945,34.27450080208632,30.646471087549255,33.59043239510785,27.993394602670556,18.043604034079095,18.587735226900673,18.081616301159144,10.5478449931614,12.921216678942084,21.34175100985341,19.484230232459048,17.013203039509435,19.48071143057011,11.843818283451155,0.629622415829096,2.4144118470510554,5.182589856253818,1.5188894881274584,6.3958058958964354,13.642437606521014,6.446932473690384,-2.508700367759126,-3.2642293796666317,-8.993193070080185,-14.901163269066712,-8.128756251762354,-4.40636133160923,-11.73653833737046,-11.064531150680269,-3.679253823257485,-5.342424506657355,-6.682971143795578,-2.7481044710541336,-9.000254332967865,-18.14465867199256,-13.62243777125311,-10.22882476285397,-17.28118711716733,-17.510199018666324,-12.907530834685808,-17.219878859352324,-18.473673101377724,-12.187150339930593,-16.53971199095568,-26.057201450600864,-23.262097455153487,-20.04225943656017,-24.395292696140313,-20.810740296719565,-13.446278896981177,-17.026279827848022,-19.459812958142255,-14.587241503021772,-18.936725643387238,-27.565240746205582,-23.872101454923403,-19.70456582070291,-23.945760235743627,-21.98837589020705,-17.436914629665626,-23.977494525859758,-28.14625371326273,-23.22398550588242,-27.03680980398378,-35.596260037684516,-32.10862877417012,-27.917353943396567,-31.14097149664912,-27.82858553517516,-23.381738720231876,-31.189483209019816,-35.944147279341436,-29.45951942676309,-28.973136519616116,-32.304181344556014,-25.86978247821711,-22.147032778455902,-27.42918927576493,-24.79532485350511,-18.310742693440524,-22.867807767364507,-25.615306262269378,-20.150021017901018,-23.649748160601867,-30.838309276892776,-25.01202181141737,-18.753543767054794,-20.35866815719429,-15.751573235769264,-11.535653094139938,-21.34375740045447,-27.589027198916288,-20.800147303394212,-19.596025190601928,-23.104987838582034,-18.302057651439004,-17.449112638172135,-25.03633283649021,-23.183375210461254,-16.875623858600914,-21.213398606092767,-22.740710445525405,-14.66886536810782,-14.50795209911201,-19.782936978554897,-17.00033954340226,-17.236004151810366,-23.91488115495128,-19.931651007156983,-11.52353867054957,-14.812148088697668,-17.67943036121202,-13.520135398547227,-17.514669186143447,-24.12357911075155,-18.85072566221351,-14.728609646464813,-18.219483290453127,-13.206306262480961,-4.7485921042483055,-7.735485716606494,-9.603253796551119,-4.371919720466439,-7.854479847648471,-13.956387101287737,-8.029769587375526,-3.945156768957605,-8.395361479658257,-5.049544928965684,1.3187754480767944,-2.894518191429036,-4.182628403483211,2.2588358275507407,-0.7443799074514312,-6.876604299893182,-0.7606842471156678,4.124927626128516,0.6222811153856096,3.78972852279766,8.893555542876797,3.6455201565698068,2.1256231729473214,9.480679173901658,8.093061187559929,2.1710768161116483,6.084824057786087,7.827968001895535,2.4953785617231583,6.102256827710764,12.584587066887188,7.903310389479929,5.572825847578155,10.73173444902716,6.341142638773292,-2.0263264759398814,1.0037482272473128,2.8959467324661867,-2.3961642824770286,0.9845551683691149,6.948676115435545,1.42398932983504,-0.75263718005602,6.539586984061321,5.6835774452169785,0.9960451871453242,6.05161908863016,8.364994358560862,3.868567257787765,8.539721791917946,15.536874950860739,10.775054536032542,8.359146140840046,13.99963319233212,11.170179880288206,5.188603406724814,9.163238759928584,9.514688196367109,2.5055753080519594,5.445315142847945,12.01579440961661,8.191130126385008,7.768193144567022,15.31154536107768,13.452751698939768,7.805081518202218,12.338352724601922,14.127894826843725,9.164332501764811,14.042871904417755,21.977762124984594,17.5548831738391,13.381619514378407,15.735332138526843,10.124575869473848,3.525991991606387,9.656745810435241,13.593078298290743,8.908010723574039,11.70464448772204,16.645478018805093,10.766288497142629,8.02961656872662,13.632972900653868,11.540300559836812,7.400907946322127,13.612631954915933,15.538252888269826,8.459539560276152,9.84227724582883,14.93319515115118,10.496759287374676,9.393063503815947,15.728865878093004,13.188367169588581,8.159429314514066,13.94314334806227,16.21473454684989,11.102851262079312,17.51555405528314,31.168918417771803,38.88369807547511,53.05973902540597,75.9714573960705,90.59532849209879,103.42119178952375,124.98952238292684,136.29649778330227,129.97188822031734,124.13019033291937,117.05575517930687,99.81718963224529,87.4376975036856,81.53885804807396,63.82599440679866,43.234758798354505,35.88343751242517,27.664397591571472,12.993948552595537,7.963407796838137,6.062274308690674,-6.326252569852544,-14.97693351171393,-15.809538008177746,-26.120037874126353,-38.26370675911611,-37.96603625646651,-40.84232317598562,-52.070005294126574,-53.87367510419716,-51.599840577320606,-58.50373636622019,-61.22872345842045,-56.1481348680078,-60.08659184814667,-66.41149700659426,-61.60323812408199,-60.093965083171454,-66.83943444557427,-65.46649259482776,-61.847193340996,-67.97097996120152,-69.16223162718542,-61.55112814089452,-62.39432653470684,-66.86125994161236,-63.644163392366494,-66.11846247010159,-75.34995757310962,-72.94841191723472,-66.22620926725119,-69.33881885157328,-68.81879802507461,-61.28026485837862,-62.481973615463914,-64.4218616486601,-54.411777770749175,-47.971235705907105,-50.24412935806144,-45.17945511058859,-39.11818600870891,-43.9426394640139,-43.906748261856166,-35.3180417994342,-36.78596833814967,-41.89190029040134,-36.32477380526189,-33.55587095573249,-37.113624220167424,-31.465476668353684,-25.43071887577567,-31.8591250648085,-34.8202648513424,-29.32324827777979,-31.309483373972313,-34.38642686180481,-26.895995194773846,-23.827197151260847,-28.764304750776677,-24.05084837538874,-14.746239379451222,-13.023142148144103,-7.0833008007419735,2.781583009850613,-0.8744148577196822,-8.170027023300984,-2.92161974012894,1.874784310518315,0.8699174619296357,6.678400582963142,10.406718788582008,1.8950958277850773,-0.9590812752165662,5.704962227458184,3.991612778124099,0.5479583669409718,7.2266218354706995,8.734743932777555,3.0759037481952936,8.411682317703157,17.602153298836576,18.133779582231284,23.6863919766734,34.6074370911715,32.53501070182503,26.306251158585496,30.683507257400738,31.686602017674115,26.046377927468505,29.85993474819833,34.453944335162255,26.875863202886883,22.547657434210116,24.62241826525965,16.465597861304495,7.707800918123573,12.985118860958938,16.517047445588616,13.055158351702312,18.499232098897433,25.330691089679465,21.91195580849896,24.546010491972694,35.94303114560696,36.961308818784474,33.64868949832569,38.72355894598982,37.95581620425624,29.512341822767144,31.85220631725179,38.06312471486851,34.70474043879312,34.6978250583701,39.30872038360277,32.16728314655364,23.407313015925304,27.352975259935118,28.849839941999722,23.07908382897844,24.685473330399866,26.25514760411398,17.594538237522208,14.532358507816337,19.317866028183026,14.67665151356772,7.980288818859281,11.728993135155843,12.01557689606098,7.1600647226673715,14.47582481887428,25.530538230013022,26.096089062813903,29.29036590200672,36.351219093169746,30.56986100993279,22.388763377683347,26.090039279372846,26.585545254823035,21.30733419574581,26.791061127622942,33.95003425814153,29.979858304346457,29.78350051720151,36.16168224850683,33.79415292485687,31.28464972027329,39.11764324800384,40.08873350913589,31.401320567567385,31.93196967283184,36.37448023529967,33.658058116987476,37.92128112094731,48.77982419748057,46.81450137783335,39.86146609136501,40.971646186810766,36.12673248441001,24.664865165692945,24.527243894622874,27.54958539955353,21.215226896034128,20.3767595348761,26.91813953840741,23.42292601105807,17.83278282138679,22.81373551369746,24.22267281584275,20.214749726341502,26.091528057485853,31.16685047068487,23.462788215858833,21.177430342464582,28.49587623871171,27.685797968566284,24.12470663868185,26.68425380460365,20.270246534866004,7.401564072201197,8.654537343412404,14.292278159009816,8.912239120732112,6.142152655520772,8.301376069536508,0.789943616554774,-5.051004793786203,2.662283642281688,5.717182596324437,0.16011764848843946,2.2638292237916566,4.0544837965507705,-4.16663388774239,-5.360156146297804,1.8879214676506515,-0.3829656348405237,-4.9178631128114585,-0.9972199144358482,-3.4817817139233007,-12.758840149480875,-11.10551625737503,-6.865446023133866,-12.625456885678695,-13.872536227566648,-8.860517326796927,-14.573194191320255,-22.36460885148287,-19.440018192266386,-20.29848830736892,-26.347839795367438,-21.06930644612029,-14.5932247761986,-20.30703410001659,-22.863364214441745,-19.213993614590258,-24.31444507175918,-28.53820305929428,-21.475486464698463,-20.41895782370358,-27.063427778599113,-24.2164869806951,-20.708456807206762,-27.38838086629343,-28.311790642396726,-23.04892321714936,-28.74115531481396,-35.783585790597336,-32.37743626929918,-33.9982729003704,-41.7434394833701,-38.80177515177209,-34.25832980118492,-39.60595165887364,-38.934688067746706,-30.507599254102537,-31.309657659053883,-33.12093670616023,-25.036668358638725,-23.018971012939303,-28.54020621470349,-24.160746012143825,-17.923308569900207,-21.710866079188598,-21.703043736375665,-18.074641082532544,-27.275027272944122,-38.04064672354765,-36.32666697127801,-36.63187134885236,-41.38547431141693,-36.40730366619272,-31.80018928844576,-37.322766370238554,-35.97702674975012,-27.177709995642246,-28.54554664476677,-31.523879606855655,-24.824937882483006,-23.029911512963462,-26.886472907376238,-21.204743943453234,-16.22950851030832,-22.54445911737528,-23.0414796228151,-15.816283433047372,-18.428557117374453,-23.405496560691947,-20.157171310308822,-23.71560071426512,-33.5465326285989,-31.070408377527798,-24.502992510059293,-25.684811526356498,-20.83352246782104,-11.214993365594314,-14.6114918313276,-20.86172770997843,-16.958302146186586,-17.053360827760663,-21.499883183034342,-14.74268310100274,-7.503899029474492,-10.953584505185397,-8.956134985815215,-1.0250471541558261,-4.484214248029044,-10.378093619156498,-7.672908162540255,-11.305860106587676,-20.297434107872327,-16.449307030124828,-8.87790852826442,-9.67800509305875,-5.075410050787147,3.960235344433095,0.5933914305306147,-4.966919855163929,-0.7490950588727121,-1.6014154772867923,-8.180704149424527,-4.434388512276393,