5.193780314262322,28.513097468872523,69.51395632423922,105.56586693816477,122.6823317997668,120.60254187130155,97.93444390854124,72.51910967099045,70.43523594797385,79.10715282913046,73.85556850741008,64.47362756304986,60.03916965930774,48.806941068951666,38.0152921059509,39.79525061363192,37.171618359301675,24.3320885200576,21.409895778250167,24.224396485750713,15.830700865012577,8.50939281250929,9.620385006096082,2.820118055191483,-7.6810047263158685,-7.598523877507061,-9.886911716013271,-19.853113600391538,-19.6534824397025,-14.079287710281426,-18.553505782186573,-20.67452123050925,-15.289097029499747,-19.56301373645279,-27.232010259527804,-22.698800406449706,-20.083011256592172,-26.421324089180672,-24.737643200021836,-19.362899106362285,-24.612471518074024,-27.863150168982628,-24.38290763365098,-31.20126461280668,-41.30893053271548,-38.35641451102289,-36.5033980113371,-43.594299452726744,-43.37672961389687,-40.25989932839269,-47.42883959485944,-50.68812834183952,-45.09337068854657,-48.56280020521961,-55.048409870674014,-48.86067277958955,-43.99263554566231,-47.8860372761883,-44.47125889595371,-38.4151590110333,-43.028306755196944,-44.419203643487364,-37.866590471561075,-41.44933667679288,-49.292696114287146,-45.19145485995714,-42.0695806037417,-46.678761265452366,-43.11716977909923,-37.07620148671456,-42.39479997659406,-44.391081180559326,-37.79266749717967,-40.77844875224118,-47.84737332105199,-44.17636887602686,-43.295267580518605,-50.27062137495781,-47.720408460988935,-40.92881655063589,-43.781241837507025,-42.65864308170289,-32.79328147325026,-32.05983543549843,-35.497875516838,-28.537762003608513,-24.927906154311533,-30.284625605527964,-26.20110574279954,-17.2197162607966,-18.474837339172865,-17.454333303408962,-9.94425781145798,-13.70034708031032,-22.374796502262218,-19.95368559702859,-18.71387337418267,-23.461318102321197,-17.39725617563839,-7.046201304113314,-7.959745759489209,-7.2288966258050245,0.8639822050873236,0.4908086232959261,-2.3363002142559783,5.194189564411502,7.612553405323326,-0.16547619196119978,0.6857984486366222,6.175838744625558,2.892495860215076,3.940919768665781,12.797954495366938,11.074234999205746,4.406469529976763,7.9367947670048045,8.785424943531266,2.353085280080543,6.111716363919472,13.680348288403561,9.977619262033802,8.73853314674038,14.987226231054171,11.912033079213618,6.066166100410555,11.561651916150808,14.389573995305387,9.593994412559002,13.89692042449228,20.930671496285214,16.52536672653123,15.105438065818905,21.956949136668964,19.718534267478447,14.660584936649414,21.097398898129462,23.9574693934251,17.100730083792058,17.76978969987932,21.165893067713213,14.597118359511047,12.960520889985297,21.07906554350747,20.253704108621523,15.09148045442,20.452530260443645,23.58220161147427,19.477133390727335,24.935610578723047,33.39087644287398,29.752717670084927,27.563191235921156,32.05237432663264,26.887618016128712,19.214789179154465,23.901879678620983,26.496799114146608,20.386169955151267,21.320005299865137,23.706444478791852,15.633253359332002,13.047280722278433,20.609518699883726,19.654730144569125,15.206389261754513,20.789583942350816,22.966604785538127,18.59343294091748,25.062966458315525,34.74988065819884,32.29541847091255,30.963665013380616,35.384639567784056,29.315458758765104,20.193073833848224,22.639860461675703,22.41720224283732,14.242793921747367,15.130668809707675,19.39104879103409,13.198405784545711,10.382696611016812,15.60482670296859,11.678033200097861,5.015060234858292,10.023928730949077,12.379262709118679,7.039461486172687,11.088447519800658,17.62895168369687,12.728953066537795,11.640584050326078,19.09911665690998,17.463862805403178,12.878645663539505,18.415443631564692,19.062273354443388,10.3424839874396,9.948727243408712,12.400298426688902,4.9103083061097115,2.2266565981357087,8.526356064626277,5.8093569731166195,-0.030051232518430115,5.12115341449082,7.576866369599324,3.2457864459929686,9.245285994355697,18.047737809709094,14.401320242132954,12.164129215887348,16.350009335537916,10.657790776297961,2.844716000004915,7.877090241821288,10.84450170894138,5.855646408780251,9.724032114562489,15.687297552546575,9.669096295908881,6.395193261683724,10.209253807038966,4.031235835082267,-4.266702547288458,-0.1498852111158575,1.440573970275005,-4.76002870174911,-2.0387351043444255,3.5186382327448316,-0.7440801137405773,0.17564927091796212,9.94483775348806,9.364160070183164,3.3213015559161136,5.79790805336131,3.958145795925351,-4.997313896706206,-2.7720445360956427,4.054170647231927,0.4592751827773185,-0.896748918342909,3.2407693164496383,-3.5100579484216685,-12.261932832148855,-7.933201322499481,-5.2948997851783846,-10.044605197621955,-6.884974361135157,-2.609806252573511,-8.37927621461981,-8.384649457528242,-0.3227058202051434,-3.5089183152596286,-11.102015675884747,-8.085641393888729,-7.448832451801668,-12.789635629789444,-8.512125915090651,-3.253334369526136,-10.009198918687995,-12.294858380670156,-5.2569844889839885,-7.224305737017748,-12.630303089460279,-7.609326326677289,-5.840019864208899,-10.98078286147115,-5.887899157738101,1.4046718938761713,-3.8061303494591896,-6.328914661999686,-1.0701001612607917,-4.872239108201096,-10.630275611265207,-4.937437522668004,-2.7495479040771613,-7.836698436602533,-2.68876725703686,5.039228141114978,1.0527883490887584,-0.14976276894801105,4.9887774645651035,-0.5577691227223291,-8.423180431486507,-4.486631048605629,-3.784737490140194,-10.431735978750208,-7.530959815883916,-2.2494689592089685,-7.49548900768054,-8.611416569733793,-2.6959197116359883,-7.211351950700462,-13.898191238596452,-8.258531917208392,-5.099698300230252,-9.040450173835143,-4.28148072647516,0.9788035065580107,-5.745080719618408,-7.84228725089974,-1.0349570310122678,-3.2549678847294485,-8.002251631301236,-2.6129923950450866,-2.619436579639121,-11.451890618737082,-10.635998582844497,-6.519564921640507,-11.811938018880834,-11.231369480091624,-2.1813623887527447,-3.603321854877543,-8.585763137770172,-3.6300153298177658,-3.1525117056021243,-9.585803843234313,-5.705703208236579,0.026755548228426518,-5.419563671677452,-6.528467740029768,-0.007929373785840355,-2.972145264353449,-8.134767787034617,-3.4611786009725605,-4.259201839127478,-13.043880556497836,-12.095064614710573,-8.634581944964438,-14.73598160605928,-14.874043413498274,-6.34009331121642,-6.95398286409071,-9.775712872024593,-2.850807571785673,-1.8329763802969585,-9.100315381306551,-5.891375310080447,0.8330188195626305,-2.1583828541313244,-0.8494244001348483,6.29699941130157,1.4538466641999181,-6.658638512757337,-3.8044497256348935,-4.914640849674926,-13.317959962919211,-11.423984728408016,-6.814810000935525,-12.530665586920184,-13.32421561010542,-6.512460130869649,-9.849648097191782,-15.282909090060755,-9.80675566748937,-8.702809293373498,-14.14494400147804,-8.33470323854009,-0.08574217007493656,-3.468217059689544,-3.395303916368903,3.878537222221773,2.240035309168339,0.07930747908471036,8.464422691861996,9.316269324455153,-0.17447734306241935,0.1605287620587632,4.266344286088522,-0.5297663273378643,0.21556162838503123,7.3890755400760515,2.772808044548957,-4.674287831282978,-1.3822460872593316,-2.1147522983663563,-9.141625371075714,-5.332291019209196,1.2190051455226265,-2.419547525962374,-1.9038996524819851,5.271676331262988,3.0041714844555933,-0.44923731540490075,6.108776581770394,6.33272762025304,-2.2814740488021314,-1.5090584243846228,2.704391444683837,-0.6622020462003424,2.1135067269089456,10.04035759154774,4.214995220730032,-5.54789250259709,-3.806230789840845,-4.573248905344999,-10.806050962873206,-6.630490018842224,-1.5285362694434579,-7.146877381234721,-6.22026142688533,2.8503422039569477,0.4927225032586424,-5.709493875028914,-2.237668762740399,-2.6175407238273425,-7.410075110567665,0.35756914692522423,9.659899222498108,5.878096879010611,4.715455237503675,9.796558432028034,4.9846581435218065,-1.1480719029387423,2.891489342396932,1.1968919517057055,-7.32366127024181,-3.9827095039769866,3.101079468473421,0.1727793956571393,0.8215208448879137,6.885206573825747,2.382996637957172,-2.8382979088373883,3.708987686245126,5.212646953842619,-1.4092330636867794,1.3815596194768416,5.993247236691876,1.1490498136392029,2.329582986314917,10.406848691207907,7.735093953710403,2.90516980822244,7.529235917220954,5.940098764575783,-3.302417381718963,-2.669875592325092,0.09428827553061714,-6.190772628713738,-6.259552228995881,0.9377465525377966,-2.0663363647507316,-6.478222146510627,0.17808154994248238,2.3995696991425275,-2.06505267613659,3.6887778277941083,10.644712244311721,6.280075410801075,6.166246486658482,11.849555690591595,6.1875611712877685,-0.9512016008684692,3.1879122847257357,2.7901152798237105,-4.00620754237985,-0.4616448865240641,4.351384875719177,-0.7823472986451794,0.28095879759940545,8.540998868293515,6.429578824383778,2.920895659200071,9.687847613256318,10.723457951480398,4.460317479656998,7.832553950253198,12.268595834421781,7.17738471510227,8.685790128354537,17.320549465411467,14.708152973602289,8.64855854646952,10.694176269539508,6.698388328559197,-2.8979553989634685,-0.688688091766172,3.6088011315311297,-2.498806910082914,-3.4292273713350516,2.9254079572226424,0.45068940410086955,-1.7621750231591642,6.741783612562991,8.841721220515588,3.3224808909414643,8.239286378132913,14.668660870351815,10.199548772667452,9.789835041253983,14.408032688213478,7.719879792122355,0.34266108324165945,4.86717860984197,5.204496213263112,-0.7597012886872245,3.2212254423227007,7.741710707310125,1.5535616348039327,0.9310147594581744,7.1922076553715435,2.813849849871224,-3.520450782598464,0.28033125891011057,-0.32660571264551685,-5.585825414967993,1.3108269680607738,9.596870986541516,5.85038032662378,5.483060406626084,10.856254240069143,6.240662240025166,1.2120169142949266,6.89073568554078,6.570081403666983,-1.3329446398148574,0.7217538547391582,4.107263701706757,-2.5602538915976174,-3.6079460050396133,1.8087558132790371,-2.8546150709028058,-7.607736125328607,-1.5802199263788888,-1.7343988761240157,-8.931960396882344,-5.243242644945679,1.1665695890210936,-0.2271049654901045,5.185810292443918,15.146744873851503,11.091470560182172,3.93544506899698,6.979990529183577,5.082393692153516,-2.0734064493955535,2.0780082205966526,6.60923997280755,0.09201125898405893,-0.6348966169227601,4.88323650311226,-0.8063409236912555,-7.586228425383808,-3.9483336719389284,-6.109300083015501,-14.106721416295116,-10.368427658767313,-5.189448807651656,-10.424021350733899,-9.927191732617242,-2.6480607078438414,-4.70877973342961,-6.311361730867552,2.489923370482876,4.509211647301018,-0.8265035702117052,4.212860886036674,10.256060568027559,5.506129712206534,5.021166522822529,8.720130076780368,0.22071880052428705,-9.282989075331198,-7.642377050459434,-10.651168177105562,-18.916376750438683,-15.768009966011695,-11.050255644999428,-15.663824767721843,-13.204678150311338,-3.43365287027352,-4.553100266114482,-8.08084548500551,-2.952712839940159,-3.8986479497950097,-9.887681587904755,-4.105498119386482,2.131984351718354,-3.0693212214789227,-3.2505793982538975,2.6282455464244836,-1.5718049488459642,-6.135656185605086,-1.3263019994416516,-3.1255608524877774,-10.617113527729655,-6.9006046780653385,-2.2447961589966337,-7.759250306268631,-7.892880668878117,-2.5105191920124286,-7.813541274066908,-13.286275921009963,-7.9984248817863275,-8.158358348575613,-13.9369613090584,-9.042491853495523,-4.182793448575505,-9.866083474180192,-8.969943780523238,-0.8965072134863719,-2.9217332762078083,-6.503749717979242,-2.503099449998799,-6.881391070159321,-17.30832236450025,-14.66899534559741,-9.01162400978999,-13.137218867657179,-12.808211478037213,-7.689454588754296,-12.236883229332596,-16.160147947107866,-13.773439827925687,-24.907261283848268,-42.715824451884686,-38.00296478895376,-16.582437385410984,2.298774789068156,18.25632610089704,18.07543978431794,-10.038048657271244,-35.30301155537625,-33.07858925172903,-23.749712831127447,-20.27925514003282,-15.253265376565885,-17.875441736245193,-29.373090641278793,-26.185273141275626,-10.429506547131744,-5.560525800915745,-5.678656589048953,-1.0444193955379097,-5.518420960879941,-15.044661099854812,-12.32833909706346,-9.889346681558504,-17.78736364612007,-16.80371291833785,-5.81606716159056,-2.334275013699336,0.9248039138647574,9.887440740082372,6.9305111857315325,-4.016368532045776,-1.5102660264710457,6.850215910479305,9.753291789470083,19.325527182733854,31.576245403251594,28.208938626254934,19.289603424496477,18.338164726500736,14.98342555212333,11.835490371604301,21.520527621560458,28.347991598075097,20.037487507457627,14.896944857014692,17.205938861160657,14.041215362476096,14.414647884418898,23.949838995658823,24.466851585631744,18.641178905586575,24.922008453292307,31.971109937308498,27.920076116882896,28.162476765264838,32.75139506229638,27.89317819942959,25.654142495932163,33.46463652125399,31.862400429546145,22.162260461792137,23.589415351724117,27.145135414816508,22.634287670554272,24.76918286194577,30.614296798561377,23.395434821154765,16.212454379181537,21.1482396213544,21.091607401483127,15.459669319942524,20.55352552065736,25.474072462632932,20.16707785178251,21.39432300802492,27.88627703138154,22.33631053469052,15.580325284958628,18.670655423998603,16.23198257457885,8.92726522896833,12.126054759222935,14.482936872850757,6.90651374886388,7.031562887834679,13.497710100673523,8.284960883642356,1.5631127787856727,3.9207476346029475,0.5781761850735805,-5.779599148146973,1.1123601501165212,8.18181603221749,4.155201115529768,5.4420024384295775,10.407156457831066,2.691849960755162,-4.81304083648822,-0.7754235979326274,-1.378859986548167,-5.975063403724267,-0.07301242282186271,3.9121910003829514,-7.849959636138058,-26.11916463054804,-41.03993653898114,-49.31424103532406,-48.526261247545236,-37.22158330360069,-23.134335282387717,-24.1248358342011,-35.83798320075858,-32.50901799241376,-17.450824645084772,-11.872123313167167,-10.129487981983191,-6.764045842670117,-14.58147170927676,-23.732602709033678,-15.836006488931329,-7.348945915647761,-11.700850119519684,-11.402650289394776,-6.133459587148384,-11.72685868407495,-16.521044668344228,-10.744898949001069,-11.204919018268516,-16.520454795449226,-10.661522815749608,-5.389849052937444,-10.261444175568386,-8.796100002032746,-2.6183073155569385,-7.117287777638671,-9.99293581461469,-2.29844270251461,-2.1249976198308826,-8.590486693365218,-4.464317899501861,0.5173393826410333,-2.3154186809558803,2.339398860510576,10.230420167344414,4.302254292937,-2.5912063637717226,0.16363053631497637,-3.0826348570882853,-9.680990354093224,-3.940922362093823,1.472053640395425,-2.706505714384753,0.3349866362184879,7.913905167880188,3.500058971305189,-0.3190867485601194,6.153971949927877,5.324069767734701,-1.248446976035651,3.117126718186979,6.617228615707484,0.07285499050043143,0.6006206075826117,5.566732796269296,-1.4701149062270487,-7.173345785120123,-1.2329428245604888,-1.0800504797250654,-6.058914723368301,-1.3409210708474495,1.0706400574978352,-6.090583086566165,-3.747211754775616,6.193683686171893,5.643146663503362,4.274627518868493,10.014564741947177,6.697342366717381,-1.5466729549237268,2.465016550934984,6.434129936990964,0.8569590925567021,2.033884726701574,7.536032856409827,1.8710176043944196,-2.113649931358008,6.242929498003981,11.203338205024435,12.979965510162463,24.223651462838454,30.507625385291448,22.550644125889917,20.127133419945313,24.594861075219946,20.119558419907005,15.824151443615989,18.506281678693185,12.389491598603126,2.6298876126275728,7.04369686786766,13.297570177312958,10.84062326354372,14.635700718113672,21.566637495048884,16.14001674853561,10.86132306252741,14.484200374166386,10.442827389795898,1.7688231899178724,4.359457191346214,5.553371214456006,-3.4074237207989215,-5.122480512591492,-1.7242266448342867,-9.237778458188634,-15.46845980159761,-11.32798461220733,-13.148827239389645,-17.63662823767663,-9.025351951694631,-1.4144942826949842,-5.023866795532472,-2.6563575116415428,3.582179410711215,-2.2789621689390853,-7.380600649426011,-2.815889306236122,-6.35740763670413,-15.161318626621782,-12.58297423117699,-11.561858211907486,-20.49825678144066,-20.63149698040799,-14.072027602447836,-17.19847247776008,-17.771060834840373,-8.478411734199494,-8.482708832978602,-15.363779157728848,-12.163471298518827,-10.842643515788023,-18.747228871673688,-16.51576568026126,-6.597450352623316,-7.103685063598668,-7.789189050459871,-1.7930363093536559,-6.67587728251749,-17.260622485630176,-14.246308568604782,-9.324614220024037,-13.071667228699035,-10.927836711254644,-6.443191955518011,-14.053227655040434,-19.19295356984913,-12.845891667176247,-13.393618744306671,-19.185874738623085,-14.168601390399681,-9.902428492195416,-13.749653862947074,-8.351896023658465,2.0745212138109923,0.06581185579289439,-2.3542872237157666,3.1637829129114596,-0.24713774957828827,-8.731207942367913,-5.5535021947416325,-2.9615967078418524,-9.228548294601335,-7.5030712321065485,-1.2499177274043678,-6.580477283613978,-10.930861274815854,-5.46309514137155,-6.341713870297372,-10.480051945840748,-3.3661897191269956,0.8661523738569068,-6.4523102751051935,-6.97037497462953,-1.268435198468128,-3.091328205408143,0.7727800434713821,17.98505315831816,30.130943522353384,40.949470612649094,68.43847329000843,98.29259659268124,117.42042895599322,137.6972573725305,150.6386974523418,139.85460341056478,123.26478404032089,113.42209161409988,95.16034781184177,73.24835965372054,64.01756700961491,55.18130998564962,39.6940424087602,34.744833803298526,35.273281118248974,23.47330240499253,11.765281235123751,8.804959859027829,-1.5354714530538338,-14.135824631274678,-12.90703148004555,-12.417866301788617,-22.92635075383729,-28.542209965892653,-30.492120010796036,-40.30260115621942,-44.430896798240354,-37.99800994468987,-41.852706288146585,-54.573825518348045,-58.591609197897846,-62.24465912696588,-70.67554323250319,-68.24329894069118,-61.59700617669196,-67.12200140909812,-71.60191220898375,-67.62356398923511,-72.60120431995013,-83.04697215673727,-81.79101960734025,-78.44274848192926,-79.75955447495593,-71.05788747587512,-59.29134322772232,-62.364064496060465,-67.35393852288897,-63.9637399584252,-67.11058747055945,-73.72468121132425,-69.55497971190285,-67.61745246768515,-74.9981878911182,-72.8705042311967,-63.050069336389846,-62.0997310412347,-59.983623627706166,-50.46342961237144,-50.48172088530639,-55.52777208472516,-48.60836458314479,-41.50877095346774,-42.60343637017083,-36.24390732149209,-26.213455914152135,-27.838652289141308,-29.003335622657726,-22.362762750202684,-24.14051836598444,-30.252155729656174,-25.588852863407006,-22.62049888853138,-27.617467959778413,-22.79727257656956,-12.442087182067429,-13.42365851368319,-14.254040811916633,-8.031270026305313,-10.884643138602476,-17.06847836549891,-10.387928645735185,-3.7765793949727513,-4.929377854370371,1.6382178737649067,11.036287886742418,7.419608913574537,3.235117619718217,7.992833252119189,7.406133435778017,5.195748272815754,14.657901813922749,20.360574705372294,14.24936870316619,16.112341306400737,24.83873110271241,24.327419648295276,23.908122572648598,27.436403192194305,18.37068326502945,5.506729382691596,8.321554074753946,13.820497316045396,11.874404710963033,16.119280236208034,21.29831417220078,14.395550356181285,10.67791203478054,17.085107734437845,16.106906680381176,12.09073757786545,20.333335620224393,27.268407098540322,24.424216043665325,27.93919913388057,34.500292653443225,29.950924157481452,27.952449297290983,36.11572766303746,36.4992450207436,32.03855765998979,38.51904324480515,43.002515432532746,37.274734117120445,38.81451472003112,45.42726574638473,42.86279311283296,43.33234950541839,51.857285132400335,49.862046822802924,42.14937317360279,45.65811635292426,48.47193176419921,43.908492491451746,48.32092267500082,55.97018464094747,50.55035504341344,45.18105189937172,47.52617149262335,41.37411334649384,32.137135555942834,35.97520602302484,39.41069829199797,34.20100929502743,37.19867621851297,44.660476626779584,40.65117140685045,36.89626718685791,40.340997321946894,34.900755530709894,25.080631466346468,26.28521880435725,27.021896025411664,21.42120353064321,25.844262881656984,35.23046283582952,33.58442083147535,32.19686650938953,36.84763619463109,31.876032593090866,23.645163143367405,27.61543646649061,30.644098694098417,26.43699799796868,31.52088910711361,40.056507822723766,36.23268675529537,33.1532928317204,37.72639149323429,33.96592052271783,27.438044177592666,32.859211781139706,36.15092658081368,30.330134967120763,32.945131993416034,40.078160999052194,36.478791407387725,34.84433714641885,41.46811469526899,39.04958821283854,31.996493796430286,34.80458415510175,33.88386287022208,23.569644682745903,22.76473653686432,27.685076220120166,22.499256135524348,19.689509094210656,25.699044664851915,23.70551701075713,18.779884014373994,25.083277137162273,27.51934084024208,19.393602913673988,19.4376022533957,24.114593376213875,18.387174925410925,15.012496289566675,19.70059361103894,15.011880038533773,6.2078471910931405,8.629943093089402,8.82394765889741,0.708210639459776,2.070302134701971,7.990150627610611,2.372595491022975,-2.21850724732253,1.2616950884780747,-2.6626594135126904,-7.665644376435319,0.8869316655501391,6.731045278830775,0.47451555010103563,-1.1311303003422188,-0.679931129845626,-10.268235810025258,-15.282488872253829,-9.973910452876712,-12.284200524217288,-17.714975016862613,-11.690150876340375,-8.451016604764432,-15.357519226275956,-15.34551276232197,-12.40811982354416,-20.392500946333865,-25.129573780258976,-20.71818528711289,-24.702661359352433,-30.953295663442415,-24.142193967165902,-19.823872097254153,-26.22561093357166,-26.31192152419335,-23.93167558497545,-32.02633734770498,-35.472215160544636,-28.603773809744723,-30.653575607526776,-37.40343045737028,-33.392273468646565,-31.82007127926456,-38.71299316176216,-36.71023212174369,-30.838318066460317,-35.957492766875646,-38.94543607140827,-34.12941171126321,-38.58028506851534,-47.062638956765326,-44.36356377806904,-42.894864347142835,-47.81779714955815,-42.16980782979971,-32.24281903584724,-34.5859754013471,-36.945260697208,-32.62964875158959,-36.71830225745977,-42.791089972377634,-36.597340114708274,-33.162079965293486,-39.10791343162957,-36.195502363311554,-28.595881967587232,-31.718308357565462,-33.1512463214477,-27.37162231032235,-31.441800884921747,-39.63060941996216,-36.33636140631757,-34.53487662473538,-40.39073842617137,-37.58513736009415,-31.94275628685481,-37.89755102034373,-40.75731254841025,-33.27122387653,-32.32222354370863,-34.84547128821457,-29.014892204787,-28.47740338373331,-36.317782383436914,-32.88599560270427,-23.35037679162688,-23.92178936431968,-22.818850476707567,-15.635979959955081,-19.382073656713988,-27.174905822598287,-23.093760440440093,-20.528426804557988,-25.598945075194177,-21.553590701927224,-14.361409278930306,-19.107286191306496,-21.391211756327305,-14.20130901629732,-14.5723309108887,-17.924878242588953,-10.559231082194803,-7.212138274705381,-13.423602444462434,-9.969688333263573,-1.1677783279675888,-2.797226648986764,-2.9260727740327006,3.0473921653199945,-1.6819066733157002,-9.780744030191006,-5.29956370813786,-3.03103191221775,-10.417940376830053,-9.952186842657394,-5.2536987127000545,-9.901611125973572,-10.93295969485885,-4.190956043281483,-7.60190778786082,-14.822244446184547,-9.129920231002755,-3.561310685814891,-5.892660912348853,-0.5523656521660345,7.8290652386981545,5.5626235067902305,5.941687699732386,13.443360177211547,9.739153923327589,0.5755865291282372,2.6126665414609587,4.047610849772189,-1.3759622023409817,1.3913592450862715,6.551231999534051,0.9534433803326827,-0.8805339042424887,6.249995985988173,4.1224156621098125,-2.5965239998066267,0.8042888405637294,1.9332104820138296,-3.14110316740552,2.9066681870469893,12.842097024479363,10.621522912832386,9.549485957549765,15.061262046321842,10.71050289870795,3.6391392401985105,8.659914907265687,10.82917177536479,4.61716388248183,8.090097763569446,15.204301310458094,10.938619465503647,9.493728775658523,15.853986747494021,12.097222829473925,5.048171603904711,10.339932779640339,13.51181550479517,8.994876469151517,14.462868929737551,23.18590573586575,19.42935562535893,17.10681303810228,21.951074834702112,17.358720664461227,10.384732392547665,15.991110332147594,18.84779305624087,11.354223010212433,10.552058955424716,13.534276800041,8.605736328312377,9.852029933076858,20.493864941648816,19.805376089229235,11.728075527138298,12.702986932337973,11.905497146469504,4.914506901413077,8.097021937510043,14.824218553787713,10.068793695366466,7.583620908456783,13.616178212537456,11.575310658379262,6.564209680851063,11.963170510832775,13.04900831909952,4.606667880741125,5.492064476554407,11.717744094567447,9.363070696922769,10.964090945872455,18.753082520874067,14.246578809041825,6.080430430717841,11.350681629228491,16.343876654357132,15.864323041173671,26.413660989430376,40.527178728280695,44.960871280999726,56.38782466381218,79.90519266834922,95.90402680259487,107.40472422888509,125.37681206197445,134.14761671123668,129.0461839955479,127.44290560776088,124.20596593632096,107.30360468580392,92.62700711259492,87.6236195787049,76.68385406153504,63.714978108994515,60.302630436640996,52.417531087094645,36.651279202351596,31.89896178356493,31.859071575432626,20.527918527304003,11.348937739725164,10.043281118374761,0.5893949978411435,-10.16587121969416,-8.846175926935272,-10.975230184097201,-21.85984459160473,-23.674184872576014,-22.147786647583356,-32.5314461790385,-42.27931409275231,-45.52935013175171,-56.907636512355374,-69.14254233798101,-67.88680849039366,-67.33384906539939,-73.91007835937684,-71.93431967128025,-67.31941444982397,-73.77597809448766,-77.56395246163572,-73.67775416104715,-78.32311853944307,-84.53653662294981,-78.05014948277717,-73.30017034770965,-76.1662502462469,-70.85496245723857,-64.23034306750343,-69.91675035467289,-72.67353012124809,-66.96848596128999,-70.33380323540582,-77.2925047396825,-73.8314726771498,-72.94496193854205,-78.11633354784678,-72.47680741373,-63.63680466569781,-66.44235052668935,-66.50991378511587,-57.94765962659688,-56.98060099913866,-57.83338752329778,-47.988433410800795,-42.40775362378368,-45.36117822773677,-38.9814126823785,-29.460580487310118,-31.652117275163018,-32.15884150907717,-25.6924874229286,-28.514578061707578,-34.32016479478101,-29.25706623046512,-27.074758726960226,-32.35099302253622,-27.860124441530814,-18.78224338749949,-19.090359187199677,-16.564191610842478,-7.017829900356243,-6.755800815505371,-9.670288616207197,-1.9058980522509734,3.0068040540411882,0.1650746258345981,5.3799693629730445,11.627240036974392,5.41642185730646,1.496881336969894,5.549966292312037,1.965962095420878,-2.841541891783092,3.506835173204479,6.050720524873054,0.5714897958473428,4.409634688699926,11.556144912618954,8.10176855675084,7.185443527334862,13.337175952024928,10.448010385520288,5.3803755576353325,12.786259733368153,18.762504543629476,16.762376583945752,22.248553563570987,29.468626716502165,25.4276552948374,25.277766835627226,34.552136400383425,34.39975194145063,28.468486100369258,31.35013243300105,31.40315220893395,25.121152595092116,29.883135896027234,38.731805525278695,35.71608381962458,33.801545232927396,38.37152577923196,32.92227650815294,24.100520657164818,27.39743993945219,29.906437349042985,26.436475168839365,32.667184994634226,40.68542388416276,36.09222513232429,34.074883895370434,39.97415228144362,36.39740916423749,29.06313177680032,31.046886705769243,28.21198804565026,17.981873973811535,18.778928016887658,22.497567759328597,14.43529418597904,11.188600908194,18.80038098361543,19.4637688241124,18.687645263736748,27.772080565375965,29.424354937086132,20.34388429767089,21.185584137348815,26.452664393860776,21.440997462107372,19.66819882157173,26.05834711880741,24.89070770958499,22.437031699600094,30.924056664993707,34.55240282371619,26.8681807971898,25.14539435720374,26.550436940658916,19.31992752532257,16.068103035090832,19.58883702839572,12.702909493124842,3.446171108632099,7.70786019702379,10.851748655848604,5.852948810021797,7.626084685953596,9.311630441673048,-0.6171395306130236,-5.169234110976853,0.3040401554568746,-2.839727535857378,-8.946755297954896,-3.8613934234716982,-1.7613985418371727,-7.535267418871566,-3.889013357340371,2.8293071046070146,-1.607567436361704,-2.9890076767791323,3.3010554579490963,-0.2761097838005142,-7.35258261873181,-2.74199502970979,0.8056754151495442,-1.366064175491029,6.584597198055032,16.73288106567879,13.803597942611338,12.158192000963528,19.13897023283011,19.983107433889224,19.796349381982758,29.571395007319317,33.68378686608879,27.787251740575865,30.527122337756428,37.31993987470768,34.065749131544884,33.24507116117223,39.02734820047789,35.094750568209605,27.896764013049967,30.296265127594488,27.649901492651736,17.195736181432345,18.751397653362297,26.62556292758666,25.119407204749525,25.90266217728211,32.301901935338655,27.932826212934575,20.868362397426303,25.855433380447224,28.29319960002295,22.924856112595023,26.47916830134094,32.32249558134129,26.353166127806453,22.64985749118799,26.02234549998289,19.901157063827927,10.564882256786284,11.176821478482012,8.17476367613847,-0.9531245247965314,2.0309557781605547,10.054477014837733,7.811853986252071,8.101908260592596,14.51488850678866,10.112926700541623,2.2687081081082296,5.301155087925739,5.166299110162173,-2.0162107917420973,1.3917539476876764,8.296726787512949,3.284672592684462,-0.200900407831613,3.187884543794997,-2.084071460822488,-8.56829713199149,-2.6610459894950393,0.2509800731550083,-5.685683916528145,-3.6865581144288577,0.7972607186556848,-5.552336296794818,-9.0998507601719,-5.633218557498001,-11.863255250741105,-20.634789827846262,-17.33663571463403,-16.090331978279984,-22.2731405742625,-19.71399826185108,-14.814251436637115,-20.58731125918984,-22.183292454685912,-15.259266208318465,-17.94309108221194,-24.818943639506543,-22.126616786783224,-22.878871443131064,-29.766473067511384,-25.118781336848173,-16.594213464095127,-19.840129341868312,-21.99075042097975,-18.62902531046378,-25.408135967938897,-33.820162589755036,-29.133589290220442,-26.56640495629454,-32.00344709646803,-28.556895787442677,-22.30694717602252,-26.865576540103536,-27.868412601466588,-21.584201603732634,-26.131241579665463,-34.03777302278827,-29.637022896099978,-26.993619389680585,-31.77259112753451,-28.46976823000597,-24.249583127996956,-31.571065441173044,-34.52289122072464,-28.592292421757243,-31.97074568347286,-39.063057573454,-36.28685401173749,-37.52947929662971,-45.88403755641641,-42.63719703865833,-34.12725073993133,-34.95705089221594,-32.056186712089385,-23.109842726205727,-26.126773863451653,-32.16329996486181,-24.918394473209048,-19.43481843556028,-22.692253922118688,-19.491824999058277,-16.203299370286437,-23.718553238835554,-24.807681019304844,-15.864785774742074,-17.5827880776472,-25.23513388552129,-23.296365010626648,-23.212848668091677,-28.16016377134867,-21.95997607707256,-13.505926714954164,-18.198495413113765,-20.91210450247078,-15.39201670419963,-18.049257369765773,-22.574109287696814,-15.647588237989051,-12.576451512122244,-18.707746578948417,-16.553329958426374,-11.533839761950668,-16.238825735018832,-15.737068267526974,-7.0705352783021995,-9.720331171897927,-17.407964715370127,-14.795352923069537,-14.459419484874918,-19.410049161721957,-12.873151401949272,-3.7855414825563156,-7.596097062018556,-9.829625756021395,-5.315659345300241,-10.18637238614558,-16.72151799874149,-10.835236686786764,-7.764350450917242,-12.56670240213439,-8.150244459557594,-1.604516642329949,-6.609145939092816,-7.8511517427666035,-0.9345632430363433,-3.207665694758375,-7.511939755716021,-0.334317319716253,2.804113265406847,-2.519868570964209,1.4054561363557134,7.714025375178098,3.0163444478982115,2.073016589128027,7.916834750834911,3.084632674884712,-4.19183712722272,0.49850743310026946,2.68610817422415,-1.9140204598074129,2.8370589410093885,9.140337272909841,3.7534809189870133,2.057222367647591,8.443248579471065,5.5944713284060725,0.2840599918869522,6.371509737089924,9.509859318490594,5.0608505681973375,9.161960233325185,13.973552432259183,5.889214071716816,1.2982870829143534,6.561339686358792,4.509385917693527,0.02517140759878367,5.137801016653231,5.522283815944975,-0.9877027415406912,4.182829822910189,13.126111952557768,10.411202471692725,9.885853058463322,16.3532252785206,14.03972565443172,9.86368267555627,15.646006615225641,15.868088786157662,7.6134793734226625,9.440674424547119,14.536609380086562,8.793520848410903,6.754092107270246,13.186549953178115,11.477379088277603,8.143585815307766,15.12682212951905,16.005883280616537,7.461454425726467,9.716238207889475,17.24035119458338,15.319584308258303,16.927922095782858,24.664912231605484,20.886710208191523,13.886854019074569,18.454913949313006,19.762733567065375,13.50151566035191,17.06155976029821,23.38694943484161,18.564746074573012,16.889617023766053,22.050005796390323,16.894900411914023,8.876442612848052,12.214891558149958,13.018886314491574,7.421021936942433,11.891964786359885,18.517990536483204,13.350375843076815,11.666415495779844,18.26859948756192,15.473058178202777,9.27226696958965,12.83174697051335,11.922028013326262,4.5351892244846415,9.716979999369844,19.317069088563485,17.42935306093676,17.37742717985295,22.19543100012416,14.797212500053996,4.088297669116217,5.560711041334487,5.70390480543026,1.2085852011308134,8.392508657123384,17.55100139739601,13.588862278999184,11.967661263270099,17.69134840585664,14.542739017051362,11.443924205858139,23.728811447437,37.25703393743727,48.09649449991534,73.15562489299772,102.19480049629865,116.37547523389931,126.98122275557311,136.47353034224983,127.50517498305224,109.85146702389449,101.82643384809008,91.96102355097864,76.19578562281099,70.69707675416618,67.56351035112607,52.18108554042421,39.295463749978374,34.3964337755655,22.11952339681357,10.312684188958787,11.331373215615603,8.670193165832162,-2.7187164006418185,-6.18222951766692,-8.261710623317239,-20.561675212692894,-27.134870136558934,-25.21388872947127,-33.486849829655014,-44.418019526342995,-44.23748995743129,-48.43005195679504,-60.02520597646581,-60.446432187144126,-57.607338668031005,-65.71134348755817,-69.04242693755869,-63.63982261276716,-67.69430811043915,-73.56968317792732,-67.2353510960427,-64.71736148981597,-70.54530433476229,-66.8440734885608,-60.79309802852923,-65.99092881588118,-67.34508765508353,-61.26444214229443,-64.94478685654681,-70.53864823676206,-64.41114841692674,-61.69505719585234,-67.26929736728663,-64.66101625137426,-60.09748996635096,-65.80598686738143,-66.64464573238631,-59.2263231076463,-61.63290541021461,-66.43406777885936,-58.87671314646485,-53.664512931502756,-55.89326166035182,-48.75665912232566,-39.2514446252023,-40.871319369530774,-38.23098506355447,-27.615294747879137,-27.761139362233266,-31.666449116313284,-24.757227012687043,-22.107875199661834,-28.732780562878986,-27.065605338407526,-22.723597382393734,-28.219066583367987,-28.95755316551338,-21.651042927435725,-23.270748852445102,-26.000071119622238,-16.843616578682166,-11.85915955806623,-15.968311684480016,-12.197068994687235,-6.304342878306001,-9.989172268766644,-8.799425377273366,-0.329979447340202,-2.1326874837377856,-6.204823698738265,1.4000249439710806,4.441744899616044,-2.7619928264368534,-2.1323488574727705,1.589060271149536,-3.774542356765868,-3.6751549904012273,4.299745857043315,1.2177741974170107,-5.775826772499312,-1.3221190331921773,0.9927617339323862,-3.5258081796090917,1.4782441074797195,9.267681676844695,7.035891358601235,9.362224845550095,19.130407047162656,17.81166094990369,11.98422750058964,16.38666560682023,17.980998320426803,12.964072473101643,17.420654788027473,23.63696848844592,18.732162264396166,18.237263473280432,25.68118941119416,22.464632150268077,14.838309768813529,16.841820399294363,15.314922581371807,8.243809784334431,13.421846918096712,21.9752832737526,18.55134958529699,17.678484571879654,23.22403284073881,18.337161859151102,12.36787427917499,20.12428060928284,25.00598345395611,20.678970400230305,23.587698175201417,27.411669234596815,20.229187947572292,18.82721348508005,28.099366269943474,28.38719724484363,23.58147854198264,27.268639173792696,26.87163189855289,19.89562921232457,24.288088779270858,33.12558821247422,31.065379527399617,30.535003132430496,35.700872621538025,30.935220962354347,23.735449276968644,26.943316892477295,25.3168830357789,15.756763332711769,18.175811551256327,27.549304051350234,28.937942330334174,33.07272061896188,40.277559614427595,33.08992761800531,22.59724499584791,26.78871300425905,31.327608376300887,29.169519162275733,34.758662936841205,40.22249934479179,32.90355794051463,29.175165026460714,33.80820906658677,29.03899131156829,21.00798318177357,23.003849893522833,20.968892603063388,12.014005166348472,14.13446532548191,19.556436735973424,13.050580048293547,8.744707622704635,11.736602965010619,6.696323444149238,1.4967113039473643,8.388008804713811,11.318354711866535,6.675423367387657,12.195134425254786,20.49416993133796,17.44571503741095,16.989360449852107,23.02614425215332,19.814949317524416,15.693795770871443,23.34636698191006,26.084088425548302,19.234712966140982,21.058478036080295,25.443989757979292,18.94954115029957,16.63719534844306,22.840127257140047,19.7104729719326,13.535876965639867,18.085958931713407,19.37753458570409,13.727589038359973,18.443517218040995,26.625176356390796,24.204535342874575,25.062120986764526,33.30015916929089,31.743178041272678,25.558949158703314,26.12226838258946,20.206871233522964,8.482145127680605,10.992106625924272,19.613145181528516,17.2590517482213,15.037155300435941,16.788408168442736,8.997285155059638,1.8797232200499292,8.069500321822796,9.616131931379138,1.1304145059610362,0.9609938197153236,4.208953361747208,-1.0717037946230459,-1.310019855293237,4.81035043015374,-0.2047335230492453,-7.2220242087302005,-1.1058164236458676,3.441819615878233,0.4665277047187151,3.9649400962252646,6.329252260532835,-2.4717086462476066,-4.790507196696774,2.6016958300810495,-0.07802172214488179,-7.433604216228132,-5.456013321256961,-7.267065743992825,-16.290635555044897,-16.341207580381504,-14.693330201104025,-22.3233728626663,-21.955934798483533,-10.82400949767968,-10.124206082406511,-15.822716313295514,-14.410554381241816,-17.928522918873984,-27.277070279453298,-24.261602384685794,-16.734193487128593,-19.191978308475072,-17.92697233908154,-10.169551485697564,-13.868387996671817,-21.505375738074687,-18.173063742384024,-17.865402323459847,-25.458659491825046,-25.147030309472626,-23.954777261931536,-33.20054439020283,-35.62257689707704,-27.01393708646136,-26.71203308731382,-30.507923367371944,-27.00934521851337,-30.164229712134137,-39.9978126792686,-36.245471446647116,-26.35665980821858,-26.225449527757995,-24.01487659354727,-17.58763731812049,-23.376937844117446,-31.80204496821783,-27.611009113015825,-25.617358163819965,-30.558494849262598,-25.880073616140134,-19.29639399461054,-24.90792437739081,-28.17951100348708,-24.750831364040415,-31.038929826363706,-39.07048130988701,-35.152964477453466,-34.5457119132957,-40.88513143724007,-36.3619009648963,-28.553895312003277,-31.402451406067367,-30.71101543347391,-24.030781381586166,-28.337223770024295,-34.21947134676555,-27.318263644568518,-22.795879620545644,-24.7292908123629,-17.138263925389147,-9.212487919599667,-14.872529233201485,-17.917175114940786,-12.899454653707558,-15.812277740354697,-19.40642076095383,-12.634664015005356,-12.85769660677515,-23.20960760339325,-23.40884661530215,-18.313553032513553,-21.329729233433252,-19.5856627034386,-11.11868777674773,-13.25061020611005,-17.693974166836885,-10.693037052296617,-8.238250160609255,-14.758752258044028,-11.65183446088298,-4.323476986527557,-5.928158397794026,-3.534066597115697,4.052140904348917,-1.018505032093683,-9.447099485858162,-5.480677482771987,-3.7775337038974963,-9.950437697170404,-8.754226828526251,-7.2061880480365605,-15.95301865021695,-17.418944816542684,-7.396847943440188,-5.681514796974829,-8.451074047324617,-2.945264956850483,-2.032310506116425,-7.649016979369801,-2.165157921711413,6.562975102200731,4.472867219568811,6.075365515719268,14.9318121913609,12.910854625454506,5.617386231720893,6.481385637432676,3.357164460432786,-5.10708192980899,-1.459795874640765,5.742646173718377,1.3691274723076146,-0.350689039778224,4.895210588886711,0.6485763650261989,-5.025040436556697,1.7550948321126247,6.188579360730294,3.791131933015426,10.01694145081745,16.442957382074514,10.354879468602647,7.801334664220112,13.10765425225078,9.290425159888706,3.411958643944247,8.255209375135461,9.010725674196667,2.572985107595316,6.187812728923991,12.059023708347462,6.776768524119479,5.34827487786005,11.20187422233301,7.382249344161908,1.8492724767484834,7.411661189858171,8.302554342977697,1.2749111840905698,5.062489611121616,13.571731252518873,12.883337415493108,15.617285130927229,23.454739619903112,19.257365244542022,12.60762416686615,18.454789186175393,20.766409770107057,13.84694003571951,14.194092141336114,15.841095418828646,7.974051958728197,6.3825944789147355,13.60894557130792,11.064184591846733,5.487983517472447,10.640124408977652,12.434782897024986,7.094451826623597,10.603124250088166,15.593829849881015,10.537310924301813,10.743866825191041,18.524162653867517,15.674794669382592,8.689138676942207,10.863947243264663,9.637670164149569,3.34235334021691,8.101584597939391,14.873317196845903,10.320764333223487,9.891239459191308,17.386986883904406,14.926738345207475,8.37761937584862,10.616285131657008,8.14066002933282,-0.880492995951502,2.4878145154160904,11.193076071527463,9.54883963677873,10.332624045501154,17.172239271517142,12.919480460954981,5.046883728654959,8.386999978831854,9.526390597545205,4.723205592662738,10.357417868751904,18.046213551144405,13.238516057728171,10.622102282692735,14.877749458374632,9.459156229111198,1.584947687493037,4.561230969377369,3.9238224898641905,-3.3680689426890975,0.36925733073110756,7.365565568827366,2.875668451073145,1.3140052356417087,7.457328893545923,4.664087207040483,0.20643362162362466,8.178504587510936,14.54253352110884,15.63224723903198,28.187311345259918,45.086379592265295,54.28090096150859,70.88142438591883,97.01146022692728,112.67163721509678,120.39095389940965,129.39495176764817,125.22658077598552,107.84145979456966,98.15779015587866,90.60840219748053,64.75189761305205,22.523186757165632,-21.4614394603461,-55.068158916520474,-69.10129207477107,-58.73459580657691,-35.707035727498976,-29.235115989948316,-44.43263903088324,-52.29489053531762,-46.891878198579114,-48.80986251435171,-53.46123230820251,-49.705208230481894,-51.832523319531425,-59.77116015393463,-55.54643711925732,-50.936859012619735,-61.31484705784749,-67.06829031820754,-60.87225104433605,-63.06572682720198,-69.51815946575331,-64.83895224729987,-61.211045801083074,-63.941334962702406,-59.32566151162642,-54.718803686641785,-60.77729251464354,-60.57695693136037,-49.57631595923389,-46.94246368421074,-48.717295891762994,-41.88307223636218,-39.44655458159553,-43.70548492664493,-37.087439474876646,-27.48098293408174,-29.006902154556226,-27.20413381245021,-18.6120015917522,-20.716700528576204,-25.863256669011932,-19.751903998125236,-17.152938680853712,-22.612011050617184,-18.84613198580075,-12.376852067553738,-16.99450748689049,-18.400424993547247,-12.798600760824872,-17.568579906675726,-23.82762986944143,-15.141852353681863,-6.813773915505793,-6.692204823108422,-0.6661947701180955,3.4825589362843505,-5.637759969584591,-5.239736014211015,25.133087672027553,74.11655091794994,120.2935703008949,147.26761789647304,143.99741734589264,112.13843197102256,78.59140826366313,74.76782815589894,88.96692095891069,86.60214584813545,71.10655641485533,61.43723221793216,51.26166497121561,41.943315383465304,46.622923350631574,49.70618776089831,36.788879062128544,29.207000645544895,34.16418628864808,30.327323412320325,20.655640126474538,20.201996549277574,16.756858912110335,5.655891960464269,2.9690487878431746,1.642937837122706,-10.426202040208286,-15.157274292272596,-7.1910252203938025,-6.8267166879613965,-11.24994406259006,-9.722431358983982,-16.768473329889876,-32.097162992427556,-33.79874161019319,-29.107052764269692,-35.436876664901966,-39.31231978017181,-33.92661141386823,-34.65610126340876,-35.76317293901814,-26.267089236948394,-23.959062536322907,-34.10904916344904,-35.865196514949986,-31.616727999666793,-34.95875229196981,-33.987327672545625,-26.62191052240413,-30.849696459851607,-38.2225628772923,-32.105815577254866,-26.496370516560546,-28.124588529928808,-22.602920679241787,-17.189467669576988,-23.021726929006167,-22.784900029701983,-12.39040669554431,-11.135396679411985,-13.876506648098271,-7.27119575341028,-4.651860460127651,-8.937074311870738,-3.2175309575892026,4.628934226095023,0.5867578742467492,-0.39766056871356736,5.85751273916955,2.1280368457111756,-3.951762889360526,1.8014331691260375,4.500880937606597,-0.6463390939524847,3.3394214570171163,9.821240977301546,5.519687741226606,5.834019441849167,14.825754364327096,13.754777460667633,8.919905294743277,14.290245509846237,15.122176322071994,7.882143318675334,11.521531488416974,17.141477773497012,2.5599423829030146,-22.153462980890513,-45.58585291872996,-73.40519500855423,-88.28259495442978,-72.37848739419812,-50.60582025410504,-42.6777705882139,-35.00255333465874,-27.978280016048803,-30.356050177994945,-26.9571769630002,-15.509032021976967,-15.752319748943217,-20.309641880145062,-12.416024246485929,-5.869737496010843,-6.995010432361086,-0.4461219017793212,6.428565060635609,0.7804287312524898,-1.1947628079136425,5.122855591486649,2.039973291155146,-2.8657254336774574,5.4186830676413305,12.040474279273473,10.665865680938648,16.466343176678595,22.092344741679305,15.20028647919365,13.354588444871126,23.030273435210848,25.678713227901454,24.196318429719565,29.804220585475456,29.14568315165372,21.11754420012145,24.848881733831472,33.32098956762615,31.521089883227948,32.38194031789578,39.30245840534826,35.360549217680585,27.582131009069897,30.064789441064462,29.324653785661287,21.877096475289097,25.355494562344667,32.99706243623643,30.07813424287088,30.258401017619413,37.402420084347135,33.35280630537146,25.079242697398364,28.190894008601628,29.065173774942643,23.548708616415723,29.162928965824683,37.80553728909673,33.63757398933363,31.15812776086631,35.36944982970783,29.229882067983333,20.594482502510708,24.026892660254674,24.02452955800508,15.67321446370784,17.309338919159448,23.10035615209755,19.021373421221984,19.080284445413888,26.162897577707128,21.267095080783076,12.325312808071214,16.057640469951476,18.592256265799286,14.695601173637975,20.667977144901407,27.954848574836117,21.41350906655416,16.60916296478539,19.905405042453392,14.90591816298717,8.007714172033063,12.63924291725422,14.042654762190793,7.3435113324558365,9.807998307026054,15.285529939340947,9.506255584395474,6.293527173789283,10.482334885413113,5.404679126422564,-1.8183803993725265,2.9633087520222583,4.586244906596101,-2.073540948994732,0.5264038694057054,6.161619189142434,1.2121421021725043,0.48191330685905037,8.487569379697007,7.170098564547381,1.7411723938337715,5.398719650065257,3.7650195821710275,-6.921927462594639,-7.061972511975441,-1.4116038089582814,-5.234939250397646,-6.532797285702711,-1.9353649875271175,-8.872212846468368,-19.160908411353873,-15.75649881340722,-12.410273948170293,-15.736645014953282,-9.749031646651355,-1.738179125217548,-6.706738956475096,-9.65332488427486,-4.306370979012781,-7.754146692788401,-14.337752560005704,-10.150522566729535,-9.474013288450347,-16.996251362805364,-14.53558773998655,-7.487134757526464,-10.556092894371533,-11.074075829097453,-5.022349283854997,-9.33398822971886,-17.092584409299263,-13.525355810709021,-12.349889952586667,-18.489967687582926,-15.391756982823328,-9.64995457883815,-15.251582713960392,-18.011308401173963,-12.917743220888324,-16.8369643807485,-22.824449291222013,-16.304565852835168,-13.070011449928709,-19.63576245022728,-18.053720285166794,-13.715504762015009,-20.35538292094021,-22.418028122472197,-15.07359040639883,-17.473926344444212,-23.83872294251168,-19.149330011265373,-17.150106204116,-22.822256267477652,-19.533598562175413,-13.86305902624941,-19.852565928296666,-22.57701165376824,-15.771943770750394,-16.93636461527041,-22.00423314056072,-17.85367024040111,-18.017297353884096,-26.21755090031941,-23.44394341353477,-14.975007524774096,-16.70106162399679,-16.781626451709734,-11.051852558242908,-16.33562495501611,-25.128835450089596,-21.593167621751157,-19.48824463467682,-24.614127810642888,-20.277058463367784,-12.477154138148066,-15.130329168899403,-14.098586937938014,-5.575265284502641,-8.427187974318816,-15.904191000432409,-11.470179132040531,-8.966996723096663,-14.981911935131487,-12.874662155876454,-8.511739530105135,-15.193556407687161,-16.654870085790936,-7.572382750241479,-7.8922592039832695,-13.304548462205927,-8.812737806731164,-6.876968690852502,-11.437705685859294,-5.812078926379909,2.564229760277164,-1.3271708544487382,-3.5952800388154973,1.2788562056743644,-2.8990978884147887,-8.875958163525953,-1.2679718391974677,5.355115124642096,3.171643631054725,6.77435218238258,9.309566816457577,-1.6304371849928394,-7.335051185302619,0.1387124658252641,1.0376089916532745,-2.827868150483244,1.1700097716481856,-0.02174043618241983,-8.629171179307468,-4.769276665675202,4.846772727683064,2.4897449805633363,0.030012129638255947,3.931438989204679,-0.020848491882866416,-4.4239314497692535,4.029938146963376,9.279697687786388,5.11923092683828,11.107353358064874,26.16305979874076,38.15257636518333,58.98175429763609,89.76466648340698,108.61672824296525,118.2789502652,132.12706451900027,135.83776981700385,124.08234576997219,115.13823736245764,106.69844992187635,88.78733501200317,76.60281371917097,73.67917477032644,60.85631382574597,43.014359800506504,35.46183397864921,27.170393852453945,14.522392551129968,12.705204975521813,13.28395698385687,1.2388446177329842,-8.884951825539865,-10.453080818574382,-19.936571025134043,-31.773052733025615,-31.607671133168715,-33.52616183810407,-43.460452731110514,-44.85178818833534,-43.714136906886495,-53.96485984194354,-61.206180895640614,-59.6725740614301,-66.22790379382252,-75.33949014552984,-71.9653710112877,-69.14715652473573,-73.5096786546291,-69.39345609901889,-62.51832416464187,-66.7122329538502,-67.75804773981247,-60.62419152921073,-62.87877744536,-68.54273704993643,-62.54820128776294,-57.999095000459405,-60.552388323948335,-54.2580078785628,-45.24881079963238,-47.88113500615953,-48.97607250594724,-44.27881024819778,-51.12802306903362,-61.37261718451499,-57.25467948204633,-52.12133943817025,-53.594247767035824,-46.97537845028422,-39.1269916924932,-43.43054534873911,-43.554513015794825,-33.12530804602618,-31.34185402001998,-34.8321757451314,-28.80364348729588,-25.065380964858623,-28.287110091930938,-22.131160131886524,-13.354956339478344,-17.331223812881955,-19.769553565707838,-13.241881706217875,-14.148672249183704,-18.056127735178574,-11.260985966516099,-7.153797960050345,-11.294145541067838,-6.745799169485212,1.354484568386495,-1.1025388110299348,-0.09866533417891588,9.467128378500307,9.041871672185723,3.4829566263348095,8.161476195258626,10.812539916971211,6.277624045551205,11.176415048930906,19.99801669318793,18.54523828059561,20.333084621307215,30.036794549794372,29.228537647729144,22.770808934975054,26.19724464623295,27.221652758457843,20.1489570426889,21.69407963018779,26.618074075321868,20.917558921508544,19.523153105331765,28.276784223294968,27.940624057769867,22.437138169406225,26.893947404439672,28.776528945742818,23.645842922204388,29.450822991779653,39.12142042188261,34.828743280516164,29.658579951615117,32.19230011739114,28.334177962187795,24.335517508449104,32.63623736412238,35.92044055840342,26.877444976668855,23.987459742528394,24.097796924225367,14.669259386136499,10.184334198042182,15.008870955001353,10.8832471261589,4.083976117721058,9.574058980930545,13.03472712417467,9.346145897487066,16.4530110386408,27.823934587938876,26.89758233242201,26.627427736187855,33.06344502193588,29.302795847811915,21.859767570274325,27.098799136050946,30.75856720820819,24.752792624147098,25.714387242864362,29.296801091416597,21.945636013460124,19.02374608465246,27.02772854144069,26.64015860610524,20.938528307567665,24.79737934426974,25.634938209631468,18.36363154159823,21.494849830466432,30.286465594980257,28.09287704726151,27.010555231606727,33.51191875945923,30.152268606134783,21.589065175070726,23.880822712365006,24.295832554301647,16.385804657851864,17.6275160391199,23.455635371197133,18.885473892145384,17.09518181761139,23.343072908387075,19.34671038634122,10.424973601919698,13.011675338849075,15.201956849496167,11.230027164203829,16.59536033383224,23.728584176892557,16.98107404503851,11.855566848585767,16.859346866638447,14.747664482390253,8.496766577862704,11.345739349122812,10.367767895594007,1.4378255070347299,3.4696225886795182,11.610553133267246,9.41786980752509,9.387189952051948,18.203959633811323,18.28637520351952,13.067781918744764,16.831514376226355,16.955813522253127,9.15239181634924,12.734483964236961,22.564440072070834,20.73760048875419,18.448414474528402,22.234366528059695,16.309036545456188,7.371358054169093,11.233851909436874,12.73960077195613,3.546971136286629,1.6068367669612744,4.480998491211038,-0.6546601360122661,0.6801883048259038,13.123902830728369,15.338463592991065,9.578343889942303,12.156457548987472,12.659882617550076,6.072705884890565,9.191909027948824,15.968059546366618,9.475416137222032,3.468765786063866,7.631287744925465,5.712748177563585,0.5858634795620796,6.257587391565217,8.830159279362185,1.654025230606769,3.3224475378162666,9.495308563736137,3.2078632252602297,-2.6521409151013655,0.20687407096132304,-4.254397692288137,-11.035099053196483,-5.505169228760564,-2.7084867967225392,-9.697083998570083,-7.471591297722255,-0.08701623513935708,-4.198023065570342,-7.300265640480761,-3.0671262789139853,-9.295003300213725,-20.456264919658164,-19.63522469938759,-19.610866065065725,-26.67447390339322,-22.935170422448124,-14.112987270494239,-17.998692745293333,-22.474521112459676,-19.89536607975173,-25.896792857096177,-34.104663363729884,-27.788875619249318,-20.916249189393607,-22.739252707849555,-17.772047107317693,-10.748793487317595,-16.363017579174155,-20.272847599902097,-14.809763210342728,-17.28535598243585,-23.420219073438588,-17.98239132714178,-14.728533797584577,-20.983647930440874,-19.528611189669547,-14.410300440075257,-20.202410088995197,-23.520796702821343,-18.380459024605152,-22.973659779711824,-32.729890966089414,-30.670918118741515,-28.354109863845945,-32.65987693057565,-27.0981833258117,-17.082066473315944,-19.408131219188423,-21.081396794676902,-14.198179032187813,-15.711451223045538,-21.386537100512026,-16.295494304023748,-14.614053800627527,-23.07285897368122,-22.67880642961332,-16.751596651114536,-21.087695598695767,-23.571732534052728,-18.317543234562272,-22.542285909161716,-30.304948765660097,-24.915565341998523,-20.276699418693028,-25.066260897636035,-22.422107409811677,-15.918486241036092,-20.777927832431935,-23.380104963757166,-15.690577249714337,-15.675318227376607,-20.552538998483502,-14.85625273319808,-11.644736368005798,-18.42667126532225,-16.619621026968957,-8.694407325998203,-11.009231455587017,-12.179496209771333,-5.153889218397155,-6.915318163569263,-13.613290709963033,-9.754939375111652,-8.349914578934936,-16.681915202925847,-16.490122414879394,-10.627021775105149,-14.792114511671947,-16.782667530897744,-10.229679429562225,-12.739858354834558,-19.22645989021502,-13.128394064489175,-7.968440720520029,-11.854384692520256,-7.524567434030114,0.95180692675717,-2.492125439280043,-4.790789718035825,1.9306253732123504,0.4407015776227112,-5.319966711952942,0.6222181811813581,4.850757374297366,-1.2480818917843206,-0.4820513284922123,4.549311159905875,-1.0434013098001982,-4.668889056898298,0.8126939575052643,-1.7968480052369156,-8.043792568812147,-1.2532534437953302,5.428173878355947,2.508228904614141,5.670176299669297,11.370761613105289,5.200998685883404,1.7172961476282944,9.546362777139882,10.575053655129162,6.869110855148234,12.892802852307232,14.4199267928646,3.5909410639582573,0.3119665277375757,3.917922488398057,-0.987733404417821,-2.875621609056566,4.111487858139524,1.0144881246013724,-7.797189293197353,-4.063637087991405,0.07322514165032079,-3.9324977018163665,0.996312640892473,10.859671598780723,8.589257392920938,6.105132090694641,10.852875775818001,6.015104768580078,-2.988663123315031,1.1954312609044138,5.662440231497677,1.6491243297421363,4.868097256996263,10.67741141709481,4.117030764444169,-0.46276470464991415,5.494946768323331,4.657297860274086,-0.2925727884998912,5.937576872366087,10.458897390746948,4.579047382628744,5.124267959550057,9.312833635209786,2.322513268069452,-1.4870099510690287,6.8070864589087865,8.400648115648869,4.065892097066865,8.972068485078127,11.992383377284288,6.729928799157481,10.20251111259919,18.03090609528577,13.749493063818168,9.435620396338166,13.176074477726848,9.158264982785465,1.7359963113629764,7.121878732898865,13.082726628413342,11.040040943933366,16.430137210194072,24.808130353355974,20.811282423873443,19.595920681190684,32.62471390773298,44.52939411217643,58.94414958284081,89.93232825671495,119.17238914493721,133.46267773445365,147.7797045331444,156.76256253397534,144.57920486073644,127.54820779816161,117.51172578262558,100.045137159661,80.45703707008995,74.41345126775286,67.30374555495396,50.95185466691562,44.832275503643125,46.14553386637824,36.6378229270151,26.660333244758448,23.507798000259687,11.389861539446521,-3.824253298601115,-4.924622641001601,-5.414936016950419,-15.388328223536138,-17.829341858232645,-14.721574189138163,-23.023221581285398,-31.921582730205095,-33.121544215305484,-42.75440389356957,-56.293064036368904,-56.69372093875468,-56.605047559085484,-65.38342629514644,-66.79252547111439,-63.19368610357769,-70.048874180471,-76.4361602119274,-74.51821162284378,-79.57441159575464,-87.52246101243652,-82.04105239374815,-75.86584942279839,-79.60552928829898,-77.3508611463991,-70.4009446798027,-73.65461713629925,-74.8401804433665,-65.62085561854545,-64.45906239953732,-70.01112773894833,-65.4202649563913,-62.29044254726014,-69.50643824597725,-68.59898253786014,-60.51211594114719,-62.175219010152425,-63.59909399708341,-57.41563191951133,-59.69130668911491,-65.38867425118835,-56.53376164429266,-45.584323696195256,-44.355281843008406,-39.04009500349325,-31.903575369874595,-36.36530060850789,-38.4032428970525,-29.603477189652025,-28.59487829473194,-34.10460581892161,-29.994289975982845,-27.04288327644586,-32.258106183007364,-28.092289621090536,-18.138823602869643,-20.172532287525584,-22.906469358415944,-17.128084319601527,-18.651600577048384,-24.00023342679382,-16.813574972572013,-9.917495244631496,-12.97668520735225,-9.230055785901836,-1.5853496049746407,-6.293988877940366,-9.712909467331315,-2.136080662432862,-1.0056597171528159,-3.8702045328005616,4.761435649784078,11.35938422625812,7.002521277253651,9.470494345871106,16.60188220106514,12.139077678937042,7.89966426555228,12.647537063329082,10.18136878337629,3.958792267701247,10.98195169360102,18.843770521259554,15.828595962896106,16.81113982900183,21.647984565182227,17.68284920862974,17.76795371152238,28.91020084739734,30.959402640041706,24.16262305638857,25.971900616666375,27.715810728448492,22.67696679331651,26.91787861244901,35.451724933547254,31.095992333804894,26.60799668494242,31.3015018730655,28.46869790387442,20.98813766959016,25.124730565713115,28.572854050901935,22.303913086320016,22.553892698441537,25.840312593802096,16.430541068014776,8.568253440138331,12.875232314560831,12.177493056987533,7.517797801936728,14.142119644678871,19.88731288864874,15.63603502346634,17.340579703646462,22.11405244463814,14.733620260808152,9.046532284203977,15.404270919585839,15.977870914501308,10.359964849197084,13.540950236035803,15.082084694164985,8.207016065804536,10.290309819792418,17.853291515585205,13.464817459660296,8.838667355497279,13.958304166336248,12.975414498579191,7.684147909129755,13.040543270705955,16.482532243683576,9.499366279362482,10.41459946033455,18.423606674467663,17.692879051218917,18.726181376362682,28.3847221932297,28.221333116994483,20.065456258270615,22.132536814427205,25.10440150477774,20.338611686994305,24.055178303268747,33.128315046210034,30.135940453992994,27.314305151195857,34.89427463368719,35.22837304398851,28.532856200917863,30.389009844278423,29.777198419154473,19.218764802834464,17.73544715387246,24.433968295570743,21.476817358419062,17.606265113755754,20.466508971220534,13.710040412009281,0.4640482509719721,-1.1466022074189328,-0.6021743766163895,-6.537935850629012,-2.918546610796526,7.452636936930405,6.666713029050064,5.097913213005603,12.774122451919023,14.420965531435336,12.536334930479985,22.742764783289182,31.53475927549897,28.13435667353918,30.008592019337385,37.1239697636867,33.85287544683828,31.38562153253197,38.579885795038145,38.097524250248256,31.29114141452729,35.34408661541103,40.05068322703216,35.827835434570396,38.47055287151532,45.87139900064427,41.040186132218984,35.17868935087482,38.91639190361929,36.272531210811195,28.516181266582347,32.29669969577143,36.66196489872557,32.08172555401974,35.16321679387455,43.60638429958389,39.69171858309889,34.42431111785369,38.12092262580568,34.916962271952805,27.035108371707615,31.14676529876149,35.10849190990274,28.29389695924557,27.442247750274596,32.01347023995126,26.177510049807317,21.045425463038733,25.545476791054497,22.757217506680565,14.611082645225078,17.96628716695351,21.355831357002813,14.3135999972529,12.903500114948502,16.194177066309358,8.670033515108699,2.173384067458552,6.12239197279472,3.089451550380121,-6.02633137442702,-4.759613801670268,-3.4365582283135137,-10.25174444568988,-8.009440067542485,1.106508578570005,-1.1483537730784548,-5.347745940519611,-2.019687884034343,-6.484574724042158,-16.23658437450438,-14.417755419518084,-12.144692351750503,-18.90112340982501,-17.78103414575067,-10.94218205158641,-16.61797901282978,-23.8922099422499,-21.359229843768517,-23.744293268827086,-28.759031073208106,-20.810530800287545,-13.355516461267953,-17.2628784517844,-15.152063085963052,-7.625664439163863,-11.875342135595654,-17.84599044120369,-15.997627546283885,-22.23394858035529,-33.86705414223551,-32.88044703721606,-30.21155689495817,-36.78210016029047,-36.83531446317483,-31.850325218522464,-38.372333284190994,-44.76116579390401,-40.53514999725514,-41.971089983919555,-47.86176142783637,-41.88904016840159,-35.43405824454595,-39.49243345076126,-38.61579982708323,-32.937065139817456,-37.276468946943965,-40.19147364037775,-32.64995666679249,-33.35035513310762,-42.505288809533525,-41.58329619607904,-38.428515422322945,-42.06570646925786,-37.59474700202062,-28.673003664772764,-33.49356479317011,-40.509728800891295,-38.119586999951814,-41.84151786164479,-50.063717335495916,-45.6266331302197,-39.552215899507694,-42.90918292910199,-40.47666269775769,-33.12718147811907,-35.07030271751717,-33.60631055299374,-20.26556131371642,-14.465366448226796,-17.181389450939136,-12.102312296911643,-8.24750341035968,-13.6334029394934,-12.606500962962114,-8.295768046971663,-17.293269659761812,-27.270868601345462,-27.753950243645775,-35.00664444378897,-46.53847130585101,-44.16284801891041,-38.7844351399826,-41.553549572332614,-37.26155638901397,-28.33957760284167,-32.13412765806952,-36.50503121224213,-29.698240899902707,-28.42294455235543,-32.73913261999482,-25.727594161324518,-18.4813679125822,-22.907189408956704,-22.826181704936417,-17.417468887715575,-22.106236325463986,-25.953489794450658,-19.497137859305223,-20.35779459128733,-28.063080725513323,-24.927027863462097,-20.483996476484172,-24.452771570450167,-20.87571755007362,-11.692936250167243,-14.344475450622319,-17.969850277326486,-11.966581625161432,-12.251153000066163,-17.540955997641518,-11.376771716588912,-5.288081395777844,-9.58811645314568,-6.627435081498531,3.907714866667657,4.18673512248951,2.1012266590006394,6.53041195320836,2.632943668971694,-6.361335802552054,-2.5658377251026594,2.4399897578793186,-3.5094782231852926,-3.960768721705528,2.393798842438857,-0.8375506970539295,-4.558583492547212,0.6734240047888345,-1.336512353378341,-8.804887065963486,-3.6509632382784374,2.829417972618879,-1.5991478908598502,-0.5721536322934919,6.580880384980068,3.383903248040702,-0.2786903906980065,5.557280839490929,5.274687792582316,0.480270283027856,7.699393555435195,14.923703652607793,10.003223894430263,8.919109592073902,13.302223290403905,8.793009374402722,5.913617920899507,13.405527290855455,13.363211036875462,6.230752524712614,10.263410277888115,16.168601107235634,13.056935307105228,15.56111220066645,21.941710682403905,15.7145550108741,8.916045634033106,13.782422411677038,14.801380106597849,12.173792818377702,21.730042575928675,31.370772607772608,28.53774919843173,28.415442715763792,31.69548704400192,23.849018436692404,17.143460026051084,22.97952470770224,24.095912171019762,18.45137041268023,21.448693148715147,23.471930070543138,15.683784564535742,15.922437598162901,24.797184984146096,24.86005288828479,24.130623327986598,31.036816159578546,29.316733702252723,21.18808832622169,24.976371059435557,30.003666205972124,24.236442802100473,23.0614546576014,26.751097851493128,20.119228734537426,15.490791974998196,24.61377202093023,31.95181493434155,39.70178088850684,64.93001755009928,93.7076904603274,111.58335563642373,132.1764799350634,153.11442142802065,157.04138454031678,153.60195267066555,151.50872703970728,135.70305977064615,112.2651156791139,103.00013837845694,97.74382270054787,83.19880446714333,73.90009690493046,69.94468232319778,55.836602062173455,42.80399846886945,40.16966136217238,28.94184865835218,9.505823582620241,1.950167045243785,-2.0858020581664523,-14.083014765119282,-19.335415972828034,-18.694607387898724,-28.617170727079326,-38.024091148960466,-35.992116231662855,-39.42557898727869,-48.70944570204762,-47.18027671687136,-45.25761641162059,-53.42497859719518,-55.0511970920338,-50.367192489103765,-56.36244872259762,-62.3357306156515,-57.15376165290725,-57.77278544890129,-65.22071092923585,-62.48269467983162,-59.45253256109773,-67.85396015367473,-70.8303669800196,-66.16721504968996,-71.04960502459039,-76.2076100609278,-69.27921983952804,-66.61923923760916,-70.77798375266892,-64.92791273368545,-57.767205655037664,-60.882049582024095,-58.86172144541978,-50.81435856308588,-53.8648671672785,-58.42806989959823,-51.75449227892323,-49.0516098544218,-52.67280018971279,-47.366807515787315,-43.09722441655437,-50.76792294504436,-52.835074944916755,-46.95815404184449,-50.22457228816627,-53.46347634450569,-45.235017873274764,-42.296106258246645,-46.33942537943555,-40.26781541501753,-33.48894660987116,-37.1565914926882,-34.93469347180662,-26.485417301001128,-28.88012900995482,-31.70420362561166,-23.522537510681452,-20.524979070096638,-23.51932676370932,-16.60888327178084,-10.111592690553856,-14.421255090131321,-12.726938554558586,-4.479394927130839,-6.661377989769097,-9.371723529593439,-2.1197494716603,-1.9144876317191026,-8.373847010153325,-2.958657084556257,4.2011796741866965,0.4625100512419884,1.1821781350151057,7.1572370951848665,2.5288406407804422,-1.8142609013539999,4.954383886958576,5.124019690806712,-2.094681777059951,2.375108218149574,9.944029330363456,7.643425413465074,9.951783384646093,17.935497738975343,15.206852722611874,11.40845355575821,17.12864661146945,14.645539904204602,3.0386409086328072,2.5090336333295067,6.524228670932044,3.2329210053450015,6.4589921814801015,15.2696089018385,11.465621412732872,4.643141279201432,7.348420954991099,4.798717144026844,-3.3676877043328206,-0.36475485652086803,4.316565618445918,-0.6733647948168473,0.9421970898778613,10.68308238956771,10.908214148502196,10.049550236416804,18.75965082849971,19.512385751416605,10.364202399005991,9.171470199246611,9.700764147855969,5.165327009428633,12.735640182047536,28.63254114804732,29.523147949380984,22.897175573016717,24.216031109816406,23.370237499009765,21.029904768112104,30.265004187411073,37.23555403868895,30.159425636745148,28.439597019133913,36.55652930502845,36.977720527350236,35.89898437367204,43.095935099319355,42.04755598673627,31.453111818512223,30.401826986827036,32.42732928286167,26.102195260951717,25.663930133289536,31.35261780884168,25.721885861796096,18.430772211605387,23.57613215119868,26.575364491591074,23.365438223752093,28.695580847245992,34.57686524918364,30.563060769174157,32.836193494093365,43.05046268060521,42.885223571382454,39.96053379630605,46.9619495823166,49.138751534333295,44.32027723224901,49.105740595876014,54.34634328523509,47.537784707961606,44.941392117547394,50.40697996466962,48.47202707606911,47.382047343163464,56.981860163330154,58.89741474456092,49.313349026915276,46.6344120536624,46.510253934421655,40.13166816766979,42.70270795567374,53.12336968681059,51.097435853807646,43.94707947003518,44.995553095901634,41.48330381460503,33.594817102778876,37.84655751825798,43.3302665980415,36.89193513359223,34.23620245168702,37.37549721459441,29.91934157818899,21.028303408798056,22.212563132603613,18.416100978640678,9.70112001027067,13.328297651557547,18.532550991289643,12.060692530704594,10.319312113865541,16.68919126623385,14.97950651272559,13.151618947486563,21.051825809618148,21.22426744720086,12.188743240713347,13.408712521178545,17.691581293975556,11.757955027436333,9.592075447252599,12.728544826007438,3.7046614728474725,-8.144072801817044,-8.0835031273481,-9.933010127874882,-16.482910999245398,-12.596266986063892,-8.30829953078656,-16.105762110831197,-19.540786536110573,-14.620256826120581,-17.356711510939505,-20.842849636577096,-15.090610360051112,-15.538371514279746,-23.05127559288907,-19.55884614347202,-12.772573692134827,-15.412636367350729,-14.308027887952278,-9.783513774041161,-19.421459167621066,-31.871308871130378,-30.471814312625547,-28.838914574386624,-30.713988519606417,-22.744265210911554,-17.37263391324446,-27.184929295201794,-32.825806822613664,-28.677669976895928,-31.97362172699635,-35.90475675027935,-28.919803397218942,-27.206966316857724,-33.3258580006938,-29.261658053411395,-23.591112966512366,-29.65609293056729,-31.372857337774033,-25.63931104003609,-30.203940336482784,-37.24169185636124,-34.32689997652238,-36.84769102480861,-46.675564550801084,-45.430281378989655,-40.12964828030728,-43.323487345093284,-41.316551519159006,-33.075005470625015,-36.088193564078416,-41.77167809566582,-36.42898326695038,-34.62304351313219,-39.83854956441374,-36.022329848581975,-30.904416140897553,-36.01149757559753,-35.6298353854585,-27.525752238517157,-29.769551783659537,-35.413844105109064,-32.42086499780578,-35.086843942877145,-44.4830982756838,-42.56253014520959,-36.65607915879741,-39.1903139906453,-36.47543556750089,-27.793125370278155,-30.52102912904287,-35.83110600019859,-30.41476902500095,-28.546502035708258,-32.52425828482663,-26.493400813252933,-19.95839642315644,-25.41728316956705,-28.380100786145903,-26.363311406648307,-27.647711994041494,-19.413854995083533,-2.627706967696263,1.4363476788639225,-4.5194079701884755,-10.623869787848978,-20.4619135662347,-23.609558491876353,-11.925383859870793,-4.94028534621925,-8.505379796744855,-5.582607780311365,-1.1353634114078566,-5.6594300656597145,-4.922910453769282,1.678278903173259,-3.215957387449508,-9.762796789762577,-4.882688953879981,-5.5944821911785905,-14.715707888530568,-12.743912952316567,-2.684156884815628,9.103452054145324,30.658357817737155,47.8826239797822,44.424087163788904,34.72752620622473,28.14284160418751,22.094524941841456,25.582967864752252,33.68308422009892,27.78098965651944,17.426029966710733,17.873776817831946,15.727105704466902,6.5662024875163265,5.258089397559722,3.4514348358958546,-13.10979753947311,-29.56228462667201,-39.27457663482177,-55.45116775006164,-65.56624377286488,-53.674165166155824,-41.24222275475404,-40.79974823515315,-35.690052480751476,-28.300167958638024,-29.195019422901186,-24.629587797441474,-13.750414267411891,-15.376451583573633,-20.895031569867083,-14.734217516954693,-11.73286012934025,-17.24809941928133,-14.918512581025311,-11.280309178177596,-17.91323815061441,-18.933579775299552,-11.559347107695324,-14.091878061271998,-18.932973185774458,-11.78008355981914,-6.939748342017111,-8.82912452260853,-1.6359467810485548,6.50604899855598,1.783417227145296,-0.02266770006319399,7.240355393668093,6.622624185277212,3.0169196218893624,8.488213625944809,8.4095509033074,-0.15942378638749588,1.9868353001503145,8.704045893513715,4.934852960681118,3.9059400686572516,9.95392780653034,7.03623832009534,2.7764329166423782,9.925067001628642,12.615618962354574,6.9100102714643485,10.823715913305403,18.23464890008892,16.279300565592955,18.8738541315373,28.07406200367038,25.45723519601573,18.36177623765549,21.54821938060359,21.653889847568884,15.395852414772138,19.273429383581007,24.728739651502753,17.92074738731841,14.927830656438372,20.92208731450472,18.4460824492732,13.992416794637766,20.846397551008764,23.564458988597085,17.69571614482289,20.797103511993313,25.856837639874968,19.44326043643531,17.330544819489326,23.99612966455048,20.987237212356526,14.366434628658375,18.245412817054817,18.856433977679277,12.961213357803384,17.88542974144826,25.49629191545379,21.174888852664076,19.54876468569813,24.993410058159043,20.532044508246024,13.193689534452716,16.610907314033902,16.582133190685283,9.83904323393552,13.838271152803564,20.914942067774824,16.878691746392295,16.341423200625613,23.39001058130797,20.8585547334797,15.343961161304767,19.77651324061803,19.920396396845675,12.818019708746366,16.21260785454118,23.09634417672351,18.88833191976067,16.652716836232443,20.072804939276473,12.931318092816257,3.4777686366577907,6.573070207503349,8.12380359004906,3.0067186111451427,7.057572898183725,13.579290371836278,11.108201119341867,16.55372464532001,34.61395422191993,48.85824732904475,66.99983044983529,99.65698055044938,126.95855729895767,139.9137275392982,151.78515641373033,155.5622623087511,141.46744030264483,128.15193421316684,121.31665564441096,103.01846197232504,81.14571450333459,73.0803806117224,65.59053017662592,53.076863424415365,51.19919617120624,50.42655984009079,35.40438532555642,23.21114199343983,21.217054819391716,12.11245851970757,0.9824141484303528,0.20505213597775906,-5.844839390927181,-21.30618362720305,-26.61515474636588,-26.492129991964706,-35.37769480692968,-40.31165904421505,-38.011974990782505,-46.51465504248615,-58.49313550825998,-58.56076096541898,-60.4949809619018,-69.06135475668154,-68.14100171480933,-64.61480343280303,-70.98572465514083,-72.87361097240017,-68.0421784243818,-74.45772487490328,-83.19952408314995,-77.87532574603628,-72.75519003619698,-74.48189242754869,-69.14345383557088,-64.61061781501687,-71.42685332465801,-70.85920202644829,-59.475749498003836,-60.20313739109009,-69.74107376321075,-71.98507932515815,-76.21649533091684,-82.77697179592273,-74.41425960334257,-61.62561976634968,-62.62550396614553,-64.47526179673902,-60.95379576869505,-66.30085894062927,-71.94404673792542,-64.1903930378711,-59.32633895533234,-63.8428915212278,-60.74433249558366,-54.8903255685616,-58.897834172237815,-58.067829000883535,-48.079369561488136,-47.77461303477506,-51.21923128384461,-42.73650529570709,-36.95603723819108,-40.59881542235476,-36.040882505508144,-28.21528105690756,-31.52133832922693,-32.554416731143725,-26.47108300073387,-30.170978078853395,-36.6809908369932,-30.330871210041355,-25.10414133376885,-28.173451637333223,-23.702110653971523,-16.36445146140867,-18.467256921567035,-16.177800531105014,-6.606738812784201,-8.018765731500547,-12.749248319860246,-4.719639869831728,1.578469341608393,-0.8113640373538498,3.6839288106746286,8.400901405838564,0.5005346828595441,-3.1875540817437193,3.4241611106387886,2.3679171282246765,-0.4875299901989154,9.180935811800463,15.847006783724272,12.236586160785551,15.381432800526895,20.875829622031745,15.566725355378148,13.9132708203221,20.912629644166095,18.442636995571775,12.019243107428993,17.18692479546921,21.226500338359664,18.142201759213012,23.272222929213793,29.432482553726967,21.982574194585602,16.209668275618803,19.241612860153868,14.362093362482163,7.548069459990612,13.827095624123535,18.632685658536417,15.010365995925333,19.008394854127616,23.712275062508198,15.146417702954672,10.45306680250949,17.101867461887835,16.294692552024877,10.895680655034479,13.84089018359241,12.052647101810882,2.4713440614647895,3.9595527897480416,10.736853634354802,7.179931651653417,6.080884690378942,13.059561321745205,11.231830315446553,5.508626276151496,10.185524609473429,12.66494254797594,8.60460557451799,15.018727150341187,24.89795959959545,21.71914552345963,17.96107115815854,20.063861124819475,13.076607242396403,4.275316901150089,9.068695418535047,13.088943358032886,8.749267766104776,11.814341946656773,16.57102961384095,9.085089663264839,4.619752149793484,10.44396498983863,9.33985354920286,5.498936392741937,13.415217295800126,19.86701674063569,18.77663778348713,27.035015569210852,38.65317182549147,37.49095643094987,37.0055156662177,44.3158251910948,42.84220236479452,37.958423162840646,44.4145543460224,48.02868108617278,42.97133640752928,47.51432222717616,56.52494528800649,54.303597357906796,53.491547805510024,59.34820824427822,55.410461583217746,48.6917239454094,54.981348126954984,60.37160525329417,57.22898216714211,61.055449885914214,66.73742578967254,60.48548912051795,56.557523422936676,61.455995297865414,57.649563169031765,49.56528126451344,52.44350400169396,53.18064544280337,45.67326591314684,47.43433263604601,53.18242589609017,47.63895029782106,44.59726368397331,50.321277364602565,47.233941316230016,40.38292253447668,45.1555980601802,47.910027330647395,41.71966134372552,43.38423066931023,47.27680395752866,38.043324542210314,30.702074115084528,33.14370084381824,27.813776898521013,19.35525343332077,23.28579763861301,26.233153695226008,21.485104228575537,25.213429678103125,30.849291147346722,22.96469212179283,16.93511725032418,21.334185095820054,18.967180133190645,12.942243485632813,16.668445953644056,16.622960983088817,7.591365437950377,7.495144549590712,11.17884462777455,3.101671101168003,-3.0809470545301703,0.4088963496321898,-2.8903063476655166,-9.327272778139658,-4.958659977061862,-3.3471384769819217,-11.49426907523911,-12.125487552127264,-8.733014315121096,-15.962566025706012,-20.478085417450643,-15.130344711287824,-17.541460408414718,-24.56887473086719,-21.137118796847545,-19.232078901624522,-25.433146528956936,-22.769965857137553,-15.022125976829056,-18.44798317928946,-21.85924510025984,-18.286810244376422,-24.320622417528224,-35.27784010346923,-34.160299254926215,-32.584664219764946,-38.23368076076781,-35.55515148613872,-29.513581610612263,-35.51244884349854,-40.33146907048299,-36.317952651492924,-40.007817932505986,-46.928913199718906,-41.63042184865776,-37.59476502696904,-42.44989937235617,-38.95004528112445,-31.000077804527123,-33.86186464375684,-34.555916821704685,-26.666900269417575,-28.790891823657663,-37.865107066182745,-37.69489005014911,-39.00494072031854,-47.07298728351014,-44.28227531608045,-35.80844410610725,-39.295439737828794,-42.863558940127966,-38.033734398365205,-40.5244272262675,-46.33395214457185,-40.94267990674695,-37.898335728947494,-43.774353914403285,-40.470162787345764,-32.026605410941094,-35.078528821525914,-37.92572320558298,-32.46609342382918,-34.065180320364206,-39.09791100336967,-33.67676897926522,-31.599697733472183,-40.11532890524774,-40.707370226031074,-35.62139765136111,-40.28941284968693,-42.457199836513084,-34.74872952042022,-34.682164851163435,-39.43929447535699,-34.10363548757037,-30.912231085580725,-35.85336457897581,-31.238727246799918,-21.79406438345719,-24.557287862987906,-27.222682610599037,-21.13587153129469,-22.665686330590997,-29.144377078743226,-25.907029876130473,-25.038638891834633,-32.21347649988406,-28.61842581976225,-18.562440594022817,-20.3168526740855,-22.90568852469325,-18.438702294017578,-22.981101431241008,-31.966123084898854,-28.58004167703273,-24.59550926646304,-27.65307890921663,-21.527345784137438,-11.613007584176634,-15.21000798267475,-19.416068421904324,-14.763719424558772,-16.699570284470447,-21.60407114450196,-15.083952469615044,-10.715301843627756,-16.199073405669267,-13.870176460187189,-6.486687169770275,-9.973017286629736,-12.666352651867044,-6.762045890077148,-8.567499496736511,-14.38927326773333,-8.729806569855384,-4.470013024845411,-9.667270696681117,-6.877449562930147,1.6532652682007147,0.5213112620687514,0.7135025663836965,8.404767843625526,6.597518154093561,-0.3842211799963615,3.845443102843878,7.602249820232222,3.7713676975599197,8.835786183857884,18.69737618112869,17.47328875019023,16.694151536523005,22.762643347568936,18.426040962911642,8.174317807162335,9.223253233079124,10.482791511354725,4.936163637698468,8.406145573523832,15.377634070015898,9.961507204322022,6.4849418238162855,14.445372682758356,16.45545407574155,13.41839549703641,19.0098298508503,21.056170012527534,13.697053358085578,15.890695178003641,24.53729778999718,22.286221195819373,20.16096230704905,25.939385847944788,22.961733679985034,14.614244997721546,17.051619715593613,18.9244232809001,12.932246177157865,15.564237473810447,22.852720287133305,18.537906442618382,14.682505324317003,19.461319900590087,16.404075250099396,8.866004081907267,12.943317220652531,17.05422185162625,13.425501566530594,18.433740749371967,28.024385547193567,25.085068501579283,21.02451519403241,24.474978390804512,19.91862317511049,11.81614791521737,16.822084187546,22.73424449712938,21.142198603271638,28.915115084168367,43.49944914645768,49.46770064688698,58.96650015286448,80.1598517335376,96.27302325117877,108.79943132694868,129.9824469667434,144.0057693562409,140.14861919904922,135.11736866751613,128.79815267579377,108.96134780998136,90.69493744036441,83.65107750241636,70.5242414647204,52.619041520642014,44.2821086185903,34.085739221534325,16.481523379052998,10.05174112729404,11.023183319151283,0.7800063450264094,-10.79064740228763,-14.794350621541014,-24.880800254788582,-36.1062211511284,-33.929307812313134,-32.711588781377124,-42.07971777645445,-45.40435982408012,-43.42451068075444,-50.01175096034912,-53.98551247465656,-48.80032230707513,-52.684708717023874,-63.775967585239336,-64.88414360951487,-65.11618661556841,-71.63661214617308,-68.98443756793621,-61.67437346278755,-66.93275474273959,-72.7702979582639,-68.01012863528656,-66.64625582644013,-67.3941735434123,-57.63102030773027,-50.9432023827527,-56.48560329976971,-55.98747361505899,-48.359296546211866,-48.75058169329511,-47.7961714143002,-39.123286391716086,-40.36884206317308,-48.269231590170776,-44.46654183078462,-39.280422717763926,-42.550772401502854,-38.95648681085555,-30.35155924257532,-32.34374920850382,-33.75917528367982,-26.693389374498196,-28.92882358729698,-37.827958337660775,-34.407519095744306,-28.009784208370174,-28.625338732702154,-21.92676774813037,-10.932287408091799,-12.126190340437805,-14.212219505594325,-7.364498180441211,-7.8505990234976295,-14.484119546781848,-10.214369547229115,-4.981625347705278,-9.102343517257227,-7.254030540871208,-0.46069609942267853,-4.647219579929077,-9.225648910072254,-5.041620838242306,-7.763897170430435,-14.472138857096024,-7.873183062187312,1.0569477834578955,1.7522130366022655,7.931000609064213,16.096958859216503,11.69999404971482,8.73066184893976,16.73992804978525,17.659086885134425,11.328198849588194,13.056741882401772,13.377452372188458,6.460106226944142,10.160507299349133,20.60957266601212,18.673183933391506,14.639698113085705,18.59922264859512,15.640099287989987,8.568643447231763,13.531117482500397,18.788041344051017,14.537590519758684,16.795600288214782,24.02865888520359,20.307717007061225,17.06468736014019,24.43703712714068,26.07740020997285,21.617750873851598,25.043312016277444,25.106189470018712,14.315413874635592,11.584668073598541,17.066031828417493,13.609505555224471,9.459031166770853,13.304993983828446,11.21827809463888,6.328237609461805,13.658297420552431,19.975735709647505,14.599789086971713,14.861003535628859,21.710924851275806,19.039814201674318,15.179688474874464,18.675880236133544,15.647359564495318,10.328628510663396,19.01898695524019,27.34394294298052,23.33759264417784,25.59701362317468,36.02402446984359,37.84672574428812,37.65647010554062,40.68197859763737,31.44333437957566,17.61051189772003,20.916793326462358,29.131161604483378,26.7173492664367,26.291086447366197,28.379479136274412,20.709691152959522,15.910548808531718,22.60151824117237,22.096729215945295,14.244085392258569,16.524211035407877,19.229905057834415,12.051505713228206,10.133372996892517,12.70695014929405,5.726002013745035,1.245508684937246,8.876865051612507,11.625872973935259,7.845834681333132,11.894956870825467,14.70037256689419,8.986394021158626,11.98671728799846,22.053776547759757,20.35200294620205,15.209019799556831,17.397760772445707,14.093084908683142,8.059704507653892,14.368476879958177,19.754291977883394,12.808256609661976,10.697082185085932,14.378505018437998,7.989678717392862,2.0063180398947367,6.939153232279285,7.363381882182663,3.65771803688158,10.952489673065195,17.50521949973706,12.168593183829334,11.706503063765458,17.285445760593404,12.56031805833487,7.660487227624533,13.722179792021205,14.905196653828359,10.62661292462031,16.160598439635834,20.770568081225743,14.551609126036585,14.271707057226266,20.05551990656817,15.004555373486554,8.803011659201097,12.418725795176357,10.213243629253387,1.6510088576745137,2.7946556348987066,4.111029931794105,-3.7035463794416468,-3.704049446838866,3.5750062759636045,0.2580955468860018,-4.1111001856882625,1.4546244398941548,1.5178504728985718,-3.896644218125603,0.8761646910273679,5.3959381401072095,-0.10557351213759203,0.838686232787593,7.530858158666017,2.353406913393238,-4.935931515279647,-2.6541601447374656,-5.264447440715302,-12.525545890638519,-9.190698025802313,-6.5035432363069,-14.706782178470482,-15.973041684717462,-8.860894738338622,-10.619731272254134,-13.25662792707976,-7.682214684306689,-9.717554170778852,-17.608992750188293,-13.282196006531155,-6.921350674926778,-10.228251525823831,-8.270981314964402,-1.6054631128488732,-6.720624982775535,-13.505707166197608,-11.298953035672586,-15.572786427733902,-25.545902022206892,-23.652836330238642,-19.428900795446875,-24.31206478657141,-22.942642655664685,-15.167703146588657,-18.14535302699112,-22.8043942292236,-18.449700356986813,-20.183283624791265,-27.09426633997717,-21.847785350984257,-14.98212222123502,-19.37383629442015,-20.104303123442392,-15.343510166863936,-19.524972659617696,-22.350503099612695,-14.659287823293393,-14.712299616953553,-23.56056470912075,-22.927772147386147,-20.308297200761434,-25.79846526032703,-24.616095389532507,-17.531348904297307,-20.933653397933377,-24.46113888473419,-17.287886286888956,-16.44051038101894,-23.868362851367564,-22.011656955902797,-17.60138755292388,-20.447070512190187,-16.045503021343663,-6.221157442068584,-9.833000921422551,-17.31512344137171,-15.395235302529223,-18.040010031482204,-25.16116251833592,-19.312356883348617,-10.245423787537206,-11.438780342157083,-9.872327022045468,-5.850583305302889,-14.524519294558864,-22.965957597761413,-17.70057696588922,-15.290139728049326,-18.593989473265975,-12.422442493799462,-6.829891509456193,-12.46205983896489,-12.474666511343763,-5.45521873790873,-8.083353616581775,-11.127573578874959,-3.95854857822457,-3.044398001333034,-8.68772481771958,-2.6879644918858245,5.155384245786101,0.9832519454359843,-0.8431520371772596,1.994709328888872,-5.058502036043603,-11.230784288440853,-4.937664990614534,-3.299796560973169,-9.125056694359092,-5.765613246915446,-1.7712485663549666,-8.724229582568931,-10.73875278280503,-4.987718875815273,-7.2586212773733845,-9.67991987058748,-2.8173825558277934,-3.252742166770043,-11.187503544047706,-7.422146148509916,0.38816678939356564,-0.37735387396512676,3.096921776781973,10.00532694602652,3.797247762976555,-4.951601694071021,-3.3071507460039617,-5.400091885350959,-11.550581938990467,-5.597892378264133,2.078499887745198,-1.4768998997661162,-1.9113574952132637,3.004853096465534,-1.409820876769396,-5.741480955648961,1.137453952466415,2.82782237177055,-3.6082477754119795,-0.8820388710428413,4.222519370122879,0.3160748760171992,2.047845717798502,10.260736186215144,6.687118088280113,-0.6570761037144246,1.5169766233205337,-0.35226570331428975,-7.367694910951105,-2.685583234005053,4.328563142761229,0.36674180860163297,0.04670291799985349,5.538929541640064,0.8471097597985868,-4.498676748791496,2.045034453252307,4.576979097814308,-0.15729901842070593,4.143496760054637,9.48153024896187,4.8666364560949225,6.382102448700349,15.406167943321964,13.34792310636584,7.682240266436777,11.309304250743386,10.445380076156253,3.5845474071194205,7.47750933485954,13.4846790386708,8.933466364452954,8.738102097327504,15.011544742051994,10.24435050846089,2.414649804516004,5.105040757389419,4.846857418362228,-0.792052068154161,3.608343516695517,8.614810791067473,1.5852371743268536,-0.8085128302366951,6.2228992744904605,5.730805118965838,3.6020226693606414,10.566534255838558,11.03908139632059,3.252363962437033,6.159093045353743,13.048471153151176,10.89610709331329,13.287590886940484,21.248869220549246,16.792640115372578,8.103314381742052,9.176808977661553,6.704248873008472,-1.17772299753541,2.253121809527243,8.45194313014092,4.625674388037356,5.6720924993123605,13.540821889291006,10.612790534752222,4.9761116966591405,9.530957892501766,9.803249176331054,4.557656847922412,12.430167925223184,27.062731937474638,37.3774868284186,57.86432056316051,88.10153197129604,107.24983394913961,119.93875976997843,136.25645168082008,139.69848474995536,128.21210851323764,120.75461710502515,111.52376652612782,90.96882202775055,76.44327271272724,70.98918105372864,56.890624050029714,40.919975674874046,35.24139709843476,25.265039620213457,9.375131415649983,5.816232227899534,6.307055794216379,-3.9059807480106645,-11.473531381665936,-12.94048971654779,-23.453787862585656,-34.090086081907145,-32.01286139739105,-33.17462055196781,-42.3972874094441,-43.54444947251753,-43.20700191695429,-53.15074330255646,-58.355179781843724,-55.20580272131516,-61.11145999812362,-70.21513514677109,-69.49269113939198,-71.91556800479897,-79.67869707587225,-75.68709485734853,-68.25252376275853,-71.99594637262045,-72.53607439761454,-64.81156129444311,-64.56865178193218,-65.77807135546098,-58.01296412962117,-57.389275994885004,-66.45433195799707,-65.91046356907967,-61.14600535294726,-65.15876683999088,-65.10799174071728,-58.7626115538463,-62.177882206285176,-67.06369086948544,-60.33606938180778,-56.69945335221172,-60.59807979905237,-56.43118309182458,-50.18997869924936,-52.66385318161091,-49.57914469043213,-38.728936295707996,-37.641331902817164,-39.97064650886473,-32.57611439427518,-28.679587453703608,-31.824803421713405,-26.549677718566222,-20.26958736075896,-24.863034829055298,-24.9650635350214,-16.937544840230082,-18.090279056951687,-22.141911123255497,-16.482971790450158,-15.127237325737074,-20.72375141438056,-16.04490750292333,-8.299161708075475,-10.357568828006528,-8.220520360171038,0.6758369701051139,-0.6076982660804129,-4.902169118863983,1.0572353250185462,3.6316205099621364,-1.1474618547070876,2.3718605879700436,7.784486401310807,3.6643676840393593,4.608909922854826,13.342181217324725,11.821100627188898,5.950268406184568,9.673514094078602,10.913249749674485,6.601174353113244,12.327599931413435,19.4401867200572,13.811110495148675,11.431392946236677,18.012163890337266,15.968480934350527,11.416388876791611,18.011252056034905,21.496698899846415,18.492521766437243,26.58353389348076,37.74345986488057,36.14363612884129,34.91757475794163,39.302507373278495,34.78963334899593,29.48494124257664,36.53515914325841,40.325967197628884,34.99786581198858,37.21476522018627,42.44026593403671,38.755099584748145,39.21198624480361,46.14585176768623,41.733038027531336,32.56371656543268,33.81018253542496,33.09434664726032,25.68924568431909,26.993519306722668,29.948887224079407,21.58312850244652,17.435792574912874,23.22125356838835,21.753617505793617,17.645879882183607,23.407082218576203,24.72584732757361,16.910285932402875,17.297999003644566,20.180135260493564,11.988575806692742,8.092329812662179,15.137438145168622,15.760050217843673,13.573168784466406,20.197025654334432,21.04856666058649,13.407099482914127,17.226414867395633,26.76955773807392,25.819476035588778,25.480533173892674,29.507856542921466,23.392200564525055,16.66480860340674,23.431678862795966,27.060627481334357,20.750701627456902,21.851910461559534,26.544776075096035,23.14896572383502,25.272188383510176,35.14912588179416,33.846185306706786,27.584631777445416,31.6268638424396,32.51074169231294,24.290052620968005,22.993478295604938,23.468667322853445,13.725331047224431,8.757914982696551,12.854439384466128,7.56084038056971,-1.8814980792821805,-0.5972513087391476,-1.332388764276276,-9.014909218558886,-7.403952830733184,-3.4399768303326836,-10.9521909862405,-13.851200937965608,-5.926741991609745,-6.083068128060596,-10.667249750809464,-6.315876296423014,-6.748284340142394,-15.55729880342034,-13.236359060926885,-4.288608219471517,-3.9323131972343064,-0.5040700959178983,9.921413761944141,9.309343129980842,2.6108566589754933,5.501425210575011,6.489014045183435,0.7951055578024011,4.842344639250735,12.20948117713701,8.289632796290414,7.02000960821246,13.862186659734508,12.02878651398293,7.267371360910827,13.589125893750582,17.330663709723257,13.242440755088396,17.846072631612888,24.72707404025692,19.52939552931562,17.122698192454504,23.5937590090721,21.093195484915704,14.145517295606068,16.7282680956063,15.820030401198693,7.363770960566738,9.302832268720387,15.79272595691323,11.095226713853666,7.625428670876927,10.989634154986733,5.016115778584764,-4.222184197597761,-1.4466859602649582,0.8232058890280332,-2.978576910060715,2.992758209790933,11.840438864689501,8.164311241918135,5.517636583582602,10.150707388068197,6.049184351746246,-1.2138403231807153,1.808865272627445,1.4275231743854844,-6.944118804533816,-5.66443345795069,0.250043292339059,-3.7815327647215558,-5.37135714716852,0.5040215713454979,-2.993541170137752,-10.831326491312339,-8.536262082891731,-8.918928303409885,-17.019999690384967,-15.447444999800709,-9.495861868887598,-14.064054476862982,-16.343453784740387,-11.047152747363999,-14.728395978428953,-21.541091068955176,-16.74342330943589,-13.652180483010952,-18.28959884425064,-14.039879608829128,-6.547478771541073,-11.185813114385688,-14.365527683612436,-9.187989861879354,-12.44024603023103,-19.20606685285857,-14.987018972175832,-13.857036126081304,-22.057275509459785,-21.481873724310166,-16.279901136372363,-21.357393418937413,-23.655857490189245,-17.62583600631108,-20.82109887776862,-28.00795074251103,-24.0736444699848,-22.19242336828897,-28.064901210352353,-24.14770769001305,-15.255658959651145,-16.9827883390848,-17.48905849127408,-11.378580951109935,-15.281108919944462,-23.52690025932655,-20.123634028384117,-17.497245456301428,-23.000579200707804,-21.024079319970728,-15.75572859781411,-21.130363413121486,-24.063742328691216,-18.152401242379135,-20.237641644167617,-25.981605454136307,-20.356642318767634,-15.974506472836786,-19.59348247588502,-15.347369129979242,-8.78360192229418,-14.741916299831828,-18.854174479369025,-13.495527137727613,-15.569287892006404,-21.140160578014108,-16.50174925929813,-15.852802462788103,-24.961410735164787,-24.933316333097657,-19.413597245219933,-23.659043087097686,-25.105032707369666,-17.638404137399025,-18.91298519709375,-24.69172851989497,-19.38425514928104,-15.814773475742712,-20.370863079939827,-15.573565640109358,-6.750742615075577,-10.292005524451229,-13.270941006067076,-8.471960848419517,-11.998302083709863,-18.512959287121884,-12.94243277653209,-8.688456056647194,-12.81584956112123,-9.402685718905516,-3.530935481508524,-9.411820517883726,-12.887502368708153,-6.99696657866397,-9.078720530060954,-15.062465611940144,-9.939801439795982,-6.90714738892221,-13.053892912840311,-11.229670284040097,-5.211705803094075,-9.425262615674903,-9.866163109395798,-0.249137481689238,-0.5328453620276976,-7.92606632379543,-5.435099749450715,-3.9090195063909663,-9.289900513865229,-4.661877106098549,4.436517812998425,1.750098565957984,0.08514005953951788,6.078115111271332,2.463911621260834,-6.184936802090345,-3.588426511536849,-1.0603309483785868,-5.039838351537055,-0.1942331790734868,7.589363078353163,2.6829956891891005,-1.456174076274578,3.9067759654988703,2.6788442177584497,-2.2292928796411857,3.4882368161180017,6.620372001423305,-0.2968649964893997,0.6220724439418139,6.876490936214331,2.9151689018404237,0.4526964678095505,6.7023853622461775,4.811985966205312,-1.393419144496315,4.106077662877732,8.9069352462925,4.661212509098656,7.264947699576499,13.31285715486814,8.169308064552558,5.046229073295727,12.26202942886146,12.80478773815172,9.123428668697638,15.66313553122034,19.175847042952867,12.380781675262714,13.494946847047693,20.41161392422392,17.8872031953394,16.434968921975873,21.33134061072319,15.477059685036755,4.1072397682305635,5.724886861206367,10.319691824287576,9.320298991616065,15.638009933581504,22.655269309709713,14.980458266064865,7.609987130009296,11.36406162131167,11.17365894567061,9.193099179228275,18.58628422845752,26.94628151995701,28.761455617871185,42.8333658151177,65.5641823280377,79.0032128811365,93.36126258641298,115.96511833098735,129.83713136067053,136.14544689149682,145.32115558966515,139.3878759632905,111.48756433810162,88.39588264663725,77.2120419300361,64.74189889030416,57.88334309556288,56.65734686110713,41.10505719661406,18.90695125344829,11.85793399619731,8.943692438940692,-1.5935209542330457,-7.27539452245585,-10.58553830592165,-22.981625445771993,-30.983122495529386,-28.747529755227603,-34.61277652218782,-46.24787398580821,-48.342176020255785,-50.943431562382266,-59.391892130214785,-57.5580053720914,-50.94636654718036,-56.65301856064213,-62.90811416081175,-61.04547517298561,-65.80323570672516,-72.38462024551302,-65.65435013044228,-59.84302648940212,-64.34147997665988,-62.191521564755845,-55.12864412763784,-57.89977520930097,-58.737773954431006,-50.060539910064534,-49.08748695482488,-53.8600345033591,-48.60537589346997,-44.23003103955255,-48.467838568611654,-44.9150045114559,-37.1235544501,-41.814423528160916,-46.830864602449516,-42.04637073865159,-42.61119003955265,-46.5563147231148,-39.92526112042811,-35.185299911347315,-40.373528303893586,-38.257581972395634,-30.100250285554104,-31.45148863032989,-32.40480062426544,-25.12320283939391,-24.60063314814842,-28.326998524905395,-22.241612589593025,-17.75747386780019,-21.559499462177914,-17.316270697830394,-8.659593489682251,-11.995255422741634,-16.78872627765194,-14.369548664445961,-18.286946965803658,-23.5286830588746,-14.984765832388517,-6.620752775432306,-7.859782001180175,-2.2450875686124974,7.5597795091022615,6.055079663021726,4.888948709524993,11.989397079035214,11.431670867117939,6.722651459034186,13.30013574468607,19.082552544341855,15.813575963817744,19.346947731741412,26.895231728408465,23.335628077153608,20.256859235563553,26.394518372147992,26.21419289741705,21.730736910274626,27.550323910442565,32.02575137100928,27.427595958316324,30.33798487167444,37.424359143691234,31.76584009177916,25.03561490437466,28.004060767728433,26.54347682448708,22.735046609155795,30.02021251294312,34.68574253383934,28.00334965615644,27.95999908854307,33.66875735324973,29.485018274213957,26.139291108941276,31.934209584479873,30.541124468702478,23.56165148077923,25.917023349368154,26.0829603311294,16.247311869042118,13.851336257146867,17.12071678831632,10.05985912025384,4.412627927166224,9.051646086656945,6.662543055371113,-0.585152928304685,4.369694088526002,10.235022575476966,6.686482115699052,7.603452462132892,10.136800188031044,1.9105061043479012,-0.4411732146640247,13.532846219647904,23.397402773064837,24.603205984158684,29.388220643583704,29.010273739423262,19.95558586702451,20.35163833534626,26.72423829640451,21.929858303394568,16.442950251919395,19.141887765299295,14.749505474074454,5.3550091644547955,7.191661491310621,11.51240555461788,10.280859050196986,16.683043826223575,26.03059310994132,21.901908412492,15.72166960871899,18.148452759541133,15.04428252612163,7.889969262052759,11.201485259959655,14.03376297036263,8.114611395144411,9.308456313609597,14.722585773680963,7.812723555186621,0.30327792376218876,2.3462681101739546,-1.687659969894737,-9.851422073464317,-6.291628652484764,-2.5386688295682496,-8.120741726534837,-6.641524560713942,0.6877952817356605,-2.4558244357966172,-5.5258473498647875,0.8506308336416142,0.017623842636879994,-7.273401393070776,-4.348859301752559,-0.2230125045330007,-2.5894075122667806,4.310410522452163,16.468392218475138,14.962264180782805,8.97741010003863,8.91745561691921,2.738903944493722,-4.941350861531607,1.3034565489009378,8.10826634657023,3.896524667064426,4.029678531557951,8.193758791711058,1.5408521601935243,-4.983655314179232,-1.9152175572074315,-4.287050746902168,-9.408140460227267,-1.5077481016306473,6.363012942219372,2.5046199603029184,2.387014168795437,6.111147881073792,0.2989692303950724,-3.00645594398504,4.116393562670282,3.4997754931104414,-4.532873235218247,-3.6517191286367776,-3.022466969216133,-10.484269110658044,-9.569052651294344,-2.1222270884337044,-5.173869998804331,-8.521524735009661,-2.5491785005137224,-3.3724344004316813,-9.9320227918379,-5.785543768254925,-0.911673682417105,-4.2885074363357765,-0.5598578051593517,7.367421250560148,2.347296209240975,-4.872115730130826,-3.0766071852257904,-5.54613874026429,-10.104619474969113,-2.471398317228336,4.027299731860403,-1.4175605937999238,-1.900820990867695,3.3222407983501303,-0.5556561246661822,-2.9048430428390724,4.428077468870136,3.416773591823301,-5.170920079106202,-3.853244160981422,-2.25624030836751,-9.515745583100333,-9.191531813511473,-2.951282345496921,-7.802003508506109,-12.636101054026403,-6.918233048354147,-6.693595057175298,-11.61605560451806,-6.309038461736703,-1.385707293624905,-6.232275953734358,-4.772594106070865,2.051028008054182,-2.434524509493541,-8.568891556997634,-6.3590010724082315,-10.20419374096062,-17.36818970904974,-10.830454139692037,-2.161177195786677,-3.939796907927753,-2.244531419816555,2.482328319888169,-4.4276093458843455,-11.139545126634703,-7.000961751559363,-8.6647799965586,-16.297335238438606,-12.968374062023674,-7.902941345850737,-11.589863237656477,-9.548313864427051,-2.5165114967262703,-6.247788698071808,-10.87684029697085,-6.272077281037177,-8.204217078098957,-16.991491841459165,-15.613201216571932,-11.913875449955917,-15.316699125809489,-11.178460203616181,-1.540729099954382,-4.412323457901055,-10.08008141770244,-6.533126899353075,-8.340594078248579,-15.587196355082556,-12.262738063386875,-8.184739833037224,-12.935713739779123,-10.17597294053943,-1.0437627905792795,-3.483995560396356,-8.167714952141777,-3.8360610496421432,-4.6245966551894755,-10.202251343254416,-5.79994048237886,-2.549215458586355,-10.721565434343242,-12.993084102384653,-7.195269307973774,-9.291544647425793,-11.359619726016048,-5.135036457607092,-7.334476341574848,-17.03703324309711,-15.608137073421707,-11.13779177410274,-13.977728049472688,-10.109577378479635,-1.8464049653189045,-5.946330523164409,-11.078782769164526,-5.498379544074047,-4.678941655588702,-9.461425283830266,-4.770422551810315,-0.7465026557204737,-6.863251371503493,-5.946005247293112,2.4792670425673586,0.8543097786182308,-2.764122300762524,1.3451250977610116,-1.5572674462793172,-9.94430031094217,-6.802118724480549,-2.083997477287424,-6.829070356208949,-5.662706948519478,1.7988271721171327,-0.7177814398123843,-4.154419918991374,1.4177739372781155,0.6728862872455257,-5.646650678468085,-0.80398393014864,5.063961651245693,0.817634745282751,2.139203401743683,9.454262016099914,6.1328360799721295,1.4220081919691723,5.848128168578204,4.226858336836066,-2.6323552348218233,2.4314219250731504,9.549716927608124,7.085538625687242,9.388744787896677,15.786315480089295,10.00229333277205,3.0658624893042936,7.00800007091465,6.137185025793654,-0.5089618503947122,3.2129569814704233,7.973327108994382,3.6286954469068706,5.86006549116305,14.112269890223674,10.859295291312296,5.608901990578336,9.88218428677868,8.520319762912393,1.332186415666305,5.10358633488635,10.192905538539948,5.18846008617345,5.588388305329133,12.106495368671046,8.17164667014035,2.981101212627234,7.063889790271396,4.706948590447556,-4.163226061588335,-2.1129355402210046,2.14963831087796,-2.5860832293433504,-1.5609384046644172,5.571415310804582,2.3174610340386774,-2.215194338312729,2.955068984319854,2.866523159161619,-2.7119839884625927,2.0777099432053943,6.710887045951896,-0.09392806151268518,-2.0663854152661894,2.9998571631107582,-0.27572997461938487,-3.247533164932426,3.739964211631157,4.141638849152034,-3.360209438591104,-1.4652186573040034,1.8794985760482528,-3.947284757584251,-3.4387537174139915,3.627220360342038,-0.20274391734099995,-5.309956382128784,0.6534126258862987,2.710104015589039,-0.4542007874407876,6.395352726990227,12.511842662985767,6.284337976931138,3.906541090733896,7.276255523928246,1.2349020164115183,-3.7734946790631705,3.1849396889055526,5.554546134200077,1.2904445345262971,5.89830078281668,10.649943651076976,5.658821276704,6.204129677592931,12.335709162816359,7.289862605514492,0.6589620422399669,4.928512741592479,6.035978545833228,3.369616197195234,13.245427047679458,26.60913353173762,32.68675184143963,47.80899990433755,72.64788132948009,86.60154568120086,94.23481198936629,105.74136683573288,105.89499609688067,94.35316781508253,89.88463890926178,84.07890958086007,64.66446083084885,48.54938546632017,39.80550236480728,22.86592342976774,6.736753257417499,2.9296271701744057,-4.562402018253318,-18.17557308979786,-21.84139059069648,-24.256486402170356,-36.14469585319024,-41.027298900120556,-37.80488895411961,-44.68921377631459,-53.62330771833354,-52.58769372415425,-55.11751161072201,-61.31292144128581,-56.11711791132116,-50.767460958723305,-57.241239796547596,-59.148291620071845,-53.6760025835635,-56.859273536765365,-61.05598148702385,-56.1551687364684,-57.24162954875198,-64.77468607494646,-61.39933697423422,-54.49651646731578,-55.09169622086187,-50.50950549563634,-41.318501356531634,-43.07207181768156,-46.38254799879592,-39.03183024490607,-34.86764650394737,-37.37076402712545,-32.51642973724518,-26.991455728097275,-29.922830484708882,-27.102819257262244,-19.32422227470375,-24.34177455540543,-32.478254613059036,-29.318775644268815,-27.5645314790195,-29.21532786829248,-20.35274272961422,-11.350868026037947,-14.331228281293958,-13.57759689944367,-5.564677470377498,-5.721896585641497,-6.108961551333083,3.4042377996069897,6.010483439008924,-0.5113284112397212,2.0893964255844764,8.074483404107422,6.018429894892689,7.805107511618035,12.75149992527345,5.186669915203053,-4.531675397699489,-3.665710537648154,-6.835134980355251,-15.714658326920091,-13.543922360634323,-7.589908249287701,-8.609245788410243,-3.516489420453435,6.1494445910366045,3.209868710685677,-2.410477811934066,2.8177124867387593,5.15067719620637,1.9619997849976019,8.117377144584303,14.50077168712767,9.430628383724478,9.287956235755276,16.889099814481238,13.864073382078757,6.5225379799060565,7.540825584496126,4.600472764824338,-2.156728572464139,4.534424563374247,15.018453063759571,13.638168312712569,12.798770267358936,16.29890705936061,10.635139048628007,5.388210917105466,12.130992991760095,14.718540950929906,10.250235989452051,14.874521047100732,20.749154954379588,17.5336250664858,19.892356620208748,26.96795037208522,21.217836871782087,12.463481727739573,13.3162471401907,9.521910115065223,0.5049599252639916,2.835761693463239,7.406825331162482,1.85361523837134,0.8152935896987121,6.441541774066601,2.5391179601232103,-1.9179425367098624,5.770480156932178,9.95249155831905,6.887244297290593,12.434979064482457,18.72762225959089,13.984662823934807,12.926227625622218,18.223418818234997,14.053329017300037,8.403054386690666,13.103795596635784,13.469254869269989,7.037520083152408,10.278792252489612,15.842451358472706,11.592000589668167,10.969124945160905,16.083307430868988,11.449761678998872,5.294849347103068,10.217896348532346,13.018171004804486,11.184915943768306,19.042028994839384,26.85223041547388,21.68800458492868,18.990625469774937,23.670744885185055,20.59581156380725,16.544951877051382,22.442801577281518,23.211575487458134,16.438035546338064,19.862847319478394,26.1517811078509,20.803970194595713,16.504035538387036,16.781256648252565,7.918913162005559,0.6863219563273741,8.514011879081465,14.9886377363857,13.438771398709935,17.215715519139852,20.009552816107533,13.422242323112709,13.733513487298385,22.68771402772301,21.701256259583634,16.795464652842497,20.18241358879693,18.08562374691185,8.792994675722966,10.051209009310554,14.992246858880996,11.09164170280161,12.167016283867845,19.466555076512996,14.673639562610703,5.4828331352973105,6.282806640784908,4.841529411657589,-0.16678314500326374,7.404357649195509,17.972420462426633,16.39014827696588,15.439260552131783,19.38177108684884,14.397389556812026,8.905208674067755,14.883050323088886,16.986138888255674,11.284151392863786,14.30378749289369,18.99432357428076,12.292540361109438,8.612747299319281,12.092956347693303,6.697018055416462,-0.30221893296170643,3.3038452248938697,2.1211787979561176,-7.0741533411235595,-6.203413312385937,-1.2997372163285856,-4.715958351793999,-2.3452892080803545,7.602946237879553,6.512866488716741,0.4358925922483714,2.7420713763130666,1.7832695672581325,-3.242401200255098,4.08875545605299,14.083537808655683,10.943456331909342,7.695277875779272,9.683910343143811,3.7036249438990474,-2.1058944778716753,3.4088527355493423,4.194206402601402,-3.418608689743821,-1.7296364633882577,3.2121339089787444,-1.7797572733487708,-3.905148377988717,-0.19469675704774847,-5.773229394856691,-12.23992952816122,-7.0426940492770465,-5.9229985644550815,-13.680760216310444,-13.032420823220598,-8.859049094008828,-13.09863705504963,-12.161056255828607,-3.6475020989577636,-5.604998913264755,-11.881985971286316,-8.71937720273103,-9.22450531484392,-16.51763779963641,-13.163173895686912,-5.81588078512591,-8.66982681839984,-8.695486547873001,-2.709012143727968,-7.412067535881755,-15.590884188707935,-13.852890581705513,-15.544249610610121,-23.328988036978057,-20.180614835734872,-13.125960742293147,-16.607998559418206,-18.08604184632967,-13.280350422658127,-17.271978513858517,-22.521631888245885,-16.29712729971368,-14.126666609978393,-20.704501413943117,-18.606956073408305,-13.046301498149978,-16.283882970900688,-15.363579206654794,-8.30801024597082,-12.010996025395025,-19.015825365490237,-15.39698224828862,-14.69130983439008,-21.570231442720942,-20.854882161418622,-18.855613691936703,-26.2600447300656,-26.97980742701327,-16.9125158526403,-14.39072889390027,-15.86242426895569,-10.170123923944713,-10.539613344838358,-18.456283245071173,-15.198651428232143,-7.101579364640375,-8.659930089613843,-7.51119137076568,-1.0677353517423422,-6.33419213770809,-15.625534840317226,-14.555449638103118,-16.232171666019944,-23.327547026301062,-18.891110935384596,-10.669352216445741,-13.33405331865161,-14.359366896871244,-10.068202582560986,-15.601798376282801,-22.67242058533236,-17.1921998689158,-13.283876862459335,-16.3088354249353,-11.360599160053585,-5.681209037477452,-12.064580682745005,-15.601930924880424,-11.031878109198793,-14.211817088316849,-18.90613335238381,-12.213305235996653,-8.073468179028684,-11.23979075093203,-6.097032578570327,0.23946139532399213,-5.991238868537445,-9.961428116997277,-5.108476885432335,-7.119582044096855,-10.897065479256264,-4.446232284314085,-2.5590220134665183,-10.107020205552693,-9.517506256182326,-5.308916402124692,-9.823599919448876,-8.718003218037442,1.7308461881336732,2.680492951353054,-1.8813013738257747,0.9479911592936974,-0.6333893765961138,-8.276607952543893,-4.572935519605831,3.270337070714514,-0.012551358180371341,-2.3304361880985742,1.5512347869272296,-2.1854041423896655,-6.522369591411064,0.34083953302290304,3.0281030756028677,-3.5702795526916264,-2.089819978395089,3.097506320671413,-0.9332708737802693,-1.524715468156065,4.4007190962603895,-0.06912600989796225,-7.073213319740036,-1.7441355365621196,1.0757488832891626,-4.765870279964867,-3.175943318829316,0.611272304170664,-5.190074000841083,-6.009567680909494,2.1365651549634705,0.9751317761346894,-5.33442865187051,-2.985656468904876,-2.990185789523918,-7.94805538899118,-1.7657492609276795,7.645431449890984,4.767913876383698,2.281905265736582,6.308180194791742,2.9680375484998014,-1.1840784221688412,5.745467667575234,8.763460729853719,3.4932498369361555,7.648050079591002,15.726522455622064,13.268795121110514,12.511785343049581,17.578445237190817,12.516692129067097,4.633283041489637,8.790962009498017,11.47156357966174,7.038895461421916,11.489920727302508,18.954415517651178,15.492808646014176,13.898457785796502,18.494462833201055,12.86730043405521,3.5318263252208375,5.588926420810476,6.996767584543435,2.8902853505687,8.344510570499068,16.321173409999748,12.851618318146986,11.391186408898726,16.691168648193116,12.587281093550112,6.046052882136047,11.779386657622682,15.826218451358523,11.797239946592034,14.905986891447242,19.588359475695817,14.01470857427498,12.744746996683482,19.709933259297827,16.55322108538473,8.0420236779558,9.17988790698184,8.518871750585287,1.456596833828253,3.823042707151859,9.50570223940468,5.002206934128022,4.1948175190233075,11.763691688515621,10.534991481811755,6.1104364525212596,12.270912263090665,15.120585879148237,9.53865439133802,12.558894346095427,18.77911216496197,14.316829716630842,12.306067148733447,17.297503279912455,12.597941859830964,4.66490520523832,8.06390605884062,8.467429467151044,0.16965499196067713,1.1795020471119357,7.147662597338122,3.828711837946684,3.244427636118019,9.015946763322479,4.598840826107905,-2.7132284833211875,1.7403552668014863,3.56584334572365,-1.912441123370019,4.22823085765837,17.17401669742661,22.180348437847677,31.299913544744054,47.51020778375204,53.52900938112478,57.125503103236504,73.72421444098984,88.19188974857906,92.52132895186668,100.95417311347462,106.66083116162247,96.52639735246106,85.89816994919227,82.05969148594727,69.53739927619249,52.72561124687877,45.0138051402994,35.39433683884637,20.786792965043908,17.20455671066459,17.423398131769545,6.195086653377127,-3.603492634361218,-5.793071244612877,-15.630300767176484,-27.518692166428455,-28.047359799256846,-31.357582830746573,-42.863655066307274,-44.99565500367573,-43.59566544299584,-53.40433429859026,-59.43797207698398,-55.889007410628196,-60.97233303148454,-68.86312511789907,-64.63702950715337,-62.82035028755388,-69.24636541703035,-66.39781064059277,-59.81292306224334,-63.89769978144485,-65.21434311185062,-59.4880815172044,-63.967577697506364,-71.36715294191362,-65.94348563126657,-61.63300498484655,-65.51244546025302,-62.28174287368656,-56.93537836024784,-61.6695202742534,-61.87708582865791,-53.04325450151734,-54.09746220471114,-60.14686169862508,-54.931504846108986,-50.25685942283992,-52.11805256946262,-45.16966943182288,-36.23004588878269,-40.1294398225448,-42.325453756410695,-35.96039162822382,-38.02036936503217,-43.73549400869314,-38.47138391951489,-34.9352016093453,-38.256528242583656,-32.00511393851893,-22.979754948715048,-26.55963631573236,-28.68926366611315,-22.377318881620496,-23.64497268317353,-27.439714491582585,-20.781427349369345,-18.180448865518308,-24.518917244490492,-21.446666522127185,-13.982146489539737,-17.231267323025723,-17.83972555035212,-9.40029097354512,-8.436129045843112,-10.401092853888422,-2.9558650295032654,-0.840559962963053,-7.529519192243929,-2.7006672096395765,8.991709807038246,10.636383645896498,12.1627869280722,17.89458915966196,13.693646823565482,8.418518399517444,16.070982285900755,20.440878156315875,14.736346168421239,16.186920972601044,20.84609338725488,16.254826997298967,16.167293235672126,24.80867511189403,24.13475050961923,19.319222881274833,24.55737485003315,25.740417719331088,18.194914831978323,21.521720753149875,31.02887620823343,30.190073034489178,30.46018220868754,36.09726859196386,30.07464482393337,19.799873545281965,21.784576278315697,23.08586368905383,17.36808313643263,20.53940127572233,27.28704715754982,23.552463049665736,22.28362904556602,28.574743347957273,25.491540354894052,18.621997690198988,22.82858146280223,25.06514973207622,20.039818500106172,24.657284652522677,32.812360854440264,29.051258007852347,26.401135545534444,30.642739189942088,25.280806399186133,16.861047910910646,21.73348835193806,26.751963703334457,24.301613451398048,29.959598921058653,38.15705568930574,33.761314043194645,30.746802272659522,36.82761238460048,35.1860181240906,29.438613593268194,33.987607696786704,36.169080540434074,29.413447752232166,29.69076818506043,32.50387906985918,24.302596142032392,18.82094466839548,22.158280788492476,17.04762651011557,7.707807072826228,8.672895483035072,8.031867817121718,1.1629896938054838,4.367440921572564,11.27359662329159,6.856588108168161,4.4583955625404545,10.288937134920264,7.52641451544611,1.1515031918035035,6.274643418575561,9.702469139564851,4.871085769451872,8.747602783940145,16.667187715370535,13.792599421013396,13.112212343356543,20.045412133488703,16.721911661502347,8.369192058876605,11.124507739693398,12.607288988410456,6.8167912536147925,10.505785629936412,18.141535017865646,14.181297318316378,11.5328180154898,16.70359977845489,13.258225747029488,6.380080157450116,11.07735835617039,14.167394363902499,9.230470336049379,12.991866849063252,20.455871401569944,16.035791288254337,11.728644121790248,14.399035014061328,9.352683836345657,2.2232046965187635,7.00281908397078,9.54307098845126,2.7475332996215514,3.906132965500311,9.815103218997574,5.808657641565178,3.6476539924018585,9.340674516742501,6.31188236129708,-1.1440253293767566,2.2478727881222667,4.237951355156671,-2.199451037446668,-0.3476066389112291,5.904356679994046,1.1892080620230203,-1.706637441904819,4.7332115575153395,3.6325580758399285,-1.9666307383599848,1.8841864221973625,2.8630168204953255,-4.111257430500473,-1.6433701992001226,4.895673140814432,-0.7711626091072317,-6.5021795849171475,-4.948737917238221,-10.910034308506477,-18.881144496338248,-14.217252142522735,-10.063645886607956,-13.41956033236843,-8.841881426448111,-2.1493182132699027,-8.202094018283887,-12.634505588381447,-7.1199031483526225,-7.481244391453777,-10.446097460280818,-4.149485770304325,-3.039438613086232,-12.357107416417785,-13.194736008777411,-8.618858941510725,-13.57816898285754,-16.461228529284746,-11.623696672109258,-15.269485672563608,-21.91503288876632,-17.041070619666662,-14.712307974983606,-21.431328797301827,-19.198293651524388,-11.481974950501286,-13.708884829705738,-15.309547963111356,-11.316449185438003,-16.95958032600156,-24.593408966226267,-17.601397929944053,-10.75926878803001,-14.49454925621565,-13.158624280300783,-8.94717021178558,-14.324708115695246,-15.989568201269732,-9.59037782229633,-14.32155890284497,-25.317317834749183,-24.97758629562692,-23.846802184323703,-28.55229926644455,-24.21375883945217,-16.69500232336314,-21.168786260739044,-24.18905598951415,-17.835818120004866,-18.06751234535825,-21.308124560058452,-13.960332162135801,-9.602234844941014,-15.014884908640663,-12.628281550092307,-5.434520729245017,-8.034696004383862,-8.575838013315606,-1.401927373252886,-3.931653569722262,-12.495404866416237,-11.863588558221497,-13.011803180481639,-20.844098014128743,-18.34793572809901,-10.945666004981353,-15.128974415333273,-18.59806649199152,-13.304220246255033,-14.24263492578428,-17.31675227873047,-9.461301460219978,-4.532488531973586,-8.754986382332042,-4.552297027654083,3.8800623443018445,0.7723600077165202,-1.5969527638626975,4.144748967122869,1.8980664716631295,-4.454958451706066,-0.36423243058299004,1.6733412788156001,-4.554680593092247,-1.8825395830652192,4.721439323737279,-1.2949486456456372,-6.908494866353667,-3.1082858739700567,-5.3071395595748685,-10.246408471137759,-5.042561797189281,-3.6822247883381336,-12.173056799507847,-11.503050729688649,-4.187927970883261,-5.747716608937816,-4.847107094157332,4.577387413409873,5.029896814525419,-0.059957092970214454,4.23746316041207,5.694548400479071,-1.2934370770011245,1.470480727252237,10.139458306192157,8.309275472942218,6.712718095146304,11.513638796198745,6.711699715271339,-2.7284133070043657,-1.190068923169108,-1.1207598292550214,-9.475051585466735,-8.734281245542576,-1.555542696376262,-2.9894750608186413,