1.5229075232324385,7.987909491599334,19.25341699450569,30.89127976712021,39.818120514252186,42.510284617158504,37.0548274248901,29.90251150618368,26.651222071613343,24.88313189710758,23.7745537087088,24.616991189422084,24.33928310835307,22.38644139583381,22.646064116541087,23.56432056516247,22.00693068331916,21.3842201195312,23.122004763936268,23.277772133041932,22.067916884560063,21.551985969280373,18.82153193598959,14.092678402386554,12.933646294672881,14.319070102964595,13.504208250221021,12.167739723201667,10.811532841268468,6.111006528050068,1.2441807831294733,0.3556589309463221,-0.609279705198141,-3.4118148164686986,-3.5764442444910935,-2.0140824591462563,-2.336765328379795,-2.065949052788506,-0.3881833348684376,-1.0313456900981472,-2.5886191334312962,-2.2299425897362033,-3.582004888057701,-7.616102638594742,-8.831680406568712,-6.852317918857565,-5.73414356895515,-4.251745727794623,-1.3670667940679064,-0.3839701960113937,0.33048346200608725,4.440348230478835,7.683032705444651,6.421940686551665,4.466341972100231,2.7249871213537484,-0.9402661596855042,-3.0505813587725052,-1.7960081827418124,-1.8860069685216239,-3.671751637199836,-3.8996007323376203,-4.911781990739441,-8.172981369337226,-10.18972503365605,-12.163665627472021,-17.185034211964584,-20.70488993575838,-19.56647746704521,-17.97514199543443,-16.973820748527856,-15.731936911439067,-18.38219629676697,-24.68838251535547,-27.631176300275605,-26.372777934840286,-25.274383072994702,-23.45975651888626,-20.224312639727238,-19.364073718372424,-19.77644351466592,-18.129069424227424,-18.389588431950727,-23.262994804211765,-28.193221148462854,-31.95295758122756,-36.25962035126451,-37.5826029112676,-34.84702845869001,-32.650466661250874,-30.313885170288927,-25.17749413825549,-21.39841984050623,-21.277572645265625,-20.95003568249187,-20.124674795534116,-20.895859744149302,-20.317234321826774,-17.545296096838065,-17.277095561057067,-18.713491358644895,-17.782020777681204,-17.26879528534606,-18.879807978485697,-18.66868990521007,-17.415511570723933,-18.131496616801392,-17.833085749552193,-15.722194616858271,-16.13899409246668,-17.6727226841241,-16.29835992756309,-14.934828504572183,-15.56313835595857,-14.39331758545548,-11.93284046540115,-11.955732842726823,-12.43815546565757,-12.167559869857364,-15.19040454011981,-19.384272466939837,-17.891986470359328,-11.813551962156584,-5.425276103386809,0.35194605399780365,1.3902999459290921,-5.520618264513123,-13.311355188059029,-15.147667030286597,-13.493830152278822,-10.409256032265976,-6.155829563043028,-5.174998893559337,-7.743965134712466,-8.0666946616455,-6.853860521143988,-8.600109111811946,-10.930786986628918,-11.20109108270534,-11.55669970983962,-11.343290406499293,-9.583809852576424,-10.636419826466236,-15.134634459207518,-16.944687410704702,-13.868425519573666,-8.145100170611766,-0.03265313691509686,8.233247444985063,11.768462146608154,11.504290568094655,11.03296453429348,8.46160477393105,2.5171815064949037,-4.017222049683109,-11.344729642386472,-19.904601061283,-25.024162297119677,-24.879189045032003,-23.649186599996106,-22.14172188634916,-18.48309575628215,-15.891399985380893,-16.614189314920342,-17.23383494502017,-17.743206246229594,-20.406982683668275,-21.23298449761882,-18.419838406253803,-17.457507744134844,-18.532965903811334,-17.25303667348562,-15.453008874981183,-14.55440053199395,-11.105824106596058,-6.189816902369257,-2.581737192160636,2.9491773601670754,10.544017681323052,13.69926702825531,11.692703957641683,9.103959455463766,6.385879990468912,4.831480180610127,8.716893473156139,15.543849713337677,19.463307014260437,22.17024996732858,25.611603891826373,25.31578046370724,21.706101928941465,20.150025895493645,18.907862404429842,16.25269765525968,17.996681174700754,24.10559950027317,28.01886043592194,30.498164039721214,33.09659138432719,31.26078710098331,26.802500979315965,25.89326984578918,26.113361383620557,24.92598498888048,26.893717844416592,31.57273269367154,33.930369379948786,36.14656248615569,40.22793850339063,41.65566404354354,41.91466561657388,45.919153111128075,48.58066981205924,45.387513386478346,41.48248067264272,38.51327287589034,34.064951275083594,31.854680241073005,33.31423676484758,32.90343754025761,31.108970951894953,32.221629550600774,32.064809636459046,26.97295167335456,22.01982325171045,19.40021929349293,17.491578972673672,19.507456285118565,24.204392988041683,22.896177801426525,16.456998445280956,12.647551799547696,10.320151211201786,7.3348752716421926,7.372331450219262,8.343142984762064,6.197532395676722,6.241506272276595,11.456462468542963,15.567198951087278,17.35704807950516,20.231629873730892,20.118506676680887,14.316140946703985,9.247980423882595,7.064453305383541,4.451768361569189,4.55757015488081,9.065588102023407,11.085212329100044,9.992982612330515,11.571558379936125,13.342684288515656,12.283899809463804,13.091120104075106,15.76481553942487,15.903806721973245,16.57881689125746,19.87195667745598,19.507609538317514,15.203064490832134,13.62205342319594,14.018216016688642,13.468244638287075,13.972684990438166,12.57735762674535,4.880160146688042,-2.3425914798808236,-2.394325851354407,0.034959797269528026,1.7715957857039997,5.139600611556715,7.664238795528572,7.821032756779092,10.151754302578112,12.431216390355612,8.224037201211761,2.049790622958105,-0.5630091218248479,-3.4822284438790834,-6.081800167083908,-3.549827586538155,-0.2873617033364353,-0.2101865982420993,0.6776218033678816,0.46221797841784595,-5.254370495573164,-9.574550971060484,-8.088430203556253,-8.09142442533061,-10.760604404294089,-10.778172803837938,-10.94114026886141,-13.265933369231762,-12.462925161823613,-10.23126830041453,-12.224022075388461,-14.25893706916901,-12.623767131576972,-11.96345834732543,-12.07250423410756,-8.962368739141375,-6.953761889405133,-9.206996666910605,-10.063011303267388,-8.815006379819863,-10.020071404926913,-10.936653828372007,-9.716801229342224,-11.7257066124548,-14.95318127473778,-12.634372331755147,-8.813369918966533,-8.176686385535001,-6.020770383647877,-2.179636908399944,-1.5584282617107452,-1.0346379830717705,1.3217516706467656,-0.6730325239095715,-5.163048405525556,-4.555998937393232,-2.4393878406069534,-3.306429557490534,-2.601403865523503,-1.468565413617121,-5.190082213723671,-8.425507314735292,-7.031010621627004,-7.327533342307341,-9.301589423666673,-7.5882292026477,-7.6684141214621215,-14.385696140053453,-20.006085159198516,-19.74330438758448,-15.681079284617768,-5.4614420337491225,8.287840929140884,12.372375920995033,4.525908210859501,-4.11965564841916,-9.48033039558889,-11.737557068329389,-8.47658936570029,-5.741479315426136,-10.704230404538894,-16.503427491816417,-17.095600489937965,-17.989630409657867,-20.07751548885507,-19.134599567310367,-18.49314485329727,-19.076111677725116,-14.528295042106581,-7.831222422616074,-6.933181242343025,-8.246611338113574,-8.149787171864563,-11.49830435042111,-16.382208168689623,-17.651164979335903,-20.985307603656224,-28.522190269030524,-31.144208337990165,-27.4542826061467,-22.159175610302412,-12.46081497893558,-0.757398519065819,1.8250635649174485,-3.51972027226327,-6.405709273292317,-5.831331154996457,-2.472795053935854,6.388441972616588,12.332944315321436,4.8195102868279935,-8.65829371270408,-16.156231441291432,-16.508035549057155,-8.352329721529399,8.07469804491954,20.368125361636036,20.764152430140747,17.036968602506946,13.745357824245145,9.06177226830018,8.212985469996811,12.961965419846175,14.089200521331916,10.8665979585158,11.102317016295487,12.731244176320843,11.95949636094479,12.685929077945362,12.98989624372555,8.233921438348204,5.193416925907013,7.878053206233705,8.02286074607796,4.22902430027924,3.073776715369186,3.5341521592694685,4.5521790380441125,9.720877767992503,13.026696398329564,6.867882554612253,-0.6362534409514806,-1.5632068492173117,-0.7135480100524099,1.1688845319564047,6.253515254578033,6.69701567543199,0.551355737012083,-1.71331938016413,0.4836249945358835,0.14400616575434988,0.6270819306521644,3.0206557004118046,-0.8969722378290399,-8.609501189721476,-10.907673352795552,-10.168414582164326,-8.357008090142383,-0.2926822728545422,8.969430816163182,9.581480855471337,4.8925359800445705,0.24954071739634853,-6.3608690804864105,-10.423216041042274,-6.1564801653522885,-1.876675115180507,-3.495163111817615,-3.7411499284695022,-1.2635372234595517,0.0795581208191721,5.17310672560704,13.903018621493075,15.676518418691789,10.81539722981749,7.8115353201664455,4.627783661329164,0.1318059326359311,2.2002399566579594,8.558995620634741,10.078922756534405,9.86505310787513,10.896558485260783,6.702299878247158,0.22690130137366538,0.6382063266320936,3.619210914039918,3.6046678942505186,5.100583824440761,5.905002415303165,0.10476789841979395,-5.086499841462518,-3.48374549209707,-1.1182394525544783,0.5963343258964009,4.706623157160084,5.5320124346414765,0.8637000440544844,-1.0971272246206694,0.40151594412917724,-0.5783128563153311,-1.626960642870984,-0.6689683154656092,-2.7779502101207467,-6.289695033917504,-5.440317650938675,-4.390248154508645,-6.991973152931836,-8.012053598233225,-7.503933348073531,-10.771258015002603,-14.260960148338667,-14.651536414001727,-17.498253390064818,-21.93062156116914,-20.988678580295677,-17.47769015939741,-15.352369451057132,-10.757073866956768,-6.723590895266938,-10.818468375956073,-16.86989409166499,-16.191151366643037,-11.980531194869739,-5.582225946771603,3.873939450113779,7.094452270810171,-0.15278964021149566,-7.554853109521904,-11.322393195647859,-16.72703036979574,-21.391460910285087,-22.750685837986474,-25.0685033184475,-24.79082189097044,-16.134942851854564,-7.617127846194678,-6.526779846295506,-6.774216008369858,-6.349774781698641,-8.58250495044643,-8.129663335530768,-1.139336367807441,7.220021900060115,18.31419806734258,36.5709460943824,53.05725935685411,59.05717495136966,59.62866674953918,57.550821719909976,49.997362513201445,42.45658102554763,38.770692608841046,32.47457247746744,24.67849970532704,22.018589459644147,18.99512681777771,11.615786907050506,7.204178152864935,5.125149444868854,-1.024744762068658,-6.246069576627447,-7.077655863055247,-11.214153772494981,-19.105788139604524,-23.915401732978488,-27.458568959569213,-30.692993124965835,-27.193459983143832,-20.811912308420787,-22.075939482458,-27.877252528781927,-31.072626458691815,-33.923530244028704,-36.14251743463303,-35.23746946499466,-37.328362934400104,-43.531853670529294,-44.409292616923,-40.20930018956593,-39.003568778214635,-38.869940003363716,-36.94517707589601,-37.92387315203718,-40.06997770613115,-38.121769721547224,-37.4872859919761,-41.74662190450235,-43.544458345020175,-41.66227368967549,-40.97087708502231,-37.53309740025723,-29.34908377026773,-24.560565665132692,-24.23849191046874,-22.715100614392448,-22.747310656990905,-25.960141809755683,-25.44387833258731,-22.08467105386555,-22.97464125998917,-24.356700256202835,-22.055367001318466,-22.395211354655373,-25.224837815693384,-23.93942517397673,-22.626710362952846,-24.756699418417593,-23.30268442416416,-18.417926619754674,-16.224502701949515,-13.124382362151255,-7.5108572927189625,-7.089868080885545,-11.152807331223078,-12.45893211708373,-12.95044237339451,-14.13119226212374,-10.490558428790397,-4.697878935898707,-3.4242401722579983,-2.0198172404842896,3.13307924903379,5.95861139317647,6.840033839189904,10.805708063177512,12.995471264190424,10.470044571476251,10.426581980373337,13.089427358734252,12.510380294257388,12.181276111166953,14.949493286024895,14.348803518972598,10.464398135110544,8.966206698474306,5.972014359148314,-0.7356754445386908,-1.7791656471599226,5.456068143842396,13.632163213640643,22.17251284100421,30.57287375359085,31.254850410272518,27.264387341198066,29.168778895070293,33.858301427688914,34.804059651126664,35.7891275592944,36.55774682291314,32.32877362682284,28.767009786491748,30.604700319106772,31.19359030687209,29.378542507272783,29.708834530938113,27.477678495678607,20.26890339098288,16.154668457841545,16.0196856005368,14.033268386039536,12.689784103192322,14.26962696657327,14.478141122235435,15.78850638961673,23.194567893726454,30.092081369731076,31.014447556233073,32.02911583737757,34.311392309433586,32.423447259600024,29.321466017780395,28.246792483511424,25.00175792563893,22.57516140577612,27.267224213061535,32.1657395906749,30.618905352660082,28.782651323845716,29.13319104259469,27.76221181190271,27.879397372155502,30.790734881317675,29.460483400494507,25.77224960468956,27.398164391608347,29.71399033966798,27.635745598464545,26.819066252332505,28.06306741512747,26.968357139688237,27.46556888131596,31.417069816353553,31.153752460527734,27.157120155465226,27.104093988359907,27.780404579841274,24.959652600306715,24.257940255594242,25.13524031497014,21.379954669381007,17.041500019173444,15.668243803520049,11.387425263641,6.278986321842192,9.189582875761259,16.505147258986526,21.036657782929574,24.90033951052291,26.263945414433316,20.54319211184911,15.544596534908813,17.312728243067824,18.157844325269455,15.551400948918701,14.902988207629003,13.651697160166822,9.53889540480993,8.490461542904356,8.788278350301594,3.727339292015911,-1.5373910019475647,-1.8618246412464072,-2.564683575482339,-2.5438465057410005,4.130931065478903,11.332761528012815,13.170236842951814,14.101630637978705,13.094287678721805,6.548652224341511,2.432483988847322,5.194420837930643,6.695559510776574,5.561477214399277,6.931151971040192,7.021404894087646,4.057776226384837,5.206189285129779,9.3343476873403,9.529190987994584,8.53188510997412,8.216341057002216,3.277487894452104,-2.887921385969722,-2.624709628982102,-0.5713029312230838,-2.0498346741130096,-2.67607411875541,-2.4098023449362413,-4.834626777628001,-5.1837384953739765,-1.6369171340508804,-1.4879991922045621,-4.401386671809954,-4.04785733479244,-3.543435500314552,-6.124029540979242,-6.221598826866176,-3.4054662531865505,-2.8710180189363004,-2.6769664871112138,-1.9051244786377155,-7.152152864458365,-16.71440168782002,-21.245017301766005,-21.099777246903823,-19.167643389260007,-12.008944301858675,-4.28127790245305,-4.968991962109761,-9.382181886453463,-11.168769840653358,-13.646774872264835,-15.204228308579015,-12.027535732796906,-11.75016813552135,-18.320390518831527,-22.567009521828272,-21.560180055931102,-19.4878421119861,-13.619699773459121,-5.716585777476579,-6.865179529517993,-16.640680149063005,-24.73544463925012,-29.472334958286694,-30.299393967007163,-22.37904449395956,-12.18603343639547,-10.515248888380913,-13.604138770488314,-15.21650107998845,-17.66595272634904,-18.560444076172388,-13.914844843075045,-11.029187715349776,-13.915076508820132,-14.45167051974797,-10.93365610078869,-8.380153103319337,-3.139218190426914,6.987774461301001,14.445021259871911,18.928052347812105,26.12557504978487,31.075326330383913,30.273781504058014,32.03805403638591,37.59135133962038,40.64765747035501,43.98834232547746,48.27505902488551,45.05003294334089,36.419160006710186,32.43437475663206,32.22937401950557,32.62719409583495,35.87533249097585,36.14338720163771,25.413803073921677,10.048547698913072,-2.617358339969721,-15.572524874840639,-27.009438057920995,-31.258341141013176,-32.60109105515893,-35.22876819114752,-35.79898789113315,-36.94312780856595,-44.30013608864232,-52.05926776663104,-54.354485907807735,-55.89688804647852,-57.48903189085779,-55.41265608538794,-54.37436553141376,-57.66869284342702,-59.72218020184443,-61.067337058650594,-66.41347024547804,-70.36694719110032,-69.11355553247489,-69.2122835446634,-71.01405250580744,-68.70117433102035,-65.65487938062931,-65.58644671374572,-63.68762589190906,-61.60424426319281,-65.85544264623756,-70.9075288478052,-70.21884239526534,-68.73411460742524,-67.52652040768032,-61.970718297047824,-56.69507930497556,-56.35617770955775,-55.61001879881342,-53.58592309493615,-54.12407236730192,-52.39638858176916,-45.41295730509285,-40.214241734373275,-37.469678789176875,-31.826243863173115,-27.13861571058911,-26.478913318088527,-23.956017018865314,-20.149204017992425,-20.043847884549486,-19.100350333721344,-15.094726252165396,-15.510831141739448,-19.493814047770712,-18.433627658297723,-14.06031631273909,-10.785075109502232,-5.070078234360214,1.3131174551176108,1.9751633065559706,0.9570341998926911,2.801839055028744,2.7785809658112814,1.93978676056815,6.7878999563148765,13.270280898634221,15.424267992244065,16.598768257409862,17.62482903780786,15.95073209367261,16.677815758462938,21.963410659052656,23.4425827260929,19.64693892018593,17.872441075325035,17.97845760245288,18.141830614355698,22.888985775065475,30.245119103026163,33.60222088108831,36.00761589295679,40.66211006056655,42.291375950018875,40.87966143288522,41.34062918446835,40.4538929144974,36.01531055680364,34.218378452791534,35.071576929391085,33.686760051359464,33.77440456054197,36.9826383758884,36.20678638210999,31.977016508829806,30.62930011668074,30.427480289412188,30.764671775808498,36.736863274654795,44.21839969023883,44.46720241843285,40.68301960819847,38.305209680034466,34.893613125202215,32.58535032197422,36.01648167617248,38.234341658060934,31.640635728188222,18.54331719659389,-0.7500469001482628,-25.486681385838736,-42.36114439102559,-41.95875926132809,-33.245439335897025,-25.931404166686594,-22.62049705382311,-27.285400132156653,-34.99917712427533,-31.223611053893755,-16.752393460871154,-5.048641901539632,1.5010381983408583,4.657497879114339,1.5821100155238663,-0.9929296371964408,5.123998401465279,11.639048451169646,11.207821275222175,9.763126768414402,7.859968933294811,1.5558104700588125,-1.8006903054668675,3.0448779027468835,9.7269141198556,17.592880542855518,28.990142036466864,34.143650599475336,26.826274762157873,16.520353164360067,9.472193479219209,4.221742719392644,4.750557043097358,11.065528053425828,13.359788639049206,11.54055516383923,13.58474509846733,16.840177494618906,17.142992798035827,17.544233606630648,13.777124959719892,-3.2361443983200635,-31.92254027570982,-66.87482061183528,-103.52582988361345,-126.73172189872686,-121.82272984761049,-95.38130672284744,-63.02015699068351,-33.034977028514746,-12.028219859512287,-0.8183721962943784,11.837021850020482,29.701071419922712,41.85459215879702,45.90452084793863,50.24737404372414,55.49038183225568,59.89865534632571,67.00276300818136,73.3197993786285,73.43362718278033,74.3546783029349,81.30523707671031,87.62711203975964,92.17168793092081,100.59274359200971,109.41421275591495,113.35827318528757,115.58847285614527,115.9082145887565,111.69174273751216,110.08373075647424,114.76907945306543,116.43795671697683,111.41936504138737,104.92247719723179,95.98958032645677,83.80571571542674,75.3051405287755,71.22435928571745,66.41637291661033,64.05245246344666,66.16907763769683,65.13998931363909,60.13516845321655,57.83503109205075,56.187340248583396,51.65315926318799,48.58275878483113,46.16069942658102,39.06519435931095,32.68426451273341,32.6750215556035,32.47561973166319,30.057365208532055,31.26828488557399,32.189891548709454,27.995979514819044,25.029733512274372,24.297369379623014,20.493376088801707,18.19921931044437,20.68497780185875,19.57729677347293,13.551954606677842,10.234695733780072,8.811366537151189,7.182502773103967,9.622686682654841,12.497387792857346,8.76141485584606,4.049371112807087,3.311249696577186,-0.10996520701490997,-7.282643524565938,-12.402454172965719,-16.920361430565823,-20.37826407874422,-15.990190289448519,-8.935447067839485,-11.060797874719546,-19.766276370674788,-28.228638543510016,-37.59058509074794,-43.81185720055701,-41.066249467574806,-36.8202715131118,-37.41295645632396,-37.12581259934792,-35.96912775529588,-39.70022739207495,-43.451096863826336,-42.86286686079959,-44.65982676384361,-49.28628107680401,-50.452780448451534,-51.422150285065555,-54.019031690755355,-51.08252756515464,-45.688933680871116,-47.825141589012446,-54.21677349237213,-58.28364967908783,-61.98846688250956,-63.0901147981414,-57.767815738182136,-54.042967312499144,-56.88760984684965,-58.5041657754795,-57.571031618521246,-60.00216873831438,-62.12748956876695,-60.01152816704311,-59.251308986477326,-59.63714629854655,-56.34580089612633,-55.286068046794256,-60.21312460919604,-62.718772714908745,-61.25621782517037,-61.847208460502124,-61.76662077674071,-59.17795950757111,-60.512125852311314,-63.66037993980444,-60.747070845538076,-56.02018317309109,-55.318891640752305,-54.338745327266686,-53.40871945081208,-57.57166179850276,-61.023141845823176,-58.42846888035079,-56.63633266698855,-57.580378982397534,-55.970467377918276,-55.28341400253073,-58.31540058299915,-57.518528530612514,-52.753726093231066,-53.1506469330935,-58.946679562340954,-66.24223253459793,-75.97143174184865,-81.70178263559724,-74.24091389952922,-60.83487151308689,-52.790290007227284,-48.96821566990495,-48.446964858264,-52.94109061649092,-55.39160714867336,-51.395679353940125,-47.92355332684132,-46.622301381029175,-42.52810547652985,-39.152363775310405,-39.84115391572775,-38.02827544538267,-32.47538720255464,-29.273679744704033,-27.213223196774816,-24.36700007650586,-25.566298329168724,-28.176776924072374,-24.053742554018818,-16.851602490908007,-12.07479945269592,-5.495067566494146,1.6000832623519592,2.753294183588064,2.1188614195074287,3.9500399043973613,3.7288245399015643,3.4026409955288943,8.616067121665974,13.385983557366288,11.932624197169684,9.18822151520558,6.167495405011598,-0.7599354967007694,-6.6613963166577195,-7.455683115191732,-8.413244058668663,-8.81954815622518,-2.551552511708855,5.818963792616367,12.070632199147436,23.13588424942965,39.29793385882525,52.76809378215907,64.54046663550491,75.81500108263715,79.92839835742184,79.65214861371508,84.3960718225084,89.78287345401776,88.48270228973644,85.40868924899249,82.72566793620847,76.1382331225336,69.76013392149719,66.7797996112805,59.671821783272264,48.33741862788468,41.42882690395058,37.48564770311773,31.7780497154894,27.668982574282897,24.053996408412054,16.13972141607693,9.665268586660007,9.686101530577949,9.937988504755294,7.424701843983014,4.585217386226706,-1.8850481862006094,-12.008534944943543,-17.054173269865025,-16.442561361871878,-16.853576593789757,-15.89929293726172,-10.71543286523495,-7.182639618204517,-5.759910729205899,-2.0002669466093836,0.33895380078613957,-1.0031092890549105,-2.1673404420718394,-8.527452025299036,-27.31167052601198,-49.91423323720415,-64.85983585106487,-70.87797140299702,-67.35859535440915,-56.25889820754733,-48.7521738061738,-48.2214980454748,-44.09073119249656,-33.89382274340062,-24.80118145450227,-15.933656769118894,-6.290896927176423,-2.2290873275110945,-1.1036205580189256,4.939247473399458,11.256369631867356,13.424751562970284,18.962132827606467,29.5940234374406,38.67827705492819,46.73180830265869,53.55070818251732,51.68709309370771,44.002123657069525,41.17142013345557,41.83536935847602,40.98628079119991,41.76974744220749,43.19803329871182,41.68001590047835,43.413887554038325,51.090575505871456,56.399118323875335,57.98275813585249,60.715359943602024,61.13136744903785,56.65990170498145,55.84259878874667,67.83955441103004,94.72004057671901,132.86210046525474,168.24047801701053,178.69161426173244,158.44361802152724,127.09967133914833,104.13462396687088,94.74727869692799,95.38725289256853,94.07036243638666,81.66291397658652,67.22158876057703,61.72874325721225,60.69485403831065,59.05863237489302,57.86307857240902,53.30578092257843,44.82116727668041,40.81366902566951,41.6400742134781,40.74348395550283,40.30865256930002,41.74905873686254,38.38932308517137,31.61966616812756,29.072497984945763,28.291897590258905,25.209724280507327,22.89236682040724,19.244052924218042,10.000466449323724,1.912702509176535,-0.09418930006443721,-1.6680183757229232,-2.8754071114988173,-0.5668475984925644,-2.109070266755361,-11.20206872623395,-18.70869435046302,-20.885350097870496,-21.611342015196772,-18.908183974993058,-13.777914416929676,-15.676611550607651,-23.127831374757427,-25.61853432998119,-24.73972081567491,-25.852177886136268,-25.872318181713254,-26.543900066890803,-32.46027448082337,-36.67454619280762,-34.93503987527678,-35.31398030755711,-38.9669227448569,-40.08845802570724,-42.13151567530974,-47.57783599228653,-49.6207196379023,-48.608567445616245,-50.405974659907194,-50.62023173712612,-46.358135756205016,-45.39382856839509,-48.22880300027469,-48.46617806961902,-49.2893286971032,-53.62028222081101,-55.21674896043557,-54.282836857820726,-56.60940354277903,-58.48631286689309,-56.58141301051124,-56.60218616980019,-57.69594295340859,-53.42062670187135,-47.85944490579393,-45.74785792929704,-42.37147224405456,-38.718849357650896,-40.33827758450185,-41.96478925427452,-39.692229903562136,-40.6869253396396,-44.96530341103739,-45.54782287538149,-45.81696036654846,-49.12994336339812,-49.15323473143562,-46.52418597738221,-46.93788277693439,-45.11411723646208,-37.50604051076,-32.08406730447813,-30.903382198122493,-29.5174435422371,-30.7051157916643,-34.78903458198671,-34.158899175798794,-29.91868536274589,-29.400343286642862,-30.464766291288804,-30.557287218337883,-33.884749343062445,-37.19891648614418,-32.982851068327676,-24.880630979538722,-18.420312234118356,-11.846130965986369,-7.457498472824514,-9.155235342220015,-10.030500781013838,-4.608999652261576,0.3972671291407016,2.122540762803366,4.5815563061373945,4.519601283362057,0.02421170414300078,-1.627094548973381,-0.6761709202024329,-3.4978144570390244,-6.6822694165708985,-7.646083704541138,-12.471192307035503,-19.48579473430262,-20.938712665982816,-19.305046047221666,-19.0030878431106,-17.101184656393144,-15.581206200167166,-19.71580849302146,-24.136941337688484,-23.428129447340485,-22.655426584019033,-23.090601491667865,-20.899476861621846,-20.45186153124415,-24.89624477424664,-27.04688920615548,-24.916985143063012,-23.326083669075047,-20.09008180310413,-14.465337327774062,-13.175162516800274,-13.861815604562917,-8.718413673506838,-2.357830770780739,-0.8773749757838389,-0.5098319037970732,-1.0445302724224486,-4.989559831294972,-5.294477350407653,0.9959894301624885,3.8016013690953714,0.46657185860239236,-1.4531615958204167,-2.0466112933026235,-3.128888335338877,0.6234507930094189,7.084513993636422,7.922995427369726,6.832323866727396,9.536223520289624,11.013098426533084,10.945529527958769,14.64185158948109,17.966558073939293,17.74250002770865,20.668508967761205,26.273831712368295,27.136674362329728,26.016078688006232,26.88763670676023,25.476853847914267,24.149782962892132,29.193473824422146,34.34865330971989,33.51314823420914,33.04447041793274,35.61540879627414,38.03438703561859,43.82631223482595,52.390440754441265,53.590308424080625,46.761880574161346,39.514810051870334,32.09518618070077,25.52720350614391,26.712243670661657,33.10681725377512,36.0791362682108,36.94475798853133,38.16978630741872,35.69158866601604,32.57350057384835,35.331328670347034,38.699302911361855,37.79386823085505,38.23741904057608,40.113248006410764,38.13135743364499,36.20423930888012,36.75335940403897,33.10136461541367,26.572746316616875,24.879745850408575,25.722630991780257,25.940386061615822,29.6728001216149,33.977355952784656,31.6714415784639,27.43711178663515,27.29912167058078,27.584165729632872,27.95755996782798,31.035966119375104,30.72955119807648,24.285295922866005,20.005925836911214,20.242060010316596,19.872198009420266,19.771659689915737,20.282347357044042,16.380343088387434,11.066809817764685,11.054958534842651,12.273251429862258,10.651410753163582,10.659032288228882,11.54722448992916,8.493008913486781,5.554657759705046,5.43699900966917,2.331175105313674,-2.0698956205831944,-0.6016947814397373,3.2695476557358756,5.461266749979888,10.114315113429797,14.557125432305718,11.766098534944671,6.919158787040827,6.380850448271766,5.953465674142372,4.752848217831076,6.079056033783363,4.506110842022427,-3.563989337805231,-10.076169219953883,-11.835853811505782,-13.508534178314209,-12.490891516783378,-6.8734479541467355,-4.760409865626713,-7.681802202913575,-8.497586574730455,-7.631134704948334,-7.179261108433932,-2.6633794278339895,3.4132182367413986,2.943896528134116,-0.9187710786754355,-2.522824026198138,-5.471933172681533,-9.525299098774184,-10.22232426309435,-12.181121584328476,-18.214433282453058,-20.620614288533865,-18.317319512833897,-17.841342183170763,-17.97711428342067,-17.932601061245435,-23.526552626644808,-30.52455569746672,-28.648369195298045,-21.08626591184069,-15.135271132963664,-9.918106593829647,-7.6001220968651175,-11.512929877163815,-14.137522061960272,-11.003429936374403,-10.02807859546533,-12.71642015168613,-12.15736590002441,-9.756822958647094,-8.703984814047597,-5.908845811024436,-4.797311452652316,-10.924942773282176,-16.85278556423067,-15.782140873678806,-12.779270801102484,-9.256656092235993,-3.1246618796633507,-1.7717556962121632,-9.147730893557831,-16.986215765012822,-22.198558431676883,-27.52701290226338,-28.46904799086866,-24.1411217612632,-23.749326399601543,-27.733130406101743,-28.63065601491643,-29.060838468459025,-32.06296439963763,-31.576443511504984,-28.460232672459938,-29.0796266858039,-29.790704171377715,-27.77252997656654,-28.804329054508482,-30.15245206373935,-23.52529159546004,-12.66022387691195,-3.0012083493923427,7.982985031832994,17.8748045140108,22.188582491710527,27.271642760489915,37.05828980033296,43.48952938184503,44.17325697461748,44.754849724281506,44.30778882632147,42.46207707006536,45.50733359288249,50.34961521584549,47.4132774027888,39.83591011990043,34.05002866581315,27.171002764532176,20.118162069257266,17.67371115959736,14.998811717254178,8.157442107987157,3.249103914266846,0.38230264482897985,-7.247057648943493,-16.762957655468668,-22.823114996371473,-29.216744478091616,-36.63426906414797,-40.59778649168841,-44.59262955602217,-50.850596258010576,-51.43855367574492,-46.343222940857146,-44.538284725797126,-45.592665180409355,-46.20379155961974,-49.331912652248505,-52.302082259622956,-49.94580364742421,-48.5383701597342,-53.18571723742635,-56.97838179413927,-57.53173318783999,-58.95023687601605,-57.99451837184762,-53.316845350159426,-51.95714037547357,-53.09540791992296,-50.191266813442745,-46.782660238486756,-46.460090274513135,-43.338983784841226,-37.243074027754574,-34.06705552563339,-31.174764852077736,-26.59293825013484,-26.682324551531064,-29.8656107958805,-28.239824259677995,-25.174864701677237,-25.845601667650556,-25.484751276893178,-23.99904241818382,-26.78025898426393,-29.244546135445937,-26.918604468380465,-25.809017288186283,-26.295307467532748,-22.19959411707278,-16.24290814539124,-11.915751821249247,-4.6330797060030955,4.405721974336114,8.168133007039817,8.711179360211434,9.980270231096934,8.188387021097597,4.191037910147055,3.7919608622835543,4.578403647718574,4.264462573186753,7.956123812863703,13.886659702218719,15.008798125629303,14.38614076454327,16.40047795087118,16.712293612925077,15.417014879980279,17.452295917852936,19.033262248209237,17.47200469370494,20.30460542506408,28.007186134030476,32.348933354485794,34.24747056228538,37.13510591487021,36.581776828173844,34.09211538249656,36.34825597890455,38.79967728226435,36.263575729707924,35.25913346205418,37.929220026961495,38.97152809086086,40.712620121113666,45.08230230302455,45.06969175171161,40.994433362893155,40.37552840962786,40.888518161392724,39.2149961056717,41.09825492010706,45.6650032435244,45.68779043662179,44.94918167781625,48.77923656089348,51.72403217367636,52.323691747240744,54.60809629384632,53.224816946488545,44.80575847374878,38.57964452288871,37.46847278972987,35.33955155515136,34.259515474051206,36.808664578692046,36.35364062139382,33.00349892078319,33.66291043659233,34.807378714159036,31.83903466910631,30.315874415083428,30.80594180502676,28.154742992743884,26.92168374445356,31.016075215977835,32.89390163633583,30.643998050621832,30.139089153399013,28.588246090340487,23.020834886819948,20.4435452850653,21.637859785374467,20.21234240490343,19.43219503319565,22.939498392010186,23.888980826608158,21.312996048406518,21.22434713745512,20.11258192269501,14.611908008284749,12.155012143569392,14.064707458343953,13.848016521996083,13.501730416391272,15.354949172636864,13.305810073641998,8.676593865714477,8.887042166758642,9.764117015662668,5.760954799739844,2.098201831446848,-0.3385566580415744,-5.922814268075712,-9.264910482687874,-6.321334514172577,-4.435131668917631,-4.8115697107682145,-2.4138250661895007,-1.7915944937801709,-6.194823213146878,-8.872613158414952,-9.721862278472374,-14.233791148167459,-17.60121839821913,-15.358905821984944,-13.722511043645014,-13.787487355677392,-11.064476818727737,-9.98238318197968,-13.257269607588986,-13.49630619795543,-10.477272762929372,-11.190434301035403,-12.695646244814808,-10.374620059947002,-9.231581901211442,-9.895940549097809,-7.493632617356578,-6.703936269373058,-11.505726538731716,-14.365510455394505,-13.653903213955843,-15.994551344197907,-18.997622275332716,-18.355561287923386,-17.561947193079867,-14.11321860131347,-2.0608939462533353,11.331637624635613,17.571555463472876,20.767391949872604,23.514279064448722,23.47738165637571,25.40180766232408,31.19408540769532,31.951548200182838,26.626517989464794,23.47413711797029,21.213265894994134,16.510368543938824,14.46446092267514,12.858250927197092,4.017335888438467,-7.271922427709613,-15.042866279516613,-23.2589362207623,-30.445808868229932,-30.80704459401742,-29.949510461687108,-33.610201858878526,-36.23905173725773,-36.3422999673734,-38.607725941674154,-40.04429015120923,-38.389996921193614,-40.62822915469466,-46.644665456813335,-47.63667246968083,-44.33529509091947,-41.56208380750236,-36.4542726198938,-30.570102815558258,-30.270547856045653,-31.191903457334973,-28.059926839741003,-26.694843946890813,-28.498377594556835,-27.58061230728623,-26.095380164072857,-27.108771788601008,-25.121527447954506,-20.74736201298076,-20.932161276482326,-22.297603638934408,-20.628093922882623,-21.291155463329748,-23.190318719716654,-20.07657544970713,-16.73763950408299,-17.049617633597304,-14.170952663287878,-8.14916733568047,-6.219369328314827,-5.897595282060901,-4.280479890976002,-7.631609621285146,-14.125780880486335,-14.819288902717044,-13.035367285834212,-13.895461340903115,-11.423909336208164,-5.386353541621615,-3.2818802339262607,-3.182889749427644,-2.0759779363527855,-5.4041378966182805,-10.64989822566848,-8.976068120485937,-4.553253849547982,-4.835633415979828,-6.716479285791076,-9.194472140856286,-14.9582158866871,-17.981797490891392,-14.388755466874862,-12.087744740062165,-13.233112934049188,-11.195228417837525,-7.765854526971698,-7.371860525757294,-6.35025743232247,-5.301859841543163,-8.869561178701735,-11.208203209003644,-7.004228791092473,-3.391774135532235,-3.5213324475900647,-3.0053061908864844,-5.091632781869578,-12.004824900263749,-15.071070789651458,-12.03889343302423,-8.857346948466985,-3.1303992816263095,6.182920154127472,9.589330602555965,6.207196815125073,4.1611836105296796,2.2378114183858355,-1.729136655417147,-1.9852711832252932,0.3877379154703118,-0.6582069991283205,-0.6497131776088187,4.553525259026255,7.897802195033705,7.318692702257163,8.265681698562169,8.667094644413826,6.714509370787535,9.145873451470736,14.527263155393943,13.571846888384838,9.52913210851574,10.497867047320216,13.552923014048613,16.704021675038312,21.824649137452226,21.99398502510396,14.089660064981736,8.844409258566689,10.005239367641249,10.494023595241885,10.256124331500317,11.21722258934673,9.393351107508288,7.7023077829307445,12.23477527903662,16.512929579984796,14.475152044720275,12.533118528687051,12.595865324920117,10.148733758470508,9.604733693956817,13.558087124307091,13.737924782656744,10.21234795899723,11.018617225070786,12.805917269544238,10.647216489637442,9.779721737638722,9.633641480344666,4.469423729479091,0.4997606468795557,3.4077258559044945,5.488262513008521,3.7734234037492156,3.7583440256038174,3.2517946218510447,0.1548629541345563,1.4650345976987362,6.042041887351839,4.78788855051868,0.47725118388536747,-0.5969945610047929,-1.6655190116312109,-1.8964478117013246,3.7577905595854,9.302572542261057,8.63220537146199,7.17132855180908,6.898749466204506,4.792913519621939,5.755332525943416,11.652103258754337,13.352414712100021,8.962667440436103,5.3806030791658905,2.355622056396192,-1.0077440502415769,0.8377759959839882,5.444201342584986,5.034946968671214,3.9488879433440394,7.4525299328774475,8.311513469547284,3.7199232202547243,0.4847924550872781,-1.0037952680839866,-1.7999216707619707,3.702928603435073,12.109296242754262,12.587935858485231,8.16184098096313,7.0434581303970605,6.694124573919683,6.362405470305866,9.428182860746116,10.435402432150342,5.869001645675738,3.2050296248290513,3.3602973191684167,0.15725942226642364,-2.2521983708585833,1.0618291841322935,3.858217577439518,4.3106862288799075,7.214715046441282,8.61844541810642,5.330265988810231,5.839482126703976,12.680124424487454,19.793404265320888,30.675492374356978,49.50872293513662,68.55991144273679,85.05715877382698,103.04644179759383,115.89608054436457,117.54308173386492,115.77359952872048,114.03335297687198,107.73854331976762,101.11360335062206,97.39717362466567,88.75883564511763,75.94561748158867,67.5286353608473,59.67365290384642,47.23375676608876,35.76111505104609,25.82037832269051,13.024091997622094,1.8889898955944722,-5.759570671994323,-18.209823804283943,-34.4016473521861,-45.33761217025027,-53.69914667873877,-63.73464199060243,-70.05850009946549,-73.8912959050408,-81.80510750570593,-88.79316567388237,-90.66447046447789,-94.57415067751361,-100.21653543313326,-99.93475020815711,-97.02357399817241,-95.80921654500233,-90.95081240613759,-83.92830457628929,-82.84298946262751,-84.59342126053183,-84.15248993816459,-85.86676218530307,-88.70972073631097,-86.70924388947272,-84.74397740158577,-87.02205640539984,-85.92864760827803,-80.10600258860842,-76.79110207149677,-74.64985656570737,-70.94051717635558,-70.10031137081614,-69.25669845328736,-61.41755818234106,-52.56195662507351,-49.82192438689674,-48.96545948286477,-48.44770717168232,-50.505663600294,-49.03298509950245,-40.905971012977936,-34.861786006434826,-34.276996073307586,-34.18067845807376,-35.87261683375603,-39.15255910514578,-34.70692110436109,-23.310806443187584,-16.46088708122699,-15.065492503137627,-15.628336573241533,-20.953465519803444,-25.882944513093207,-20.904627592355787,-11.315170551005934,-5.135509797878196,1.0944777098349676,7.3229487541362825,8.223862046488348,8.897464161178515,14.323303815167524,17.082462186657317,15.837169791010151,17.841248843393192,19.913226175102338,18.02588319829854,19.088005540126282,23.56542728031406,24.104192579587938,23.40426841015999,25.98184541536985,26.404459718671294,24.966115487142023,28.91196928019334,33.70626893974775,32.62074536329473,31.746265955059485,34.148200037912034,35.26119265439256,38.057568468307,44.107007618818244,44.9409837226725,41.30288094596243,42.94577331131102,47.67023645302595,49.41516699359486,51.639165707155655,53.57338530965251,49.86190971956212,46.15319637589617,47.19413016853089,45.51545661487969,39.679659662054554,35.89620863741306,31.438102329334896,24.67605681192029,24.29638402301019,30.491020812760965,34.231484790000906,35.95630922784029,37.89397633296533,35.16579643211568,31.112792369821186,33.62010576493183,37.44695726699641,37.14593993032435,38.96583629372779,43.222226610509125,43.12642784933727,41.9151861521192,43.316996120903816,40.92688165032379,34.74472092652506,31.842071753360464,29.38779989992846,23.849078421155667,21.80442439309677,23.66698566454183,22.520976061207115,21.59604531745003,25.478913742928565,28.048006108079882,27.845974408740467,29.824222373119067,30.16370832860096,26.37780896531617,25.46766119073801,26.177854591955537,21.50339169059813,16.83146608698398,18.14011535630942,19.935949445720887,20.464605814542438,22.158564822528987,18.83381930704451,8.981410447978657,4.483355365339427,8.570956760959902,11.807105955296798,12.541030371809024,12.074443809086679,4.5182502157743425,-6.311238346285301,-8.631689715953863,-5.369958195696663,-4.0686924329219085,-0.9317032437169632,3.719114903054404,2.541879260410531,-1.23634938298793,-1.715983168572028,-3.1607179446901044,-5.4430505427943645,-2.536636749451521,0.2738264596282689,-3.502841699424092,-7.533449398186881,-9.121490705015159,-13.398449377982942,-16.743084395335597,-15.237785504848922,-15.727451540245347,-17.8828946307312,-13.049864951935747,-4.554104123262268,1.5964101001631787,10.815229241724186,22.702014359244107,27.9040632523333,27.9822046099784,28.52763289380217,24.770934867982817,16.53540703379597,12.427869351624079,10.776685724689985,5.511936634093735,1.3630690200765856,-0.06951858108380368,-5.1634833176901225,-11.183255816044475,-12.662132657817825,-14.74611517678439,-19.0488641891679,-19.536203760529915,-18.81022880165837,-21.193862114129516,-20.992753545363207,-18.35004952051927,-21.194244350352676,-26.189907986718296,-27.075718533276977,-28.519985886436313,-31.247210568469193,-29.927087522363202,-28.99875408284707,-32.14392766542562,-31.18494007840488,-24.792673140299627,-21.627298954084083,-21.482100279874036,-20.726214961257238,-23.27614975145544,-27.189509783713476,-24.98030069349456,-20.935880161864596,-21.212689013823447,-20.660129258305215,-18.868232680224413,-22.3941591265775,-26.640470483692784,-25.198475855076865,-24.067575063211763,-26.133152801711443,-27.34641705101979,-31.334326084580624,-39.19258795038821,-39.614791888531784,-30.06159307631161,-21.221806673442146,-15.74653001057671,-11.53654750916566,-12.731453533558238,-16.600472181787804,-14.475671223217994,-9.845900297344844,-9.512136159108783,-10.045067533854551,-10.526744710465776,-14.768345074976525,-17.5429671196548,-14.046260630850757,-11.376587272110225,-12.608460989702019,-12.484111201778653,-12.507826511826519,-14.558492748480532,-12.50053050521144,-7.912324860280705,-9.19805292733001,-12.445831676257662,-10.813913506272414,-8.703462273858742,-7.391789403909054,-3.052780384076714,-1.6067411081115037,-7.564136018718781,-12.269461601816712,-11.750049960822258,-11.465985456856295,-10.033233555614439,-5.357378123149915,-4.705385632835486,-9.021279686761774,-10.630793556854405,-10.653651710367516,-12.680990460744031,-11.71720260603491,-8.05546853313457,-8.86674417698637,-11.950609346723022,-12.586978008492615,-14.29021558235401,-15.976023819557216,-11.756937897123823,-6.364617733333267,-6.163658258405665,-6.571447440408573,-5.629530910043973,-7.687776454863759,-9.493605643327918,-8.102558452508298,-10.346640283922488,-15.417239541845841,-13.693447169047317,-7.2429489427599965,-3.0611751863469565,1.2832424345374258,5.115431489584821,3.1679127506014475,1.5355749072360037,6.1606344607251105,8.836592483610238,6.324904306282004,5.672003220728299,5.263314020890268,1.1957401575883382,0.05069999065523227,3.85957542858772,6.25613489979404,8.656971187828987,13.574528215468526,13.841700049472871,8.911581404141078,7.634423176989078,8.744397902035596,6.857314278863045,6.417737126798756,7.867974398738015,5.253896914241752,3.3800538152128494,7.662886549103542,10.623716743331329,10.053393667220723,12.190416302961093,12.749632131772612,6.422810141103057,1.2380295514251007,1.30024677821714,1.0485950981964374,2.331771571293935,8.099714527757838,10.685272410246,8.524124556004628,9.602040209944679,12.051551778726022,10.337263681570764,9.18967983112401,10.104289173093683,8.016805460601926,7.166338465083481,13.198463264771531,20.695233973253167,27.913706153881513,39.95528191220569,52.659832650936174,60.51070003916582,69.1691992312995,80.5307266223132,88.32203311105702,93.49273726824546,98.36353048104861,97.36693029116003,92.09340237644562,91.56987840057016,93.99244282370785,93.4012894117898,91.4542251125786,86.68965138281825,75.03279817897112,62.42219179169905,54.32832521005969,45.76699635847823,35.703496480254906,28.52525288988773,20.584288587026258,8.889809048736641,0.07890242310087836,-5.125897855480297,-13.529215163024995,-23.104554672407264,-30.266364809509756,-40.107205986594835,-51.17810618384176,-55.408278292474556,-56.46850520747824,-60.81923142662224,-64.35062134629374,-66.48527046409271,-72.03641817341168,-76.32193394741967,-74.56402800635622,-72.94034047596094,-73.57784868089354,-71.35108743822511,-68.8524691592684,-70.00874640217668,-69.21806225646391,-65.35441671500472,-64.50142320156758,-63.93401196643122,-59.79940205110652,-58.58869277773004,-61.576732567370286,-62.40771256051587,-63.46237789978472,-67.81358668772805,-68.70047022627973,-64.85662557982374,-62.28863373997483,-58.90227481453228,-52.443386384153165,-50.045141122532286,-52.68447856716432,-53.17063562606238,-52.427009772834694,-53.21395633856069,-49.60607170204851,-41.14214858570572,-34.70384866442878,-28.239341953296893,-18.990723972486272,-14.195104490994208,-14.591214687511615,-12.609575073912417,-9.47935483366222,-8.341658533399718,-4.626940972266608,0.009907748613532386,-1.473787232068784,-4.4613525859937,-2.2390838085764355,0.449780651587291,1.478980752826999,5.152465609708031,8.390204533363963,7.725041271820295,8.964454735094925,13.358439019771227,15.018838051578872,16.432213003560463,22.332317973891406,26.85806583872507,26.22951871651111,25.027216386663213,23.136367982498616,19.671466962758814,21.143423997014484,27.282946070479944,29.239089425195218,27.42426761291422,26.91899059417789,25.004479847373716,22.07450421674282,23.862844460698213,26.733699255017477,25.149845482152635,23.538460749000446,22.518855607253812,17.19525644958648,13.233821117685789,17.004897683773642,21.903129414143436,23.974291993357053,27.20717306767044,29.489568468911134,29.178045039046406,32.56769446838338,37.78813799090241,35.713656357670224,29.30982925605199,26.26595639461614,24.864399783784755,25.236105720166236,31.615326862922274,38.8800915835626,41.29203572153021,43.27401279779167,45.25401365242773,42.202262778600044,39.18031239889434,42.63942973424742,47.08473516851948,48.50136143345192,49.99780524389604,49.06309619934629,43.379695622631445,39.88670390870812,39.93972294432835,36.946139249047846,33.461020451280625,34.821481978557756,36.47855345700103,36.64296753584516,39.251057383582896,40.135025448883745,35.336537903184635,31.747255263657667,31.659841556841226,29.289104446608164,26.8699078997316,28.398407200310384,28.127420845831452,25.12742011337674,26.06936315451339,27.693404622944435,24.59906181002382,22.58303389697804,23.26567452658511,20.73149984014477,17.965556198047018,19.23084954151432,18.66786479446371,15.22960489206583,15.573569236903475,17.347663010459353,15.618243981604595,15.088468731067533,16.224648098180225,13.14328567471783,9.650241009798126,10.099948451766403,8.503579496501462,4.4683525940425755,4.320810791958459,5.063790067434959,2.1041247970612966,-0.5337922409831157,-3.1912287578809084,-10.920584659359895,-18.301270745790998,-19.00670907090924,-18.774462510674724,-20.226665272850337,-18.81320418563553,-18.17078801939511,-22.16051934727253,-23.92316060720875,-21.785318882884496,-22.392681943202124,-24.189985334589664,-23.635715831675178,-25.662075728814333,-29.36284384496665,-27.543956662540246,-24.18454642783517,-25.706562247692034,-27.56652768496729,-27.6135615634828,-30.03623781738824,-32.260255768594384,-31.838378946447612,-34.812530462821734,-39.783252890721016,-37.55503973517873,-30.64901431598452,-26.654642446314348,-24.522629394234684,-24.997633360283693,-31.247423559172752,-36.058108285004224,-33.14872989022714,-29.54275013083566,-29.232857204514772,-28.14151137834929,-29.42092672366108,-35.92265227314598,-39.196724400019946,-36.9866170466959,-37.27388951643262,-39.3925204932027,-38.48790877657323,-37.06932261014238,-33.1572334107912,-20.299392966886575,-4.565502452376711,4.106412631948963,8.427928234159111,11.556008821349707,9.648122123848655,4.894807430249191,0.5951178369351882,-8.052986389698695,-19.57451224144893,-25.225275239814177,-26.291501320953124,-27.818301306668467,-27.53618110670106,-26.758159623855775,-30.116090594340015,-32.545457969676804,-28.997900380275297,-25.141021824940186,-23.07766732611211,-18.512519273991444,-14.861795677742812,-15.57178408076837,-14.157008806956918,-9.81912331226497,-9.81911856560661,-11.186787095452653,-7.77003826978581,-5.5673251238959125,-8.011018649548596,-9.093343261147742,-10.046370079322093,-13.907717490304043,-12.863209999062635,-4.904107759184827,0.3609053087298508,1.2828162270968844,1.531443872055585,-1.7453993532525294,-5.3517290809935725,0.19845425948101658,11.277582358022444,18.30994955850731,21.99669010804066,22.69058939393993,17.031239337438688,11.332388050878867,11.509901564901282,10.854008409271113,7.166562224486226,7.013499536852599,8.063194793453583,5.2393317896319065,3.4992252532388997,4.181393608773842,1.5760621383535804,-1.3169868766785946,0.2082526328190415,0.9050767427527243,0.02231491859618384,4.057437466826858,9.455677619456962,9.247864406602746,7.1983697716973065,5.905379560195119,2.7033846538726802,2.333553078376341,8.42089560583636,12.44881487237267,10.17963140793428,7.417767286856195,3.908585077965328,-1.84185507994644,-2.794132042909234,0.9115510399752753,0.8568529111065029,-0.39803393488909133,2.8559304423009992,5.47478880526682,5.817990120743181,8.845701863260176,10.717793848782183,8.132285542874541,8.989270715531799,14.447893649553876,16.29944432020213,15.540153323977187,16.689081808699385,16.198957701244247,14.308746835245366,16.544310476030432,19.353712472590196,17.37821238541343,15.270945468855603,14.56629916183662,10.209749745192253,5.8224099286681215,6.630976389398761,7.337970503598501,5.668050558627193,6.01033567472459,5.736774878431726,2.084533538668384,1.2294886833084557,3.9266472629392313,4.122984416726536,4.503614563397541,9.074152444668446,12.113445917009606,11.796231682122212,13.27004301114638,14.260704742459737,11.328484195767047,10.154171575207531,11.658799015815086,9.191335925459548,5.195900800652968,4.8328815236302,3.228687030812332,-0.3302067699989262,0.8224616379874881,3.822221921733281,3.6694814494544743,5.540116064212228,9.714055544637896,9.25501814152284,7.505805699862426,9.865953644037402,10.943931808804452,10.075543767495057,13.474214755725741,16.745487465846626,14.2349151015875,12.466398762019386,13.930998476193256,12.371709518764884,9.246653330760148,7.734866266211647,2.368371587332856,-4.856538530898193,-3.304544459817433,5.064768751162709,11.263049809855156,14.781648034847285,14.103079888156964,5.828205022586287,-1.8394524806244734,-1.1479458959388933,1.2075136160069095,1.1471268820122378,3.4568589476079308,5.580216193328932,3.2503424397865284,1.6444859603990318,1.2535256685102418,-3.4417218350890195,-7.293108882920937,-4.379789590534543,-1.6375720975399344,-2.6365437825505675,-2.0640557443343286,-1.3742164768385428,-3.8059341241044735,-3.74550595631747,-0.3654349904718759,-0.9063015584397052,-3.2689607346763987,-1.3961618442607047,0.5454019204884252,1.1794879972353225,6.212367688491268,11.748015757296205,11.013743324438583,8.49998019273836,6.820240070727666,1.9400532789791651,-2.3927660839363947,-1.9355621120578879,-3.2585290641459324,-8.335523100244577,-10.898323205216577,-12.863702349421846,-17.926055542914405,-19.73111038830438,-16.04397377807564,-13.110152830456952,-10.168160224379063,-4.7256674605031455,-3.4572133960775497,-6.971841605301671,-5.841768451144961,-0.6934217157548319,1.168516131854167,1.6094967052014693,1.003061496246267,-6.1380567361020875,-14.614443580517754,-15.780412143048078,-14.037197530373216,-13.132307228164462,-9.3444066060276,-6.818937448153253,-10.490149444351225,-13.225002064481771,-11.134267668743155,-9.381962814744623,-7.099166860718661,-1.9578717485436272,-0.39970643431511266,-3.459535044474155,-3.5685366920926165,-2.2391979239020454,-4.589528516208171,-5.89475334900738,-4.66334348849832,-6.647679437162894,-8.828440247356752,-6.5983042028118355,-6.347123329941369,-9.576981754210435,-9.113509262032021,-7.354967743286629,-10.054460141251981,-12.844658766552937,-14.563768907227857,-20.209413243197016,-24.19801336937327,-19.6221459649716,-14.02059276114089,-12.878586410542153,-11.947359440185634,-12.903714781032658,-17.645926777824606,-18.52711328073448,-13.990329941885832,-11.188359013887467,-9.495093302655983,-5.565506128887023,-4.523931158610505,-7.131908025156641,-5.439177195815825,0.5723211309926528,6.19254055831075,14.619793472283112,25.919521339765396,33.99373227457874,41.62923912021304,53.07133092410388,61.565151624600716,64.48787380834214,68.5371758723639,72.05806733725841,69.28137150464072,65.07206967246225,62.474182785434415,56.381589165605995,49.36932861520016,45.84035020374186,38.587997666502424,25.51067969251993,15.862997778484829,9.14750552597535,-1.4891876720681325,-12.148067755930011,-19.98884781537167,-29.900385567014784,-38.6841662706819,-41.145170809169734,-43.64445399783709,-48.43898034245544,-48.978444732418595,-48.36444820081699,-52.71071235230882,-56.427641207258176,-56.33293071673572,-57.31887599088038,-57.119743028030655,-52.37891469292883,-49.779637103192975,-50.82942055066145,-48.70371392365262,-45.993763436815335,-48.615454118116546,-51.691170103852286,-51.77926895919963,-52.75641455865086,-52.223040315846454,-46.75524112718224,-43.318998519624685,-44.460000133436615,-42.86479536142565,-39.566466522903156,-39.64471094674562,-37.830341854157155,-32.2281361577763,-29.715052609560793,-28.68845105924465,-24.65981054811792,-23.023807134222004,-24.051815168504387,-19.316658658740497,-11.001624549600601,-7.088911873233762,-5.234943304324634,-3.0584684080012527,-4.2364066561310665,-5.085355787732463,-0.6674117286150303,2.710567091963341,2.4408443727797318,5.23933811669175,9.706394131558502,10.40069879440923,10.886290972314107,12.553932354973389,11.090223139385511,10.237017727368713,14.684064109127789,18.110712569012534,17.954359804506066,20.647327102012927,24.520572027671513,24.387418987444995,24.764346124951636,27.068771995551597,25.64455616856668,23.837459168307323,26.968372145371205,28.90944935043983,26.804509275261395,26.887979580160938,28.33390262385194,26.98110596416413,26.931456263525323,28.521270885861597,25.21067078642552,20.531344165465995,22.059238840508385,25.35190072652403,26.617582786381035,30.265828326114192,33.413408640748806,31.00006377703376,28.925369831974134,29.194491181657394,25.676343765446443,22.929846209244737,28.836246426093027,37.14108409238142,41.36927352168068,43.59822600924029,40.6620436122207,30.405048396999973,23.234116111992854,23.90421700986096,24.416948975144727,23.540157475336677,24.589599882404578,22.949180587302955,18.688908476328823,19.280954327051038,22.01250021731188,20.325219090527284,18.725147870211476,19.963487357346356,18.761742266284756,16.84095469373308,17.676028845213303,15.071412323669787,9.026788044612271,8.88958092325451,12.589166530285503,12.527128665372661,11.898400653240603,12.178558159572816,8.79893877309178,6.157702661880439,8.839288690420721,8.90113687587958,3.27122166295646,0.30856971663269606,1.088584115652981,1.7253573153568769,5.6136942423092036,11.073199574981292,9.510767580819584,3.8348901450789956,1.0247165251040669,-3.1571976283539716,-9.56044025971921,-10.56058141695205,-7.762642849349942,-6.300122280206375,-2.4139255788991676,2.3448680154116803,-0.23116319323447443,-5.891037584083738,-6.025856080373868,-4.927648768643273,-6.588972347818274,-6.680172788324546,-7.292716709220009,-12.114289850878492,-13.579854203597232,-8.271122414352774,-4.0703894229635385,-1.891881382005464,2.0090927208684404,2.658576756841779,-1.2686003099961112,-2.3193240090708156,-1.2525373460192841,-3.269323709247688,-4.4380428898334845,-3.4501490571852833,-5.7955025597392495,-8.037506470782107,-4.971231727048691,-2.8585358980560813,-4.548566916343571,-4.34214273819053,-3.671857922837689,-5.849941420501707,-5.195888103763659,-1.2570663667287434,-2.041442118498321,-5.952189849882097,-6.6569475878182445,-7.359678630266641,-9.367930743289078,-7.2559758846293665,-3.9080422482676265,-5.520527185364335,-7.395789307429671,-5.86453875884351,-5.808028069103187,-5.713566147218826,-0.9332013793339047,2.427008099981025,-0.2206220906806371,-3.7772911674960454,-8.31086597761482,-15.886448473343147,-18.29050112721446,-12.089569154472194,-6.205161775865486,-3.8233119431188345,-2.4193849214065386,-5.277927812082411,-11.073952851575742,-11.550969457089545,-9.331581518021451,-11.552547569567608,-13.254934380512637,-11.226065584045488,-11.435774236411373,-12.728266849580589,-11.446591599828357,-13.118221911202287,-18.183562865144083,-19.035692223449136,-17.384311546033047,-17.419179054440423,-12.673264670531747,-1.0656470356008385,9.210463314136796,16.25533049730436,22.10392014491827,21.56427067425495,14.096297687620217,7.930718514907593,3.23043866873521,-3.3479057678565303,-5.48486456593355,-2.395066100745241,-3.800652071832364,-9.352205428338412,-12.21506958531285,-14.12278258009942,-14.701117755456714,-9.59355041104044,-5.487359750491874,-9.78741619800792,-15.401307788840397,-16.453048405831446,-17.385030510437055,-17.78849497250232,-14.744614989937343,-14.417147926774224,-18.69846513858851,-19.69226618818062,-17.681728675049023,-17.80339672376158,-15.960198958276282,-11.53564599895617,-11.83710849834228,-14.069036886262534,-11.042569483578482,-7.507524148760986,-7.855931371579666,-7.533607116489316,-6.654004726002083,-7.438675982957557,-3.7801355699688424,4.732610742545079,7.49733966023839,3.5228244577241887,0.7238469905051361,-1.7359550698350064,-5.40592295136088,-5.55793720919337,-4.962822820097767,-8.844284193071474,-11.720702008956325,-10.834401150675514,-11.560193808531547,-11.420542160656858,-5.544235305152946,-0.10741608005275016,0.9337381228655859,2.7305508604030124,4.91509349084462,4.573304513353954,6.977395724407303,12.413485789645042,12.318570357425049,8.096555062045601,7.16411102246228,6.216541748588783,2.0423118598800274,-0.06804854689441754,-1.0627269489258775,-5.222312782866474,-6.229377230635247,-1.2577404614143048,1.160829656292578,0.4040510273659992,1.694904450322317,1.6588953036018848,0.10174406604439667,3.8068993558140454,9.67151595327174,10.4597971192769,9.930316990418106,11.09139939736098,9.348784599593738,6.675397482792124,7.379895074969737,5.580292198347279,-1.2152685618461496,-4.333544404538131,-1.9285507794249481,0.06443343102839624,2.875322178939237,6.2801308401760325,2.8859762750185913,-4.337267070981328,-6.321370962126904,-6.14276349972022,-7.846828381731198,-7.025012220078191,-5.024538585319424,-6.202127637304232,-5.7334391412229575,-2.304869733576406,-3.023293048992244,-6.174984902243763,-5.723287819454696,-6.033404759275377,-9.569133431884072,-9.99028397390278,-7.893500113176625,-7.904807558886368,-5.580889427160312,0.160173400286431,1.287907678877267,-0.8531932175672258,1.493465540046939,4.997497538361806,5.408375380033414,6.8425153687089,8.26654700687392,6.043802153490084,6.056861086229419,10.533316143752701,11.139998533463396,7.365016690849201,5.734469033610213,4.3638986672379145,2.47653469028546,6.043261268498209,11.514389019536859,11.070418357446385,9.28579930272734,10.76694293844088,10.847071035230456,10.531425836798936,14.296302873563702,16.12467706813947,11.550884027204315,7.455672261270163,6.244304395596366,4.183889798851365,4.578522875472488,8.71275023951186,9.165482422557734,6.135073862976977,5.886089907975893,5.811820316546192,4.351337242352312,7.148678815298697,11.521215818409486,10.866700780611652,9.678493693940961,11.370035609631172,10.660066407945207,8.699143991886293,9.979573229947775,9.623120741698486,5.745275284878847,5.66858538492123,8.740299450416988,8.281159231550882,7.157290534982218,7.895024715610809,5.039835233242089,0.46903074063344197,0.553060853826507,1.374008537271298,0.024179534608606,1.983037715787106,5.712312669184922,5.47281742544898,5.212317170374149,7.4102887689491315,6.159427346384702,2.761286702389527,3.7075555013959507,6.058111290854404,6.925321355085644,11.178876625688455,16.9289271671144,17.94395497090305,18.802410527821472,23.369571749445086,25.924254257730713,27.692652220378,35.033797048331756,43.54711688457305,49.06148814366016,56.634750419128025,64.57131681875042,66.53573398627161,67.40352800722648,71.1607506252841,71.46536543017245,68.44790505831853,68.21870665191663,67.63438262987884,63.595690844522466,61.02159257743846,58.000525999468735,48.3343909989421,37.84383282280766,32.686605154892064,26.953025035727265,17.884900266619177,8.912987807173112,-2.455823736439436,-15.85758178946025,-22.689230597074435,-23.796506674384133,-28.453588457355895,-35.83635387502835,-41.698868352921956,-48.493139909448566,-53.876453122081365,-53.64071717756812,-54.34082031340492,-59.782607667634935,-62.600047650331106,-61.215709237587475,-59.912491721470076,-56.360604299474005,-51.77682539390487,-54.21281679708829,-60.671179966678416,-62.30836981110037,-61.8643448154053,-62.18757799112442,-57.53482853768552,-49.60427930514301,-45.4728446487567,-42.56092233317602,-39.06033522193652,-39.815997826397826,-40.090642468802955,-31.292577533308464,-19.02859147838125,-11.013928175371188,-5.016888413938062,-1.429927489932823,-2.527161228551457,-1.7966166497768472,3.0307603769407154,3.1413971892303856,-2.408014417006013,-6.134653600725175,-8.746287019125953,-11.837486206758358,-10.047833964541146,-5.650231051351855,-6.2998788667489825,-8.756316141830514,-9.132576070356631,-12.49397864325077,-17.75916438643778,-18.82562086976518,-19.441871354648086,-23.420834170385906,-26.36140958755338,-29.227306606620306,-35.53488817989368,-38.75545323309655,-35.75213001130891,-34.24382008799578,-35.177746226890704,-34.31327189448357,-36.127713646550916,-42.20444944475885,-45.415253239073444,-46.99225564093929,-52.04443562558668,-53.88996083864613,-48.79109604853022,-45.25579316594455,-45.00985394970645,-43.42513314242201,-44.42895542154774,-48.88276148739333,-47.890358167734234,-42.19176329316623,-40.52811018907349,-40.24670705354443,-36.66273257773391,-34.46030531985187,-32.799635740309,-26.663544907037952,-22.195412181994843,-23.61437788760485,-22.76928551568382,-17.753910544187615,-15.323693607058498,-14.588273279441777,-13.869940782377991,-17.83573155108399,-21.768277435375463,-15.640987495966879,-4.074561545018263,4.317533466491616,10.71515451579577,13.70264596741302,10.600704771485029,9.64889221803307,14.9927700079451,18.26827949986916,17.63375206229044,17.831687577311097,15.993302471876547,11.421627637234794,11.700710674882949,16.108414520354415,17.88146184948699,20.28599011345347,25.463723599296376,26.450310793011614,24.882528215872746,28.38897077570697,33.16335130389388,34.04345803678956,34.72200534066528,34.49699221069186,29.455058493490654,26.531911899773164,31.135220261359915,35.283196152474204,35.09426902959497,34.80147221183137,32.26750619189939,26.501732462619763,24.631471982760402,26.422375196174173,26.011951498465873,27.382281521898324,33.896869641444916,38.44488549067568,39.0501314134514,40.19091966605219,38.9957795411542,34.094596969067695,32.86167770352542,35.1458915876003,34.24728582004869,33.46585346483434,36.45523382360534,37.37738388593415,36.33449876325571,38.51906518756542,39.046464486583204,34.2253406065817,31.433580948415475,32.51512719322143,32.02871866511189,31.369282257170017,31.126198368352814,25.67127592500929,19.107516969399363,20.69032958015144,25.929063407116033,27.86096929234374,29.512820579350443,30.509075728804895,27.617820628687966,26.58365278923583,30.06159524647169,30.812393365484027,29.396869842185595,32.9010623623561,37.52582002855822,37.44139764816285,36.28606389669045,34.67334521119769,29.001261524330104,24.21434886480463,24.56919059287737,23.913355560617447,20.744399930552596,20.230085242822753,19.62949478003268,16.03086808391543,15.176329280849988,17.22729762481199,16.61904693220414,15.650410812703004,15.552669312830998,11.033239227616479,6.378448864278957,10.719353456592312,20.170839254899793,28.0291842452928,35.511654083224315,39.82829809362626,36.583545026281605,32.88032410477848,33.179666580093404,29.088316724506008,19.703176814714382,13.73257701512664,10.555318892336848,7.033229072445719,7.314651878933112,8.430724764481987,2.1476546534270398,-7.116513763712359,-12.267755868794644,-16.236251335927633,-18.209263766521076,-13.08868271671728,-6.555413434925136,-5.259404687134335,-5.137964253379739,-5.082830478768272,-8.546648324060031,-10.780687381990008,-8.928911838335084,-10.52055760423011,-16.573846622665066,-20.022082743675945,-22.18454646022693,-25.920646301846297,-25.95064384054597,-22.939059808859625,-22.71993851155587,-20.85509678125127,-13.808670913616275,-9.14090228750555,-9.071574734649213,-9.130372694045397,-12.150030448896104,-19.395876560805515,-22.773389472934248,-20.90995039813797,-20.284788905897052,-20.192737621819617,-19.80019194342328,-24.847312930880772,-32.47730594804563,-33.37460585729618,-29.4958231636928,-26.791142145868925,-23.73700612885069,-21.774207700569953,-25.017182709390465,-27.930757763752652,-25.603470544382667,-23.666426517106206,-23.801565411905152,-21.81890106529873,-21.094256928729315,-24.490689473265782,-26.13554907200194,-25.315691564918914,-26.338886053678777,-25.735828319202973,-21.75851420079907,-21.314645538706912,-24.071215330518967,-23.626886611103707,-22.784431044071912,-24.505170077284237,-24.099700223304264,-22.40939935290426,-23.205591090835675,-20.91149752505679,-12.691719901200663,-6.784352199988669,-5.553492892119692,-3.214453695787252,-0.8443586446260577,-0.37236664216520704,2.7130223758035474,5.688378626449959,1.249009223570113,-5.935598915605298,-9.3060772208067,-12.316494202183723,-15.057949604815366,-13.093904746127052,-10.875308959164046,-12.10292926300468,-10.539171389863924,-5.972262023296469,-5.179917460660758,-6.0102632023006,-4.952208937561701,-5.944576011139894,-6.996877376864988,-1.7532927197762551,5.284119806957573,8.17896953897408,10.833537107802869,13.262781754817809,10.113218153008427,5.42526464675438,3.8078452480095946,0.3006478429105519,-4.8904911667593485,-5.390011978135644,-4.0407748987385705,-4.729438948384945,-1.9992807738208824,3.7964204918728752,5.3637363440761625,5.600557650671721,9.099562208625947,10.305752047169921,8.184816903834818,8.14273273842277,7.368263874232111,3.351060330958087,2.8074735137916127,5.556727011631721,3.7635588327290583,-0.41092355654361046,-1.8201509460978356,-4.07842302382838,-6.7332012793593785,-4.424831604448484,-1.6577179328460625,-3.2710171736709395,-3.9659239879685297,-3.351511992791112,-6.493501332119553,-8.418317400847252,-3.758640727706629,1.54399738811297,4.28240614464958,6.803779341265681,5.2217358369019955,-0.934141060606108,-1.8978282950303766,3.5255022506866602,6.843278063743721,8.434402559180734,11.115568828843621,10.016283031754092,6.592362558953765,7.675782250899192,8.717587383869745,4.609479775372386,2.299397720228342,3.5078144884098674,1.504661110229907,-0.758513813285907,1.7291894778086059,3.7704284167314155,5.165380968825266,11.909492100936362,18.517010778529393,17.783173179236336,15.357092239411593,14.265932713563659,10.133605801801682,6.783213422450682,8.100430612955238,7.06851313529279,2.783336285147873,2.5686627497157897,4.148001463478225,3.3099513423662925,4.848645399278572,8.121670901776515,6.322181804853664,2.5964813140313048,2.3756977208051113,1.7139136492487,0.21659138997185334,3.006788839148573,5.69615735118633,3.0263596277891875,0.6855928062264213,0.28087374582825597,-3.1249954309955332,-5.654454339558084,-3.1196370934034685,-2.034636134541396,-5.06285794470712,-7.1231525452956355,-8.762931466104424,-11.107198651875613,-8.280609484669741,-1.5283029679978304,-0.12987648130383234,-2.9819787165312386,-3.6878927031505837,-4.464110526956233,-5.88376727302446,-4.167659642043247,-3.762938980496183,-7.406409902653617,-6.385035247310918,0.3373399961756074,3.3642435891187414,2.54507892733417,1.47633436359327,-2.89723913690384,-7.391610998205312,-4.652972403639757,0.16189869725217632,0.1287683125477943,-0.14126021111002723,0.5413407718319775,-3.2357358217538033,-7.871164935452958,-8.334172047234816,-9.542793557624593,-12.194059674752872,-10.55956695996155,-8.711680625316522,-12.02626857144914,-14.025858235924021,-12.467961885890224,-13.278789393516854,-12.92884510439897,-6.747778347170298,-1.7134401662348204,0.45853171582366775,6.2702968305419535,12.336043290691235,14.037528682531415,18.68736594627074,28.420710229643625,35.80209166166301,42.19013303278051,51.043014874063985,54.821605010694554,51.60452929990064,50.082841349376956,50.028966567546725,46.941085980987346,45.65948346337923,46.36730151549655,41.51362856208972,33.96994987304141,29.858271652407936,24.527936114887666,17.1585171885758,14.329758183522696,12.851890729586573,7.079380358056548,1.2723843465986435,-4.43252740832143,-15.300828958541723,-25.894231600759923,-30.090629791722407,-34.024631505780484,-39.77192015243166,-41.5258530777934,-42.22264274213901,-46.70951556336266,-50.19891316644464,-51.822676389532006,-56.81072810432303,-60.639161769203405,-57.681752812333364,-55.55110048980953,-58.6646133803238,-60.50233431793268,-61.170195043008555,-63.62213789553773,-61.74404915055001,-55.87964848361646,-54.94243680799186,-55.809831810398656,-51.5778289502708,-48.15605489686318,-48.79484487471696,-47.561292965715715,-45.93858141031667,-47.213472566403794,-44.94080703029193,-38.4530529161825,-36.10033090931979,-36.830278931186015,-35.611257166344814,-36.2179674508036,-38.390688768932954,-35.14123471704969,-29.504216000999257,-28.22690685586103,-27.52284198688763,-25.044526017124582,-24.622882719165027,-22.370052757936087,-14.398823497738027,-8.611940718786183,-8.245010277482603,-6.089663240632527,-2.039707237120053,0.21568557926373474,4.675004999283495,10.130523211233045,8.685717831222462,4.083087049934171,4.1844488773863215,5.726838679468862,6.853292188701284,11.448227911086388,15.132728758297358,13.306544764419414,13.12820897407537,17.733332354161043,20.58518923067119,22.075654223813807,25.57630715206968,26.10469638766992,23.332916235767385,24.516250464084735,27.99191509523898,28.649790975530347,30.239634250509752,33.572881639259926,33.31462520717652,32.309387915127516,35.27452192383639,36.75451994916012,34.36699045044449,34.118390989281814,34.912341947947354,32.95965372600857,33.33076430769897,36.732003089380214,36.84567040795236,36.561923902822286,40.370229278762366,41.81357061734636,38.689334280589335,37.58658512601194,37.17141096099631,33.82264371959077,33.14041176598843,35.38645973268614,33.346853287960066,29.92752920169515,30.474081325994643,30.050618598329038,28.439636125828887,32.45497058686306,37.92871362520773,37.29239929231693,33.94710516662025,29.457887014285227,20.164748257844558,12.130200507300298,12.562114631119156,16.18338656389001,19.567168634587567,26.533545504581426,32.70265595065938,31.583107599428246,28.66751210302416,27.8428663014766,24.81498812759883,22.417252283810285,24.563830699774684,24.5708523748171,20.96331323102305,21.44792655601393,25.148023912882834,26.90062199883697,29.20510324473087,30.81169777911666,25.228936915019094,17.164831759024832,14.679138807865765,13.780568465763242,11.43107574406252,12.074818276700471,13.04410045327409,10.09858011765155,9.188390691894565,11.371207312264485,8.817106164221293,3.949123713474878,4.03852274003598,5.19009735112984,4.435951059335885,5.330561565567143,3.6245460654658803,-4.354670930259533,-8.999447475862823,-6.2946470689958325,-4.70333292241949,-5.109970749299822,-4.204449229763348,-6.8850500817750735,-12.098218873006827,-11.395419009910746,-8.480766495858191,-11.148023366705493,-14.537901243727788,-15.270670020101257,-18.532829710187535,-21.668838645134823,-19.312620917472927,-17.769380654959935,-20.122085533101504,-19.28541251150057,-16.76796876593027,-18.475267896242983,-19.158187406223647,-16.187627672741645,-15.888670207214796,-16.16418999595038,-12.194557526953133,-10.896393118484777,-15.277625714084298,-17.642693616734995,-18.443436062104517,-22.266282513112763,-22.94879542038167,-18.1704709360054,-16.41506169962734,-17.9099603303624,-17.531727615132198,-19.00415814529807,-21.276831903310796,-14.817846661871135,-2.269609052426149,6.770138561398425,13.11881930710245,17.568979513795966,16.610408017108306,15.392529971445526,18.242761936620226,17.54694846379176,10.351144611794016,3.0682072011425463,-3.8600108806352784,-11.56222983707665,-14.35183101868429,-12.754506753220504,-14.24359564319356,-16.995385019993904,-15.678725809546144,-14.243739978165964,-14.839435916375521,-13.051275225920227,-11.556377258243042,-14.574357478276092,-15.69684622595291,-11.92569519165672,-9.703979142283448,-8.610880032155045,-5.249382182708253,-5.470818143846775,-10.952959763713405,-14.113346704444634,-14.971129283254264,-17.55729523906136,-17.38689286235021,-13.940382237509317,-14.408739591892228,-16.609855865980293,-14.391304840166088,-11.772094584625796,-10.786257602870101,-6.337489670827772,-1.415808886287771,-2.2711775126816325,-4.797228876465696,-5.366345006325664,-7.093734244708709,-7.354407330801472,-2.638269974814847,0.025596283981235812,-3.178078153737448,-5.803699685345426,-6.44908290626636,-7.637028148158496,-5.865569964293984,-2.0355340505206927,-3.1092373037562457,-6.058588378861553,-4.274414021383445,-1.59694372012483,-0.5597419207444065,2.1854330619224522,3.123189664831252,-0.5570617810614367,-1.2214391904594124,2.60487812403782,2.2683293806937965,-2.1454307590104618,-4.7309308573248385,-7.012894195876258,-8.390665774707594,-3.7766613704727847,1.5541598711950695,0.17064589898375426,-1.9026026081075298,-0.13657263805598951,-0.08260184747224492,-0.39767967567685747,3.24015801227471,4.764625819420033,2.0261176985830893,1.6718829308144134,2.358895924426004,0.3197282155169441,1.8222407161988197,8.283738544189866,10.651836927404513,8.53846159229012,7.588159485305932,4.235302296977963,-2.4087409413293948,-4.984844782474876,-5.026436264330981,-8.060688715334239,-8.982489107236363,-5.18230710522985,-3.315046787501158,-2.890897089809518,0.19552071525150883,0.46661403748693125,-4.1383906525118235,-6.404075237675883,-5.844035880334109,-5.75884031674396,-1.8077173706321699,5.93450876028373,8.758317641220817,6.589617047509199,5.32490466169188,2.6058434308530285,-2.4725547727129267,-4.047730934568159,-4.2248327246736235,-7.979761515670516,-9.009964616037204,-4.005130045724969,-0.5932226197793571,0.19928772522963084,2.198540791229116,1.6068592836367168,-1.0514118051074752,1.6963820034336274,6.447558571586889,5.807659285777511,3.8350933529466174,3.2250358822963765,-0.4298385404470644,-3.691236521079963,-0.9120048001431806,2.22905198528851,1.7889492925737385,2.4373920121544455,2.2341123449301645,-3.105976499021919,-6.87217904027211,-5.285882517355857,-4.728438329929946,-5.185234071783832,-2.8845962944184036,-2.6298015873810243,-6.027177041238846,-6.418598711438384,-4.350864576643805,-5.0995186186586965,-6.043568886084916,-6.032793509626565,-9.8590689813115,-13.817594933307975,-10.896870805094991,-5.816053437322793,-3.6930882750888783,-1.7861822354711498,-2.3936005551471107,-8.269504932411097,-11.005718891701688,-6.893005320766807,-3.682663333227149,-2.0580521143494788,2.0564032960132996,5.198271035841621,8.647636165984085,20.2796781474724,36.09186802996702,46.81613547515401,54.74657422948636,62.95339282475556,68.31259035660662,73.99135322443067,83.60302538524009,89.34390298804212,87.03680470763081,83.83238036660184,81.32248074697279,75.99238739024347,71.81712975732873,69.76950521526479,62.6879286111741,52.21785281145253,45.127833032728645,37.846999528015346,27.373142360331148,17.88696197471598,7.180515309713172,-7.672269157055769,-18.68731214606352,-22.51453779283398,-26.95273731705431,-33.65789383983704,-39.17039726721083,-45.61591617779333,-51.24589421975145,-49.46569859090836,-44.61098937311148,-45.40697135489201,-48.83858668764339,-50.432952623383684,-52.652148024835974,-53.26386671039785,-49.732033929457124,-50.4851120830631,-59.323056434752694,-66.73042418275523,-68.38753282909587,-67.08381594033246,-61.232909449899374,-54.26284287059867,-55.71518700098868,-62.53156535708877,-64.8620913045707,-64.07839983469219,-63.03344011293086,-58.39894718295908,-53.41998627046182,-53.28586874791656,-52.80753456277593,-49.184077611957164,-48.04967228724425,-47.83031422117507,-43.05914443240269,-37.63538043366528,-33.847202211440106,-27.297266602928005,-21.64445198463602,-22.9868302640134,-25.995923560145503,-26.342331892057206,-27.679624090624706,-28.36012469019252,-25.310429057872632,-23.976859825325796,-25.14978475035913,-21.272175976995157,-14.13284164800305,-11.182217400767337,-9.794609832547621,-7.318560250645369,-7.963954808943285,-8.724537604450031,-3.7943420645839954,1.4570065408465736,2.9676747562148096,6.022605872945252,9.679593685379304,8.787068673291639,8.498796166898636,13.341499403045791,17.68684905494726,19.87149418609164,22.423539101853578,20.83109750014788,14.38058170335867,11.728168203366304,13.756151815436503,14.823343214390476,17.56257345432732,23.25724451181535,25.289613506469923,24.58981913787336,26.464887867739744,27.34925645312415,26.661306316813288,31.66169194067257,39.864544808271205,42.32859094779082,40.478522339170084,37.4363053676737,31.086432065730712,26.972192262788226,31.505274129548276,37.00213814890373,36.58993536225971,34.490599414541315,30.913975989794352,23.66809116101705,19.46550130434517,20.346687573165703,18.97680410007581,17.218245558148546,21.39371698421262,26.31291016924493,27.95279485751932,31.46273262377066,35.414739272414714,34.110341599517376,32.010978742727005,32.50885353088669,29.540257625368177,24.28745390836421,23.680341755252307,23.770515552300996,20.589500099216277,19.742468444408267,21.105374550601464,20.309411912666853,21.658757450307455,26.325000597655745,26.6818068189693,23.374896040692,22.699643455499608,21.883738891658215,18.9533657356594,19.37952149299664,21.64106042626394,20.291414139638565,19.95103582113215,23.513305207534167,23.964102310237728,21.09462815868032,20.79170494173872,19.89318435204062,15.665611493392365,13.754267716762246,13.51296075532468,9.626022279227882,6.104986772550596,5.743255562506749,2.5106516095146665,-2.3826337516504443,-2.709363520103187,-2.7310950461181767,-5.925056679930852,-7.071669090617777,-7.3185109866677225,-10.26653321678798,-9.575778466836404,-3.0932841284739903,1.4957558116073704,4.339622558423722,10.796793028398923,16.703711053928345,18.18572058521687,19.33363852769013,18.59603594877855,11.892246188738238,6.7217247842710695,8.334934260858303,9.371584087032371,8.304509150446266,10.981646042992775,14.744462628133597,16.438605335881253,20.03272249337758,22.671667355088516,18.383313557592288,13.437263394387687,13.209196681167223,10.735226975952376,3.417822700022643,-3.9536834392513946,-11.861424508593366,-18.96144555862897,-18.644756034608093,-14.799819379389278,-17.356404112640554,-24.2135221734017,-30.037224616733667,-36.58037933372549,-40.72811353111818,-37.87806572012933,-34.10627263164085,-32.577615182063,-27.538213181345952,-20.905350072392906,-19.248398601132678,-19.773301974304673,-19.92332102732202,-23.42846814242911,-27.04786617772054,-25.347174468315465,-24.17530346459415,-27.411962602994947,-28.007522489140978,-24.60748125275402,-22.602721494412616,-20.36840723320139,-17.366034111256674,-19.596985627415833,-23.860422523058904,-21.842271503621028,-17.40874255417633,-15.781988076750887,-13.659096536857534,-13.221571612114584,-19.132958211421297,-24.393218502307953,-23.086746191986354,-19.85264150008778,-15.073516431582679,-6.819427032383411,-3.415898906096283,-8.303665551850836,-11.689240319029016,-10.665340688578397,-9.500915998920389,-5.373563703930635,1.620179325738313,3.952696549110714,2.9062555501005765,4.541202811894654,4.885531264305599,1.1990585560808635,-0.26401968790162234,0.24199018088296748,-2.398563032276668,-4.144002492809174,-2.3119654465372452,-2.751094244024676,-3.996786952352408,0.21488181713223153,4.901249791025568,4.984773377501917,5.351113013100482,5.889665537535624,3.0567968374176724,3.284741603140774,9.510368386690068,12.895543134772229,11.730041862028303,12.004685735165758,11.555599400474975,8.70052227986791,9.9041124719952,13.89409570697265,13.345668207352126,11.53090318263365,11.730004575862104,7.470265914621853,0.0031202693211844768,-2.1421585381548978,-1.4964404931485404,-2.162320946115864,0.5021691887260917,4.0392900858935405,1.6622516447454725,-1.100164151692112,0.4599797880603982,0.8094878201189863,1.0228610489431613,6.1478934170221855,10.34408928672581,9.318293347842348,8.744399092986432,8.716069739442776,4.986066038961951,2.3058352229394075,3.7458411286721054,2.7746066171348893,-0.6559695491031328,-0.8723697924065005,-2.1517261138024883,-7.676380669802999,-9.146991689512479,-4.422950677358245,0.4692990391115788,6.526466169330425,12.741024698875112,10.582693237995915,3.0783162052419555,0.981250667044436,2.5093431286601255,2.922888179319739,5.276391449441932,7.48411185851194,4.367425094845984,1.157796268705935,1.7253016091532385,-0.5650156403571619,-5.644457279986668,-6.482525238267044,-5.871088081746593,-7.381213632033514,-6.250436543702219,-3.966364190713854,-5.888288792544837,-6.98577631457555,-3.810377551628192,-2.9417004884069287,-4.865721872418968,-4.568561594794253,-5.240377220432115,-8.101165088731795,-6.392632765960516,-1.9415982882747536,-1.7348338469718634,-1.593277889900166,2.368179069091095,4.0471018076937435,3.419865411834834,5.4892938790023225,5.0878294289880355,-0.23826653309970425,-1.2046166671926222,3.777630213834401,8.673797361794621,16.201612193228186,27.998031597200136,36.891916529750134,42.893735949192816,51.79137455619622,59.91745510027671,63.49959727362241,67.67877135562321,71.59905874356753,68.69915615640662,62.510371237598235,56.89263239050877,47.29813718307968,36.71825095972371,31.894902477025912,26.523541558394992,14.734398524010626,2.388493182656175,-9.016980403933278,-22.255905666653813,-30.98155713231009,-32.89252270960748,-37.48538747531923,-45.999992881259814,-51.80098731317251,-57.174361815644296,-64.13078598830359,-66.90975612914485,-66.64069296045534,-68.9246477062818,-70.13011809938908,-68.24847358458521,-69.30964280656522,-71.45614542285044,-68.23328575507932,-63.71313964042465,-62.15158497189084,-60.06355223067115,-58.97624012804756,-61.7017364719064,-60.81653075014815,-53.649505632937235,-49.48462481522352,-49.59819222069808,-47.44879442265237,-45.227623725573636,-45.00817881426649,-41.54775048151354,-37.34508334907773,-38.744702231057005,-40.26666322344289,-37.04630380132084,-34.729387848126265,-33.45388001129736,-28.192523779450543,-23.410812865965852,-22.60254479337043,-19.764766123735583,-14.941559343011615,-12.822298314144012,-9.423560038707656,-3.1621369544352422,-0.6049164875529305,-0.5061448852195694,3.1907157861538527,6.72432448919456,6.952345797675203,9.359265171724998,13.050320489494803,12.38504183337149,11.556891835358048,14.097178233688648,14.486308115490369,13.42381196614253,16.260110386296688,18.345341433061122,16.667487988175118,18.864026822091237,25.47824861349865,29.21513959819302,31.127150547511796,32.68462679061447,28.475567282362842,21.911574780810724,22.090315951400676,25.543215876253004,26.674893901740887,29.33638661843302,32.23426074797475,29.614814512403044,26.592006412612037,27.58846067721253,25.973313228139602,21.743873569043647,22.069546118638982,24.147378191837298,24.17245150540823,26.67977546560297,30.44828003332384,30.2869953036611,30.80885936745019,35.387894256952066,37.15391754519735,34.31491582001861,32.26097802450229,30.262485344465382,27.39580040656991,28.9704001493786,33.09653054329176,32.84261284147857,31.901469420272146,34.54358633503548,35.0526702385302,32.48308392504494,32.088514922758115,31.46637950131163,28.519811485295055,29.179344311903897,32.1012198533002,29.17069106066826,22.976517033635176,19.182397205242737,15.305214525854737,13.395233988447497,19.199107479779553,26.90511088547091,29.62394467058092,30.990373806617498,31.093248170588794,26.028670016108705,21.34334618819618,20.852428402963096,17.884429278334093,12.140536626236296,10.36855345788865,10.657701872698395,9.747888057014192,11.592117074706211,14.368073197439122,11.921275370603977,8.680777002765494,9.615967869845925,9.410366221957492,7.136923674435618,7.469779102361905,6.951727670902409,3.235654219359003,2.45983786865078,3.986950234914166,2.275661097635137,1.3516407959177248,4.033129000772038,3.8343643131759073,0.6693040753251402,0.16402511551759447,-0.3398297958405174,-2.5096939472766437,-0.46072235246049054,3.3200880552660004,0.6737190292612736,-4.748846557468904,-7.307348184138806,-10.177263267823296,-12.354946647728429,-10.38331330254241,-10.958839201680297,-17.90373853117132,-23.19717986872864,-24.974028659869223,-28.223473959279946,-27.84776239447491,-18.94598635330152,-8.735682037552099,-0.5069383655694415,8.007475226269625,11.154584349935408,8.016425703874841,9.746001204404582,17.255561972071753,20.886460857029913,21.81300354335631,24.944348190292743,26.77427720670986,27.468832220701273,30.058682030022453,28.170353117183545,18.65222399684081,10.239489145260718,5.378221079016953,-1.9085214265066681,-9.909490001852252,-15.464364277886101,-22.376986615693983,-28.676855525848723,-28.28260892529951,-25.58735200218175,-26.287641945784262,-27.041629469479354,-27.736690336024576,-31.44962342856257,-31.78807152929845,-24.94940831369004,-19.901961983901835,-20.35750620900658,-21.735648587737312,-25.67410118817768,-32.43144909675517,-34.62244753434167,-33.05729366730595,-34.75814316727592,-36.257673008057964,-33.788363227192555,-33.69656728744667,-36.070158694186276,-34.57653345399508,-32.74266105011205,-33.925985017933556,-32.12340252381713,-28.378887352310223,-29.067470840738533,-29.530529044471905,-25.625328962660674,-23.410276795744586,-23.146322277215667,-20.19256513086528,-19.439152026136217,-23.933443808846985,-26.0358976247215,-24.478517540267106,-24.681806046558787,-23.456031724527676,-18.402572676884624,-16.001599569068247,-15.971089507506957,-12.662904466484996,-10.38952821577059,-13.265390821198626,-15.234613360287748,-14.210904088258827,-13.476278381958988,-9.934500227926979,-3.368407615446139,-2.3711783608412853,-6.788149471139925,-7.963165199112368,-6.295630723291032,-4.673960948098591,0.296799367702822,5.438557588083071,3.6598210282003825,-0.4759667746477123,-1.6201165486250206,-4.166847654792602,-6.9889900703691845,-3.3903461230381584,2.4914015786214083,4.7088082500269985,6.954146125497462,8.24231319913512,3.230036158275369,-1.270497458765727,1.6406463712211794,6.323628787284004,10.778752018463669,17.035475194196245,17.690110185631998,9.667850905501808,3.2535084549464948,2.1676080412726497,1.2747840910400952,2.7725806623203137,7.769321805281664,8.352869047531259,4.870086411088529,5.402863547885918,7.8566969264409785,8.17227091731621,11.254581345931456,16.210990026250716,15.472256461777551,12.16073642329258,11.828040027769749,9.884699823121391,6.080659068263939,7.148424021606202,11.077611210930728,13.711290918719818,18.205251309576713,21.572791728752385,16.62941100532128,8.961590723424631,6.101750441865365,4.238678900769896,1.544177574161771,0.7766056984982836,-1.8659312630579878,-7.236199806461454,-6.9218607490540744,-0.3465711696020657,5.202830682629248,10.964487897120764,18.76199963628014,21.689324410027837,19.357242517071587,18.62146284633206,17.757827456385684,14.363065596278666,14.146302625293426,15.81425282859679,12.087733483226144,6.6713327992908695,4.873528371866415,2.698512155285169,0.9421497258030898,4.62171474494956,8.377160691010307,7.1341765652719635,6.780919082703156,9.310028487647466,10.80128338676878,15.149193875736964,25.271609783523065,34.34500433377626,41.57698166143861,52.409812307711746,62.39355403388193,66.75773513308073,71.34776661212204,76.83699435647469,77.21445603963618,75.70196789265592,76.34522772989368,73.68356859327234,66.86399336792508,60.05664304833082,49.05139157480372,32.479392193047914,19.54084185767142,11.425548065196026,0.7510686840933443,-11.852596402836248,-23.868059161506597,-37.43434886015159,-47.5684049623502,-48.20493779776481,-46.91565201724506,-51.042862945297415,-56.6381589439226,-62.523252162872915,-70.14890145279017,-72.66665774588819,-67.39304281415048,-63.648791249190786,-65.16944036081978,-66.93557241162034,-69.00881759604722,-71.48968575395537,-68.59387641520041,-62.539059107504315,-61.338273890015415,-61.54530059934576,-58.00273769458646,-56.367770845075974,-58.20441526152819,-58.2223131839051,-58.26280173434736,-60.129397678238746,-58.44871164128252,-54.347748178383966,-53.53709391903937,-51.053088013416726,-41.71374642662939,-32.162330747256256,-25.80055277460674,-19.120335999039273,-15.665846604844955,-18.229359875785562,-19.99274754418239,-19.6985275512302,-21.703421393885215,-21.25862681589563,-15.244483603462847,-11.67309782030548,-12.054959719360877,-9.811185183942142,-7.215676284105259,-7.215862597671945,-3.656528090041788,2.6768829071006115,4.619892233999903,5.905748576526841,10.267718465957442,10.48180308370244,6.646774726351943,7.110726228064394,9.391155644346897,9.081730866656514,11.92984254538073,17.898810359843573,19.948473834597177,20.58369480754893,22.750880749850662,19.956313794459223,13.186272145956263,11.704195245466988,14.518088914966093,17.637275936860846,25.028293307923615,33.76635662761419,35.09537590498237,32.68586408548967,32.37131967483492,30.427705921717596,28.589949921060594,32.621232235691764,36.702836038853526,35.663859931722754,35.78897718528146,38.18080838682144,37.377416975372654,36.52559388118939,38.410251283594604,36.48219480883339,31.04670303363385,29.99649588465121,31.969919197872315,32.77895890276639,35.20758336738348,37.001413188469,32.21226180942466,26.724703915753718,27.86128928193331,30.71899621538427,31.540834804817784,32.33831726931115,30.25823141657407,24.999289827623933,24.183615662354317,27.592706518734193,27.239782241197684,24.433684869425917,23.85318705764161,22.040688765929545,19.369368387486794,21.144028399815433,22.632453973720736,18.78392413682523,15.719337232982832,14.90960895870429,11.319690000786942,8.881646171137842,11.629675186599624,13.652088003907965,13.805433830194373,16.729276263617546,18.634936917411267,16.066495593763193,14.947129432907897,16.07792178404747,14.473612796551535,13.455863553276194,15.81219595766359,15.208139600169208,12.24857246609978,14.313099666643048,17.91210067924113,17.288969495705974,16.111312477718094,14.039087647221848,7.040071204757432,1.8732720031174253,3.849395165526352,5.09512693157281,2.4995017811173,2.1868168858220614,2.9676936236143274,1.4375252285685318,1.8002153006272616,3.0422980547427207,-0.4633198659091484,-3.168112730064448,0.06645322387495223,1.4037490698826884,-2.2361195597133197,-5.3231647306018415,-7.93020097226476,-8.849843064364698,-3.3376550543365915,2.7828261481113055,2.3945461010084386,-0.4345034464187162,-2.626772485027372,-4.541290905224585,-3.1277068262715417,-0.6300400348464827,-3.0928718197067107,-5.888739233040887,-2.5860922096023247,2.7799332729674955,8.104094223536784,15.358070796058502,19.78058493793902,20.116463093265388,23.712180572820394,28.8161980779242,27.036848523701487,21.56288419642771,18.05250489890068,12.256882167955288,3.578622070002765,-3.0154194011077844,-11.034750197102223,-22.547551860275977,-29.527167765252464,-32.21066759920916,-38.404674391467815,-44.52642343347728,-45.287072155837514,-45.90454666276451,-47.66486946340175,-46.1789700649379,-45.440660279916095,-48.80339667883068,-49.296145456203035,-45.81877986004329,-44.49930231408985,-42.35237010339104,-36.61703573940126,-34.85993456447032,-37.95186657503938,-38.33487636827821,-36.70298434438655,-35.59120763813387,-30.743892276351204,-24.601589581856867,-24.429084207248025,-26.12988571936304,-24.36901696302819,-24.141413398182728,-26.041755379101524,-24.62690225063465,-23.017494917019718,-24.550329283750305,-23.877894802072156,-21.603984311447594,-24.059891145583286,-27.198779878450956,-25.863821288707964,-25.485641217856845,-27.000027634368664,-25.361574490332416,-24.648235919231933,-27.71302090179627,-26.669557815203625,-21.01789130422551,-18.792346867574505,-18.276747707294327,-15.72104587180233,-16.09498967221432,-18.35946660633692,-16.31786426190482,-14.4498625202413,-16.401748141541947,-15.601493794748684,-12.5906067499491,-14.417436972258328,-18.416226948706726,-20.354816088974246,-22.21926254463427,-20.700160539964468,-11.730223172039015,-3.5264771708210305,-2.9352837850217526,-3.8865519722589865,-3.4152067826176515,-4.505710825592294,-2.80823532025153,3.028428452383539,4.490897776991384,2.390187491489649,4.889449773387038,8.249441692368956,7.771928309869853,9.889991233931422,14.682560870190454,14.926632583664928,13.789631277046215,14.676647462092838,11.485959774852265,5.827102094100093,5.55353431510927,7.428808369162935,7.129253243716885,9.51956792534658,14.121162888065353,15.15027820900459,15.89768268416732,19.614019861952173,20.91943510394977,20.1793222581103,22.693261462659574,24.477070387561085,22.47395035337987,23.20010258644441,26.18827478921905,24.234053254381475,20.524861606519327,19.518913487830837,16.370349132785055,11.891253799254358,12.261057130640543,13.299154232756173,10.684749690576675,10.387300227416576,12.677340932261176,11.291192155058646,9.53416451484302,11.555925125698588,11.88596168702821,9.925446391720639,11.250442220537519,12.882139019533312,11.311710557178074,11.81293605259249,14.277594215688618,13.105896752410333,12.18491584058477,15.50822114904755,16.812755256861188,15.064458560949674,15.96641767258174,16.434114872339606,13.208688422823602,12.272769767432122,13.499573156209607,11.136637634070649,9.625193447104504,12.579783838406604,12.436006556590709,8.195632113564594,6.483855373671044,4.596744272668736,-0.7775213070922178,-3.386356970353095,-2.299440644463617,-2.1997400689801,1.873289411460337,13.006959995975388,21.25054264605817,22.695043333459196,23.388289262237283,23.166846304115673,21.425901229313897,24.162441103033714,29.993735022092757,32.14339756459721,34.82279178905025,43.51618955611526,52.87193861236316,60.79765750620524,70.92090256614546,79.04727652245197,81.47411417871953,83.83571388299498,85.88420981760159,81.18784618467606,73.89404288055508,69.40290484378991,62.50738346608357,52.77743318782651,45.72881715333584,37.51347002265444,25.01886058002949,15.446394108901927,9.055971011409447,-1.3154615381768355,-12.251939704941096,-19.512452365279657,-29.157403031485522,-40.235676670782894,-45.421131310764046,-48.904201859146056,-55.27915627667264,-58.76869819931082,-60.321851398195975,-66.84200075195184,-73.43454647124491,-74.72016307645036,-76.52446628621489,-79.67603410144045,-79.1542584713401,-78.69960455130395,-81.40195557632862,-81.37683847382004,-79.60515082139112,-83.16559406410168,-87.52446968730419,-85.87958930176143,-82.51420583394639,-78.82885765908743,-70.79025913898396,-63.19914259219969,-59.98206506798098,-54.12382785348504,-45.73007688458357,-43.74397704917161,-45.70081568374074,-44.44739550048035,-42.36016983664459,-39.05664997835374,-30.51006173235273,-24.03742978987248,-26.104285458444313,-29.41246160699069,-30.396490211989317,-33.04958631387154,-33.60551871786458,-28.788433802611955,-25.082729517442125,-22.876052210046407,-15.879162845682451,-7.651166210240622,-3.588352875772734,-0.11388645404576558,2.1159154833176963,-1.8727954913960636,-6.121409389702525,-3.2295060522428325,2.682046226212354,8.257220393648696,14.412089315742286,15.943413086989231,10.735062834017146,7.157887541205762,7.805846128354506,7.589553695976825,8.519256838884242,13.25987140423685,16.5702570247028,17.994084180104466,21.730679788281915,23.524671152454346,20.776674937204028,21.186344309981727,25.642145960257754,26.684710474491236,25.908413157523345,27.649257982825233,28.028468863217697,27.96468386621539,33.31151083510255,38.64724380690293,37.53215811088718,35.87526170835652,36.45109877921129,34.43644918407146,32.34291836064747,33.69366282652628,33.11924920824488,30.633321186530303,33.08844107707767,37.09138206486666,36.28677100987192,34.550802892664194,33.185941175871235,28.124630604319215,24.613186360368847,28.239209248753625,31.96757805905274,31.659970420554693,31.797351111066703,30.219392374543112,24.390507822575685,21.774487875752435,24.144644778844782,25.44214401517278,27.391464220061067,31.49613887870226,30.571519641054486,24.198931936407043,19.77491067596874,17.628640948951784,16.729973983308874,21.302754461870215,27.44685087262748,26.150110367378176,20.948328724664016,18.618234762782503,16.208388897993842,13.965871210870855,16.61667815223599,18.859225571257184,15.489594181427497,12.936303648039303,13.357951810015095,11.382587334289369,9.467854768690726,11.333003197458615,11.586954382858977,9.059246329969351,9.11065884908999,9.180462289175276,5.75285740429806,4.2215043893365785,4.960300273806985,1.8976036873173387,-2.0804790688994297,-2.8373876084585463,-4.840426292612941,-7.2717288759249135,-4.982225823387669,-3.448403845060989,-7.180480053409557,-8.966934792070898,-6.831074010907262,-6.041644298315366,-3.630144750394262,2.2716165391855263,3.3407765493282446,-0.8699814667607515,-2.2102890961137502,-2.234745296937846,-4.4915858166598825,-4.3124337288721275,-2.795215767575441,-5.759816716345222,-8.5188978879974,-6.500179359584195,-5.531324801820321,-6.656170596945849,-5.027471679213278,-3.3967699628400627,-4.172717336745371,-2.873937751453441,-1.3616671434998564,-4.759475565783543,-7.549945924642319,-5.059104851892964,-3.526013666807205,-4.970951508255017,-5.402663782964366,-7.750139248187288,-13.162313864511862,-14.25123823372285,-11.50300617266349,-12.413870976934447,-14.329032745079063,-13.42965523317434,-15.760021441586026,-21.91621065331291,-25.349491319307095,-27.508421520159477,-29.71331243450641,-25.080723621296116,-14.759787935808598,-7.290952771826575,-1.4346327613724088,5.772294770169289,9.121761166661047,8.773374007733235,10.603946153104276,11.870683825904248,9.538208280375821,9.51444931946081,11.233429714615642,6.782711346216722,-1.3174598821197145,-7.158073687019872,-13.295504849428536,-18.17811868032763,-16.649098645494362,-14.554765486617374,-17.115650179920035,-17.796205140175594,-14.94582377477227,-14.58747914343994,-15.456765676238254,-15.927153866512093,-21.08927530265343,-27.04609296754539,-24.209021841939276,-17.280333411834892,-14.278103381006176,-12.230414834673276,-11.607826493346895,-16.62634043285516,-20.81480445684298,-19.457284549699402,-19.49004961466051,-21.593750435239773,-19.617763425046235,-17.452108546540806,-19.757125152299864,-20.466306850655883,-17.292655523806744,-14.785828552950816,-10.922015488934282,-4.791829479583683,-4.1745541830352275,-8.038368914601136,-7.063324408708493,-3.8400860455323356,-4.3575343878484345,-4.960111005114811,-5.651362481968258,-9.931202439459781,-11.553688014042699,-6.903900270399598,-3.914046258734599,-4.3989929488335555,-3.1751731380724726,-3.5761151799976187,-8.453270166437546,-10.24293575790914,-6.8015848169244855,-4.154378368144924,-1.7105998598721917,0.9750976398501481,-2.0591423572871683,-6.9687524357329105,-3.9267551759527755,2.9579640802572644,5.87331441347558,7.588036094727934,8.857549647778532,6.294665114898814,4.767708332004853,7.627669177997079,7.872988583379059,5.044783041399116,6.649748603884788,10.285952987943475,10.40529550246707,10.895817994396285,12.80310170149756,11.475663259943135,9.934500100061065,11.320647638911343,9.95532662427367,6.1808211435678135,6.871539739718741,9.751321757912145,10.852204239844928,13.495372348067196,16.214888061557645,14.369920143980366,12.895384615209203,15.321849339018025,14.839709720258018,10.15442955183297,6.697088301311334,2.6633661399093578,-2.787135029352921,-3.162804426520431,-0.25397870155505264,-1.6852516924077436,-3.9258715875821575,-2.0249761581579295,-1.2912557034962426,-2.8124802469386125,-0.6635389853512453,3.138101518180453,4.659086904911898,7.997516963515682,12.242171064168089,10.28242423132405,5.433035000273365,4.089539379939739,2.488500208516904,-0.4787472837441763,-0.13237545017114227,0.41229691632408494,-2.51016821909296,-4.496488774068082,-5.663122619034522,-9.889826620969066,-12.50849170440386,-10.908022428007685,-12.132538402797175,-16.55350441587742,-17.247949498000708,-14.483997743141387,-9.208498864576152,2.4860987070291585,15.89544715278212,21.532187671289073,21.743308013712635,22.42668556393764,22.761956503974712,26.070887670795575,37.568449608294266,50.2724480872987,56.334522870003624,59.97653199757881,63.5520810589496,64.47124989283306,67.9432007160564,76.39997419623309,81.53670976827327,83.04808742578945,87.3789870725609,89.54173331219067,84.03986652813516,76.65805587165974,69.56276288373662,59.98795709869168,52.7454651702897,49.21809182105207,40.01997395070839,23.79334308017072,8.656022595942368,-4.777068387835088,-18.043291285219805,-26.90960871731127,-33.326152512235346,-43.546539584086254,-53.623821221984755,-58.41529865504556,-62.45448000748468,-67.48186782040409,-70.2654273240556,-74.43846010818717,-82.42650032069155,-87.51731710861287,-88.40717678142592,-90.57640121620395,-91.92258309801926,-89.73759840305982,-89.85719008640963,-93.00541345326803,-93.10060424895936,-92.0456982310645,-93.22546504788298,-91.37044878052326,-86.33844522099629,-84.55204529413446,-82.42674801554338,-75.27643368747766,-69.76998000520987,-68.09464787275529,-64.51160667043678,-60.65046026841149,-58.975542758447794,-54.053217989835005,-46.85838428208724,-44.75504284317151,-44.726994455766246,-41.3959269990961,-39.05460616945965,-38.65542035380813,-35.54258934860333,-32.76757425800163,-33.49673607930163,-32.497256558283055,-29.207923690730265,-27.739910849206915,-24.323278914807396,-16.376971380186518,-10.754908702805341,-9.611090137756317,-8.083536963750324,-6.832928387744086,-6.4006420376271915,-1.4889770116326897,5.170101108012733,6.00236283283276,5.085158766495766,7.473613148084629,8.564923340943492,8.327178857204263,11.586501916139744,14.710111890765209,15.083720252412203,19.136727732383747,26.025853613502417,27.319979610994952,24.672319258561643,23.163002074238708,20.317541949694867,18.715420993018764,25.48158819308857,35.65382753466272,41.15902397910547,44.18842145684085,44.80145219141397,39.01374553185866,32.59111843994946,31.369196285842605,29.810456377064412,26.60893094947002,28.198681937176584,32.287780875324415,34.043148085811865,37.754503897630194,42.538825386292025,41.485503482813954,39.77476772961927,43.84591069069347,47.30353076984156,47.737100654244806,50.074512484645595,51.256689921023835,48.50156665883278,48.6847072342169,52.52036585776116,52.57210682793918,50.0488669048115,49.241465348193024,47.25548178150831,45.964981743281314,51.1236342295915,56.99604291287481,55.993482133634764,51.89625578296592,48.22025055864672,44.03232759251538,43.35952854792838,47.06499496658357,46.631372323087845,41.420451958344074,40.06738670347593,41.57259743646421,40.938201316292165,41.641564112914516,43.28690129685681,40.53033566421656,37.9956431110548,40.088896488074276,39.768875290617544,35.400273510251054,33.38396437021507,31.77765456416664,27.47101911314587,25.77813345944476,26.28809643868097,22.58281059526952,17.942661658913714,17.31302619715153,16.27690979566279,14.207738656149932,15.128042208312426,13.989426880235595,7.433694593690742,3.674103736542705,4.889131677770323,4.71213705086531,4.449619778515951,6.1671235344927595,4.502623202758283,1.3944211634285353,3.843071567118757,6.896443277387945,4.770371431653062,3.0999370203214283,3.343527019339465,0.8240380425390434,-0.544103521039573,3.2937948708574076,7.066009343198939,10.001105304654597,16.36895576433047,20.817586036564244,18.017890296699523,14.571202139639498,13.129456008827558,8.72700307503927,4.3732350405024025,4.358500664287047,4.650643769331138,5.069787704876392,8.561770838785094,8.74605129039689,1.2728776336444412,-5.900198609157949,-8.926976630631884,-12.401909757232023,-15.175641253270172,-16.098529831477514,-20.893097353389354,-26.785675780854564,-25.52926285561939,-22.163293025675795,-23.346366778834252,-24.70329417911308,-26.57607327590217,-33.36246820244786,-38.46472879521689,-38.09611358101566,-41.10650076139622,-48.507800354290794,-51.98225202067329,-52.31085494514868,-52.16990797179837,-47.55158977251039,-42.77315177908403,-46.808730754611986,-54.11581083511424,-56.390826552918845,-57.48778093864291,-59.13151826812299,-57.86295828455442,-57.85641638424784,-61.703087026278325,-62.42856342435631,-59.58629793958176,-59.55259477732838,-59.46892805521862,-55.68048192685019,-53.69130045619842,-53.72552787049315,-50.27550483211881,-46.15550364054325,-43.596309059228275,-36.91934542346786,-27.90260627643339,-24.12487050563466,-22.695217540054536,-19.525159841290566,-19.4372256362269,-21.457101375254855,-19.222192081795008,-16.97449452297728,-19.017755373422954,-19.07643133085758,-16.70330132739852,-17.454365802417623,-17.135439996240788,-12.356286598642182,-10.27825415558137,-12.378213533092215,-13.006933203174661,-13.427887288923674,-14.434098083509571,-10.056990914112047,-2.3650899620417905,0.5677256860960775,1.4994465147118183,5.394716005227768,8.286245396217032,9.708453513473987,12.574980040673841,11.388255122901487,4.3529664890046815,1.2050217932113056,4.584222174366344,7.987006619238285,11.318240242127203,14.431807214533217,11.186824838216863,4.761166534927114,4.387623983272085,7.324298836869708,7.691875194463112,7.846041088549951,6.947185451974311,2.0250480961290367,-0.37161781086119483,3.9601441356092404,7.7316660717996175,8.029569558375346,9.485832533249368,10.654965127280809,9.397453323330403,10.888225013097346,14.799996420460314,14.403636815505703,12.202351075836631,13.701343994009653,15.389063499790577,16.60075445070678,21.58445607663417,25.321673449079423,22.712868355980778,19.73276695901054,18.808917285629352,16.069882131644246,14.498372924261998,16.55264056757179,16.291864262606666,14.210121071430372,17.342324558503982,22.319643310623974,23.96999638645046,26.652000321213066,29.047622157795292,24.42964945058934,17.486971498253247,14.032209555665805,10.20496023166874,7.59733764304624,11.997886965785218,17.06296208093329,16.09554477935163,14.414692206390441,13.751910696494708,10.231043077487968,8.513903775035633,12.010988949836623,13.628711138266354,12.308786180747687,13.532286057493756,13.177985607836067,7.121619874021299,2.214752563758113,1.5477608477741989,1.8425869940534882,5.907501958703924,13.871133360174486,16.44854990521788,12.902878265616472,11.752329919234514,12.696245731216496,12.557494850075491,14.769114003832737,17.42345183461097,15.199496195781593,12.935042252227793,14.404783079074665,13.228210758206277,8.955794956768063,7.97930734595824,8.007308185146305,5.561982928383038,5.395184298272104,6.625951422174872,3.331172212619724,0.8616244642217372,4.766369282398011,7.665244034963339,6.455635131232178,5.746341289642341,1.8428686831280596,-7.225977675888831,-11.349784565735357,-7.390814248201638,-2.123885608187861,5.581875301102474,17.249146922136187,24.71495501741174,27.664038952569378,35.191090835616976,46.25269767546971,56.021454247282826,67.58913995650289,78.7735973120342,82.66994865485269,83.31458703554154,85.0169818145333,81.95344543097184,74.28423432579817,68.89876891107593,63.47441509497324,53.89793281277393,43.97132774215842,33.443251242694764,19.194466493389765,7.897416675293799,3.206786166099647,-3.47268440427508,-14.260530554555999,-23.150069821560162,-31.777731846567203,-41.569052303691436,-46.825914991513685,-49.888270933654525,-58.27095561080547,-68.08999547700077,-74.44167276864778,-81.7866464474611,-88.9670596476984,-90.21574831247216,-90.93398849612963,-95.6939394997231,-97.6273141436532,-96.44039614061532,-99.1086297717336,-102.16935042324931,-100.09356373197012,-96.09986171845472,-88.96062243449524,-75.2450959085028,-64.5464364310022,-64.87110886193585,-68.94335239952663,-71.91318968142147,-75.98563152410293,-76.56808315245624,-71.03709701816442,-67.19833741575962,-66.12908836959272,-62.076707473463046,-58.6266373571904,-58.124862295664414,-53.54898965927413,-45.80834867832642,-41.438098048778,-36.42861612710579,-27.0672122254344,-18.939725945350776,-12.784809858281637,-5.2751830391321155,-0.955250224863394,-2.174058533955847,-2.594839911164293,-2.3197189435663654,-6.158313618516598,-8.589285189322988,-4.579356741567339,-0.6255510783828273,0.6712440360817444,3.4749175617023713,5.397744355968705,5.278304658274362,9.60172032595063,16.17644776809263,16.5857803847802,15.149513972305073,19.066843011922302,24.417554205826864,29.239246155309925,36.04858831262592,39.17992697774364,35.24458382558059,32.84446034134976,34.510758738923336,34.197401583274484,34.965119453697554,40.23564874976642,42.05198222249553,38.291875039978216,35.08063338047123,30.786332051025695,24.628839154804695,23.897220307335548,26.726105443253143,24.169920558169025,19.268234589306896,19.214322228684917,22.46642815373032,28.238449221526732,37.17570044354635,41.62796560700889,37.433227160406474,33.98721546805793,37.05323736914327,42.23825464398572,48.26834903314411,53.2713149527495,49.58197053536996,39.08104342939237,32.28804286729162,29.672035221439607,27.28156419336087,27.913055035305092,29.624968655375685,26.31855467702304,22.784745363520994,24.013719153040487,23.82745650416837,21.57681942020317,23.125655920954735,24.768685785374252,23.77943958876939,27.063756200894446,33.4715287862997,35.11680083398532,34.36476590688484,34.22267307505329,29.967786978779504,24.302355740835473,24.63500468456325,26.447783225232673,23.752287719925143,20.488752118333867,16.938378597668738,9.68588663580887,4.862715762057626,7.062051517160311,9.787937374037439,10.76223106427156,13.425996039415166,14.431892757460027,12.131471894423157,12.956714076058098,16.55300702515246,16.468724487658704,14.89181327736731,15.049428521681524,12.629990774449844,8.687405046683777,8.692113243694203,8.418155607941099,3.699631917427674,0.3930082999732413,0.008787559154262437,-2.1659077886631106,-3.4513708744740628,-1.6782952281805474,-3.8587725509099093,-10.217188791059366,-12.898483848719625,-12.920462531895515,-13.16627809825704,-8.897956869405125,-1.5256657407119398,1.2026304468479116,0.039693214577470215,-1.5403333320819956,-5.3791677503293736,-7.616048335120105,-1.1571207745362562,8.321917927020458,11.778289606013246,10.685042623346682,6.483644732623723,-1.6253375756245365,-7.3920812812609125,-8.609008612853895,-13.050392149023542,-19.758062700238987,-20.353781370397854,-17.901369691053127,-17.83992297935973,-16.81159160017268,-15.815492838173567,-18.796501007485872,-19.905596707999564,-16.53205338211888,-17.506420107643777,-24.145562310002575,-28.61944411796275,-30.39921467179976,-30.860798448976112,-25.699605014572036,-17.731311479980732,-15.313137398289594,-15.817105621888043,-13.966497718386934,-13.161816794427054,-12.593307749553722,-7.845111949324567,-4.674701662747389,-7.19708270266003,-7.847126887562268,-4.527658659752808,-2.751142010442967,-0.5779636031583355,2.6157288658825766,-0.9295569611635883,-9.208029167842678,-12.502370272953812,-12.269822426683618,-12.095930798466487,-8.245241264501164,-4.179349818684647,-7.829365430377807,-14.913136510650702,-19.407019543263075,-24.57848365521654,-28.966344082641402,-27.02479192845076,-23.71446876040327,-23.74961891177782,-21.578600341604528,-16.814163460098342,-15.113199583506242,-13.751645069719805,-10.146708048445642,-9.650527640940577,-11.168723605867676,-8.902276272864695,-6.355093373100324,-6.219581767323565,-2.7262331388453473,3.2740742077330744,5.236180209581878,5.61867659479421,6.860969928138052,3.6375405913213115,-1.9322648102398587,-3.020028425227458,-4.079803328697431,-8.642056882907887,-9.485737662452355,-6.308502496682956,-5.748021765557687,-4.954299576317765,-1.3200410190295537,-1.163906399278363,-3.6282505375506005,-2.378720953148828,-1.4721041164878708,-4.322151389677327,-4.177305938150212,-0.5102637934980547,0.44290800454852486,0.9739872183011422,3.7392501311614286,3.7970319185966495,2.364694831637322,4.6557860532302024,5.688034922879299,0.9438541514765,-3.766593916902245,-6.395675157846245,-10.054664664559853,-10.94660407928919,-7.298423069347395,-6.380199900514119,-9.090687357068546,-9.20700936256323,-7.797089501222221,-6.81312171672387,-1.7628122498497303,5.160334092678625,6.521711888912808,4.89914604840715,4.656479393989332,2.4827112474964745,-0.09943197700241468,2.316069135646933,5.565158339391081,5.433516802638293,6.3954177238805,7.541473913638232,2.8675769999659146,-3.543425892696865,-5.860939558885745,-7.345372532418306,-7.768136777487572,-3.178066647534961,0.06731020650667319,-3.7586958803873185,-7.482248851382756,-6.936300208139565,-5.943862140130019,-2.7951359477402593,3.364375896734632,5.208969163893703,2.8412687617100456,4.066423800616545,7.185187984195323,8.104593114202277,10.49096617980387,12.319850317811042,7.283450509831887,0.5035223231766752,-1.6078582650698041,-2.446444443669935,-2.0606838302548782,2.9930103287518466,6.918702422790256,5.526786616294906,4.905631329462824,5.842479457437131,3.719309716694436,2.450342831026759,5.59990440763978,7.9821251296013545,8.744706270042517,11.367949235367004,12.531822922549537,11.957892474656564,17.21780850765575,26.070158923577615,28.18913975046721,23.65729236741809,17.485126433877113,10.605465082459624,9.581501405954768,20.649653257869407,34.27019820556821,41.17674800267244,47.29582037073088,55.863768103048336,62.24430906966978,67.92027075472525,73.39630761451134,73.07473104162068,70.84066034980253,74.44876101278392,78.19785735596099,74.85957126761674,67.52713466201058,57.45396960965093,43.264359828895394,30.49650752716335,21.236385502299683,9.407330147175934,-3.4703976346405954,-11.290306280829808,-18.415734455792485,-29.212311509277484,-38.4576472402181,-45.54143714027371,-54.19663554165587,-58.580570863003025,-54.88732477315943,-52.03882024529759,-53.8519725239172,-55.48972259941504,-58.82552019019976,-64.79828043214198,-65.38247808283316,-60.907323530769446,-60.45086948271313,-62.956935128586316,-63.57636378510998,-65.10031618276615,-66.4358728317329,-62.70838130917804,-58.53809472719306,-58.316614859676605,-56.430223685341076,-51.957792392127146,-50.2321811974993,-48.738171401056604,-45.5471786236336,-46.666557525615886,-49.82397496665453,-47.01903532209268,-42.02292119450423,-40.019530638552474,-37.2155628108778,-34.887968698664196,-37.275253054036526,-37.706497597229486,-31.98948526764508,-27.73444410864819,-26.748673002014115,-24.10655395811845,-22.48056557929837,-23.62157032937863,-20.9179314049551,-14.679137883150009,-11.536761097777951,-8.857446431238724,-3.8219613352773827,-1.9836826853419998,-2.1837024269905667,1.4923131124220643,4.478161422169993,2.6813381354582835,2.5708244303871632,6.29204108137098,9.940942586840572,16.047714638682177,24.297278257391568,25.068420341388865,18.58386024087917,15.685336270036403,17.660882139703926,20.82523086911615,27.00909265488138,32.23331189896098,29.39499936090087,24.661112324635923,25.585320194823158,26.995801808819113,26.325078828252906,27.65069214698624,27.53609154994529,23.42854869014925,22.542138785952954,25.208623257723985,24.795690660020703,24.488360743656926,27.751868204441326,28.745403527343328,27.618778894026836,29.73786674679901,31.385780011350654,29.62150431003218,30.081182813308192,32.38979519053385,31.511478800454505,31.387232276571183,34.323980804145364,32.9582136651752,26.985845789117725,23.999145597963956,23.368051028836426,22.69472386181625,25.981445546825473,30.198420243111865,28.344912970737724,25.79292703736868,27.97093857506679,28.76578143494435,27.10180036073265,28.452704130959006,29.898634510285902,28.45779009731532,28.783581892845923,28.99157454202037,23.65386413741378,18.86615456936334,20.200808183188656,21.628785854814836,20.62339630547133,20.45609095603841,18.021737321996493,12.984219577678589,13.560884134086795,19.354960565688753,22.656304263411315,24.453857139673417,26.35956592992175,23.549324059577817,18.93441941501677,19.962268790472248,22.561892313224057,21.601621853188092,21.070807424741567,20.22782530670501,14.846543396502765,10.919786957531857,12.64381116622851,12.676412288765105,9.276643517802086,7.373744781115377,3.930820988873732,-1.8770509215850375,-2.034379474076023,2.825714377891343,4.972850648190529,5.1272166303930575,4.663711654606157,-0.7705878022536108,-7.781510373290078,-8.170814153661684,-5.243838026910103,-4.875040973871424,-3.6092918295225873,-1.765790443893581,-4.349648814081747,-5.303617378165929,2.1143667082740416,11.966472145715487,21.258654304155755,32.48470251853018,39.27645567481704,38.80510782101729,41.13733213287262,48.199261728725375,51.88729668565072,52.48694692066704,51.99199690621727,46.20805033536416,38.664714966761714,36.49718343712623,34.00822920429565,25.338777937113033,16.464406054454557,8.919068292414876,-2.4781534101278235,-14.60517987625158,-23.767671277796254,-33.669898152905134,-41.604650337777734,-41.454174396271036,-38.899449073515676,-40.42933184791795,-42.40139415160674,-44.219864093759675,-49.33546402865266,-53.11519921011087,-52.17056183045452,-51.97508766314127,-52.40466760691691,-49.194549515847015,-47.937123306263324,-52.596774985660424,-55.75424901107825,-55.08864007922542,-55.2771936139483,-54.07216258822061,-50.32111315659343,-50.24205665046694,-52.49674613898095,-50.61338307720614,-48.09519940185919,-48.7228013590364,-47.5742170994363,-45.26960564074717,-47.29364822633654,-50.07997392639106,-50.58281297919019,-52.95395460502543,-54.02988782244538,-47.84260569180526,-40.3739194954875,-37.231599463424224,-34.48117471144962,-32.70603654289424,-35.39744541718069,-36.29370388574563,-31.744120535458592,-29.58635054013284,-31.163521852168152,-30.233333359008412,-29.64929497037026,-32.07786351130292,-30.718620240636966,-26.16379895184619,-25.099648189846263,-23.65440405909938,-19.090611543104565,-18.951443670540584,-22.47935584864917,-21.614417859937397,-19.1721821824152,-19.007550512109077,-16.475474292672104,-13.109784530135906,-13.869413238288665,-13.318524698081031,-8.1710750820399,-5.2010778984438,-4.721272729577576,-1.354975825912879,1.4387616717199119,0.40810678681681745,0.5885838351480015,1.7036024974054653,-0.7288367863851555,-2.2197105920356393,0.24589413876201638,-0.009130812134464317,-2.932776834895518,-1.505774801172159,1.6860888314188975,2.437511327009705,5.092304762372683,8.445143277357467,5.995339241737094,1.7573013293699793,0.9642240861682312,-0.6483247821051885,-2.796582011284337,-0.4291549187319139,1.9151505566200195,0.6653857000591294,2.6932965872893417,8.716959805188072,12.236877961670013,14.271111744155116,16.16773957124717,13.00780426436473,7.587311537039202,8.151366417652383,11.524458614851536,12.200850236324117,14.618750623183157,18.987686059588537,19.04023569910928,17.333325981571182,17.318818688044264,13.96812049107218,8.929338534962064,9.54442366205909,12.342419842622489,12.587707559276557,14.245757822964144,16.379505557174962,14.657896539414388,14.754980669128972,20.112596801023834,22.950305627232595,21.751716106000664,21.956553073615307,21.1083819029769,18.456693927718437,21.01673956241558,25.948097040790405,24.6486875674948,21.48529942421804,21.95537622153715,20.930890510018514,18.49839206588124,20.079422288249795,21.34325987068059,18.995543741140846,19.500022057765115,22.03533775209812,19.859193907370084,17.29876578371305,19.24390784898961,20.526661852543654,20.870677291117147,24.985824397211534,28.595900889936416,28.239720683556502,29.26989775656981,30.71826971761128,26.805324081162418,22.071264730890917,21.1351763339741,19.646065928010476,18.480989814647135,21.66405475107858,23.324044910891793,20.078962883578598,18.654799473109403,19.339899591094134,17.593034288883388,17.9615980819017,22.393132327650335,23.545312953704556,21.773246921643967,22.605415200829515,22.262118808484956,19.024226703301146,19.724746660313784,22.933394541301197,21.582963403875535,18.740209471470465,17.46081195591861,13.051853937543804,8.270472866007825,10.005984825511371,13.175618518215947,12.000498282228689,10.324890648468397,8.03340832818265,2.926905661352973,3.4360947955369814,14.022634703415815,25.387213079178164,34.02148619240949,44.306512294449114,53.34623054255013,59.442591061036495,67.92027688063968,75.47218311318854,74.61426401199154,70.47839083691585,69.02912638409592,65.4170069325274,58.48624907187715,52.74802555712968,45.84765362928703,36.677300309790525,31.580455163487116,29.192965042927167,21.86700780595197,11.822680255151376,3.1739399134840003,-7.416544823546328,-17.875680618035382,-22.326606863272218,-24.795881310721143,-29.2480795155117,-31.828577769538654,-34.696604038151385,-42.76179661918305,-49.330663898312515,-49.47285097689946,-49.76257422588149,-51.36883143129682,-50.78735537562283,-52.84540851753985,-58.91949430813935,-61.61476564679001,-61.83762651610444,-65.40933919519674,-67.46459837176468,-63.91287366168764,-61.21839433511334,-61.33234384322066,-60.900365209476085,-63.69651285330318,-70.41380581935013,-72.15475105803023,-68.66362681049942,-67.72336874514593,-67.29706230307039,-63.91895161890024,-62.35626189197897,-61.496919124421154,-55.64938778287372,-49.791475578017454,-49.210007386297875,-48.19553287976273,-44.90726708124511,-43.446136898571545,-40.10891823722753,