23.030496187808424,20.51666111732468,37.77408243340838,9.0906833228158,-25.237910112917906,-7.153557572253424,0.23998970910693274,-21.810726828294385,-7.763449691055191,12.621689781579626,-9.35996077028166,-10.483675843168161,23.15303512177958,20.017698590549863,5.697275918649071,28.987369234919687,28.6826125342741,-5.788397115023331,0.9297559723516713,23.113226394729487,7.365837978658297,11.502761629812667,47.84085409197599,45.10447019270302,30.38423391249488,53.4743004447806,53.18243528174483,20.247860414303467,30.4516914691674,55.65378039738733,39.60018879741787,38.06510640085712,63.556220878214546,47.55216733508093,21.805151307615912,42.07014904369423,47.41110790766181,20.947042195877305,32.7931507645602,55.468883172783464,37.767157086349926,41.98729937299644,79.75326421393743,73.29596226453052,48.42538278799717,63.11674830454158,63.57766578952267,41.15959851755549,67.26088876673123,103.90249944644994,89.02364174166041,85.17173593972757,110.65503552344506,95.34462250897161,69.44161997326667,87.72185597135409,92.34307088081827,73.7731915111437,103.17028734782934,144.1345077897435,132.26718210292083,122.8985134013138,135.5330279851354,108.97893436899741,80.11011282533406,106.11717014161314,121.20878723982479,101.2134047311788,115.08380699233206,137.84570899794045,116.84144030463236,114.4316477218019,146.88609989248408,137.39995235378495,110.97403285775934,129.42764993686473,136.73602032583665,110.88288217118904,119.49517931995996,137.62830455033503,112.93395407685381,110.0008254291385,149.16458863143006,152.52441558626717,136.00833952520685,153.10306598635597,148.90344103585448,110.91209769543677,117.65989871012013,147.1974902522257,136.25308761948003,133.69311197665436,155.5385293079756,133.4097430794245,97.70952976304176,112.39252406697645,120.80652518911542,96.70305309697943,107.33857833982036,132.23556756404693,115.70213954548453,112.49144899130872,141.32907295942584,130.53650770924452,102.24846827374412,115.58751155606046,117.25789231964438,86.575249984608,90.93271723053685,107.87746117182299,82.00685914133916,67.89166480059572,86.54631435892404,71.37994067959576,42.921544165490715,54.53762737283448,51.869757922194225,15.703281799801049,16.00544484932785,33.41316500420626,11.836772256917511,3.1324700275323636,25.71426518318788,10.60892318946977,-19.571792568683406,-7.084676781568096,-5.692833242107744,-35.34943976617478,-26.200869583202735,0.509589956462893,-14.912525823901131,-23.311183095297494,-4.886587351521877,-24.633570672482303,-57.19309772320362,-43.0131929194486,-36.63058600303751,-62.93879084688209,-56.414723254644386,-38.54648567935094,-63.58781435116519,-74.47836535991607,-51.00372108707917,-63.77982629950177,-91.74206097132235,-79.44889249303263,-81.12864881826746,-112.70416982691391,-101.99053571309597,-74.87133984161811,-94.06067704114233,-105.12390648976519,-85.9281190642879,-104.88929232953934,-134.5548816274609,-113.46482543353711,-101.61691018325315,-124.40648048762966,-111.5104774297638,-88.4511423511408,-115.31888014070934,-127.92615897407151,-97.5565526126573,-98.43717435516271,-113.86563600278308,-89.4897623402619,-86.20935105244726,-122.84609603411232,-118.10829245702317,-89.74411678725363,-100.73314126656685,-99.75010699753821,-68.44684179528342,-79.94885223043651,-109.16938786761065,-91.1157470809537,-79.2568165184972,-97.29910041146543,-77.78618054162044,-46.84617090067363,-65.66373226709463,-75.48212859349657,-48.237775569876526,-52.652797523891444,-70.59857199518274,-46.244471660643384,-34.71333769817406,-56.04990992404033,-36.955338947712576,0.5337858931462343,-9.400886082384078,-17.136689086782766,2.287935245403208,-16.2465913260596,-47.540310747614825,-29.38473702229097,-17.33412772764176,-36.25572426533218,-15.232952914696673,23.588547878399517,14.99479444493009,10.089520102103565,34.35192209265293,20.58250139245321,-9.081496355954444,7.443248977170452,17.625700408579988,-1.3249647553826112,21.801474425373492,63.552173329974195,54.28073159335247,42.02360991049262,56.34251029616374,36.70916048238166,7.091352187359082,26.418719639604387,35.66198426853779,5.816241500747438,9.925915070077345,33.980850353838065,16.92273031211575,9.526103776884007,37.46268841122495,31.898392030574776,10.196587628306604,32.58896241842897,45.80331484725435,22.3114003549408,33.493616713301705,63.885332680254336,49.342170767696736,39.63181975440108,62.81345583848435,49.25335018566757,15.00959489644847,25.647433311316384,35.309535859521326,16.861693920074853,35.30010568457558,69.45646769735299,52.141691983652194,32.486429540186776,45.249424443021304,30.867148028564316,5.984079065721138,27.469653639633034,41.59066818030154,18.235788709323174,25.160171489604984,49.74725914720045,32.31048306629731,20.299577262410367,39.28496153902665,22.247004681706855,-11.965006863610071,2.4419714683244926,16.090333609763714,-3.473612493554711,7.398318073711397,30.686655787695955,4.683473509879738,-16.119019510286524,1.8207437228852275,-8.34042436580617,-31.79150918715674,-8.258864296051343,6.754505693586173,-19.488659558081615,-16.765446091273787,3.2799917869720403,-18.306722078299472,-27.88041042275345,2.664576484003714,-1.5462308619458813,-30.492963477477215,-20.561761043855693,-17.56319882012558,-46.610538486354855,-37.27636508315886,-7.115805271524585,-22.77142093563419,-34.66607356814438,-13.18372377671891,-28.27271923870208,-64.03242750547504,-54.270349479378176,-47.41348653563782,-71.14139457466135,-56.842777201369586,-26.496009021001313,-47.680480583668505,-64.62809361920857,-42.80752183431494,-52.23062009306425,-78.16737753115655,-56.004484001138614,-36.85706813981493,-50.96286325340186,-29.36727067980977,8.732117353172843,-5.609720815260802,-21.37747466783723,-3.543817720762597,-18.639049687082295,-52.131829804454014,-39.57370540055424,-29.58454601180823,-51.28422723249991,-34.880035457958435,3.2681896966099657,-6.312574965067997,-17.40204834755999,3.2643984494092475,-8.32406973247168,-34.78190483653135,-10.353795361984501,12.58896868758197,-3.6003805017596004,7.690582692051448,36.55662766257061,21.55895708170746,11.619118643024862,36.81190513063549,26.910791364062085,-5.301563515062806,8.204348762588532,22.912010719279426,4.618930037840469,16.453663921272458,46.61392525809819,34.45816172331894,27.865640191709204,55.77624839979954,46.58183201471601,11.453358536028409,21.448244689658797,36.90506349463227,23.65709299553891,40.463087947019,69.6278797593254,47.24173475525315,25.616203470822796,42.891432767676974,32.4387895949928,2.6414911220903736,17.79909407814572,32.46110844961865,10.544741465254024,16.004470046828256,40.94310606784908,25.38179147893161,17.704476757275216,50.742172158856576,52.15080841405065,24.76927889050534,33.04457871798422,39.072602285742065,14.96550004657906,25.876122140746062,57.920979020640765,42.85537381687867,23.8698994409813,36.997694259964014,20.898351557461215,-12.216744013188551,2.3263703363002826,19.116756952844643,1.9143556067632979,13.730506492500332,44.427418135029775,29.19279076838339,13.854806183152771,35.263253839042925,25.63291820335514,-8.790303434035055,-0.3889402269088329,8.827203612876897,-14.576941806957475,-1.130395059696916,38.56249114049462,31.710091837368147,19.85620234192338,38.07200785266359,19.915018608917286,-20.780528345722928,-10.41675122835536,7.7824204723176855,-7.443982746879261,3.4165079790910893,27.53842484502343,-0.22572165791490129,-28.645543152111284,-15.701652783922318,-26.011919980767,-52.54095151111158,-32.92729153775393,-14.187603402863456,-32.19938003106595,-21.69130082280362,7.499913505142251,-10.732443899810624,-30.226083031949887,-12.525282935718181,-23.082285613280213,-52.78897731060752,-35.40523408204286,-19.66283518446862,-43.94114429148317,-38.822791973338994,-11.957832899600927,-31.505100215607673,-50.466812329910944,-29.277451603725485,-35.648458905063954,-62.3686895512676,-42.610944912080285,-24.047192527904613,-45.495546142862295,-37.896877336218346,-7.442643490599906,-22.264227396888497,-37.896247616483194,-15.255342763594358,-21.50301685871181,-51.47599619330367,-36.87311718319914,-18.94248229127807,-35.058100036962976,-20.623648404394274,14.220809345156152,-0.7759095292199465,-19.885183043246386,0.9900499818642903,-1.9482809798593754,-25.346911174301162,-5.861369069305004,10.894766011738065,-12.678646967963752,-7.361593797162756,21.609858224611592,4.869224779405073,-13.66683758196909,7.910179865857666,3.684370179490295,-22.542934273367543,-3.3253989310134404,17.759782443873487,-1.3679820801850653,3.141234295020463,27.297927480190378,6.409671026554468,-13.077832970747764,13.399944650390587,20.18148528488163,3.305024161678908,23.189109556542032,38.38737950112318,11.29021542919759,9.00042910140538,31.725190155779966,14.527285511539617,-2.856860828524978,19.204865083087068,17.03896565759135,-7.46938746526985,10.898276925946357,31.789317911939637,14.20970144488178,19.974291996527928,46.45610104079449,28.96861194907005,9.907218583838793,32.319051612548535,32.626123106061726,10.178521710368976,28.29277295703585,45.27451651594204,21.58713110928143,24.37687188438706,53.37255709761435,39.971742182784055,21.30962022348705,37.99301247121436,29.28285364674159,0.5927223069808001,17.609918378960153,35.72896768863092,11.066545598406792,8.929874452407807,31.751034381452424,15.119670749646598,-2.5413618110440135,17.602268401381963,11.703971889822729,-15.494157704836423,4.429581740164572,26.03453802468109,2.0302953286585588,-1.5982847668687965,19.41882360673449,3.162201558810535,-8.516650459500143,19.930505184180753,16.217424388798985,-17.784836868752542,-8.919876436816429,5.929575739208056,-14.755181810958796,-9.764425178097296,14.463083308700291,-9.879948890634425,-37.574190980574194,-21.296246840112868,-23.415206816200676,-44.704059070867935,-22.04339440310128,-0.42235967679105,-23.93526784646148,-25.134528296070783,-0.9200868451411832,-17.064927147658533,-33.12635260039676,-8.242068893745653,-10.700216913195757,-41.29776602910459,-30.27271858242218,-17.2088560021462,-43.4840263821527,-39.984708259702884,-7.823935534240538,-19.85997716659448,-37.577976366706395,-19.394054490149564,-31.707204798605844,-69.3148122016762,-56.48007357601694,-32.03735552628386,-43.72663975348613,-31.858438325935783,0.621063906633049,-13.723874703214832,-32.305540548796124,-9.96322081732546,-11.302563936929829,-38.97203715301353,-26.844534836276736,-10.395250668421372,-28.278891021670844,-18.120561393578473,16.616367458909867,5.524330735736328,-14.851042923543803,0.3928891562768566,-6.30798234335708,-30.71038104084092,-4.694700151268513,28.35166920245129,18.347484091056423,27.992844629049642,62.59621328021063,58.5933539992854,56.455302349843954,97.71411455104905,113.25406994476126,99.00868226727547,124.96417677316583,155.79685665270887,147.07310471468207,158.4158815442383,186.54943318214663,160.60270046947062,119.82779568253137,114.2989431482727,89.08047972081212,47.45544237450609,54.13198567212219,63.40983451297778,24.734203342123905,1.9876247434982224,5.754300673902079,-25.255150161602845,-54.67949937348492,-41.30758458152452,-51.1489550021884,-87.13359402049005,-77.79903721892113,-60.70902556912231,-87.07529655260498,-96.55909708300626,-82.07216825940914,-106.51784394944747,-130.9674860544783,-110.72290021011003,-110.41886027315533,-136.14635811976754,-120.84639468139308,-100.25362144960135,-120.67600223214717,-120.14259169418847,-91.97706282163941,-100.89681375078389,-111.4993404871335,-81.78492699961895,-76.88026606931943,-100.02457432983839,-79.05188965034193,-47.39220198808311,-53.61970082093038,-41.198385259679256,-10.29700499634567,-28.2384729433259,-52.980623349323935,-33.1183272870929,-32.2507222984441,-58.88038599244074,-44.85050358292128,-23.576050501483827,-40.731353880251405,-34.74075488483581,-1.9463944563062707,-11.409708387911131,-26.346975074826652,1.196729918457157,6.196394011704273,-20.822771896578896,-9.65519849322515,10.846736712974502,-3.8181086838423575,5.313191439692078,38.90097072683276,24.606557795199134,-0.9419476668931122,16.90833944306,19.747158542738028,-2.458021263410842,14.849172375696053,36.42360201646585,16.071884046432185,18.31787849527567,50.093905723072574,39.229026604885775,16.867271911005137,31.847060226517485,27.098534880766756,0.9904890469635763,22.472365541791596,51.78200269586235,35.481255143714556,33.334599055553355,53.81669818945657,32.993139054240565,8.981259303065496,30.171250280756936,32.37705826091257,6.2007921393774375,21.218792981348944,46.01657733385518,32.8763584018227,40.32342681819553,71.03602000421272,53.941014326862515,24.83200038408758,38.225282222429136,37.683643853086686,14.603355494609282,33.03650396255467,55.818055895476995,34.59727313631966,32.889325836215534,58.27692335697703,42.02185234876129,19.973547786468465,41.16779841096286,42.400010809745865,15.257315947939874,27.022142354515736,42.15428097171733,15.472691097710037,14.173333179739732,46.36699127172587,39.44719764586367,22.635812058078102,42.064170911587865,37.430328759211406,5.034918594207442,18.428639653013633,45.84116686201121,33.761388518189776,36.61931576496919,62.137409115598686,45.47511869467345,20.981428706216,38.03395287651895,35.68070754784029,3.875597535635869,12.717605403815588,33.7283360651415,17.07323238222015,17.502388220238885,40.75799192026435,21.112145564459585,-3.834309780179707,18.97784256079081,27.474990090909476,6.928649823724963,22.478590408406504,42.95940713751095,21.04353025644826,17.417483016599046,40.5497345656608,22.090379032019072,-4.8843246006801255,10.556703246554367,9.485728470349667,-17.518555544051196,-3.1326207070206813,19.997049108058185,0.5644847562012014,-4.255167982229846,16.05695895461068,-1.2192178292522051,-20.342872010414297,8.394701322302781,20.208928264769252,-2.8124486501647663,5.629551508799548,20.26278068179515,-4.033764319841524,-7.261313580299925,19.979828769934652,7.087632609908424,-16.589395951960068,1.359633896872639,2.5366832091038027,-26.28931762748889,-17.505425733232507,1.3129467816006368,-17.994391152345575,-16.758601247357692,15.093353472586172,6.75819690705006,-15.517703697412674,0.15167295095601752,-0.651254483171746,-28.3708045671748,-14.853628188981599,10.03923521792533,-7.501340429150478,-11.289396319474076,10.503962277287773,-10.542199062588516,-43.26493303727213,-31.877734929642948,-31.658625073733425,-53.36725410558929,-30.441833873289283,1.375616979856538,-13.772920403952655,-16.58609808933058,6.723362443543003,-11.091934530906883,-37.99120410850331,-20.097663813121862,-16.405106854967464,-40.709189194289436,-26.59107118816099,-5.668702566166456,-28.07029819163546,-31.14500699229972,-0.9306759856376452,-8.19217401964655,-28.569751481372688,-12.834357551417376,-15.798870439548239,-45.65692764449018,-32.90804636744831,-7.136762203130857,-23.107545910340228,-25.957022348083242,-1.3136189267954936,-14.302224847391557,-36.31392925923922,-16.370581125229258,-12.876473787836053,-39.849309946114914,-29.05414529510367,-7.735668093381998,-27.42785886848179,-31.534356982231646,-7.669660337863129,-22.10325412290794,-44.08558078128343,-21.773135336559186,-15.046651750044132,-39.90958615158544,-28.83510410117977,-7.6014470313174805,-26.1995958967632,-26.761287548712325,2.402841218776974,-10.729395746481279,-39.07622351502211,-26.442164810628704,-26.527196630029096,-50.647973272670946,-30.290676750746034,1.7906679624607005,-12.648498395587161,-17.17681601609863,4.709556763188157,-11.32833102977836,-35.35366049909803,-16.522057106869518,-14.061996394162684,-40.28243459438974,-23.588879510310655,8.80943359316999,-0.775314954146948,-1.1458727199006606,21.36599332227594,2.378096768821429,-26.578144561847818,-10.553181466099396,-8.25696719815146,-35.45744769545144,-21.708555809346194,5.966472660194559,-8.530827062845383,-9.413058658584003,18.863486700858516,9.567264554191379,-8.682709665716906,14.94610771999495,17.805750340535067,-16.08197924197141,-12.315424502913942,8.068652308822012,-8.156503131848915,-6.963354343682036,24.206157644870622,14.54655875904065,-9.525906586272585,7.951706505378342,11.097675651591757,-15.681455735977927,-2.659334743766033,23.217553649522788,5.038904585012373,-1.8327369703355967,20.44452988080433,6.350492189942145,-16.160400408089032,6.375315311394013,14.27578712123676,-10.967474684417493,-0.030254896555170774,21.964507765680576,0.17213683308237826,-7.581760647778662,17.85929276649756,8.795244230115268,-10.20881849375898,12.396872236486002,17.64017248402814,-10.311868485782702,-0.4255643899544399,22.201166494991483,2.0190685441992553,-4.522838325434682,20.837238595344513,11.248929221415729,-7.265162950209769,16.869014980162632,23.213389803620927,-5.117933875926532,3.0972505876670846,23.93163575049508,3.786469346354135,-0.3474042928180059,27.342089909318204,17.15348140965015,-5.365798949135991,13.405644258348502,15.915475460871871,-13.380735043619142,-3.958368795149225,19.722893954636543,4.178336021393358,4.338334167945575,32.21349999297504,16.493942161000057,-14.485151414710117,-1.1972362868754942,2.61880397377103,-19.874328303193238,-2.288635067534532,26.061791572981644,8.936922512936537,3.870777765798256,28.49517107653523,14.537003150798006,-11.328637697826608,6.84892572615435,12.5854234668484,-12.943364450409014,-1.8647432362401064,22.617430370889384,7.710725200096326,8.738705690867558,40.31242407034855,30.766298098685407,3.1746274902352747,14.061847908079535,11.362442304867148,-19.041605083703715,-6.857648591748756,22.344936747682485,10.745813993315323,10.522669792296046,36.49085215493603,20.569837516976023,-9.479904259464565,5.166355901980461,11.007912333323173,-11.24491025901692,3.5804176454585104,29.18856623275013,9.831472591070288,2.484022143374965,28.451199475889638,19.471417530893184,-4.145663767300416,10.272494185317122,8.593456966265677,-23.93354865428197,-15.423359028702224,11.20456201704605,-2.209722682297162,-3.966150991036219,22.911509774558965,10.083662707168338,-17.53605451548203,-2.875529157480356,0.3317110922519033,-24.753849885326197,-9.04494824408527,21.14732942676291,6.355938943136733,1.650174875376717,28.893203341976214,20.780842982684277,-0.8500730308843503,17.72186134393007,19.517379669088925,-15.615200967267205,-15.861779547344367,2.884319030633801,-11.300141873948515,-5.897931467576551,32.986186395172396,29.69495544759993,1.346089471323081,7.009912625070752,1.9924961118954592,-27.407922828528672,-14.133374298499534,16.126084797039482,4.416771929300827,2.436373693439661,29.217765443400783,17.280585534618588,-10.099568286037908,5.028750005482836,10.48597547824145,-14.22268625920466,-4.340263335737661,15.509145405216243,-9.805382596169288,-22.26892180271597,2.098559097099068,-4.540893192868442,-22.517600125610738,2.6176276873446387,14.209780701967274,-11.489900167692333,-5.752845884102916,13.63029996573934,-7.666562155177354,-15.65277826371927,9.047349878400615,-4.451465325453876,-34.13271608875884,-17.674356496096014,-4.891409339762504,-19.532713607010706,0.3641722214831127,28.684009862210313,7.278688690703497,-7.269984302217838,11.281988526504367,-1.8010585125095009,-25.12775290885196,-3.2918461854734904,8.149995654264288,-14.164913449662361,-3.2521642320963533,19.94972422585156,-1.0731528443393046,-12.301037683062884,9.352677289157882,-1.458184439751232,-23.403447820564026,-2.05532604521067,6.439706931692417,-20.632519924426926,-12.870643445162939,12.378863525902002,-3.183031358392009,-9.598774221043714,14.341416753255439,1.9949855325867318,-23.949628129069975,-4.698327394315104,4.669986917551083,-20.695846693037588,-11.94798273875305,11.868701089425263,-7.669286703415352,-16.819773855824796,8.511616033136882,-0.11878756051943107,-23.42044357138924,-4.906788604450192,0.6451544291713989,-28.23889974414047,-19.34029758569948,9.165140777602698,-3.5902598708943234,-8.200487507770303,17.534031125608767,6.303520882390821,-21.273871447424867,-6.43850511776595,-0.8808618900611696,-25.778339134963304,-11.353368787501605,21.983047896928717,11.843781972999734,5.8472656426071286,26.595176691700928,11.291513438284042,-15.565104266405967,3.6044034408381176,12.155062365631165,-15.565892194944338,-9.708641269857369,14.362049756550924,-0.34960557993212404,-5.080207859648759,19.364466834445327,5.672225227075931,-22.065753648602282,-2.522003616204369,9.32416466330758,-15.174563024635358,-9.759419262236394,10.152441059945648,-9.110446051099974,-14.81446147562923,13.974892579362411,7.035614285306984,-16.924134486958984,1.5802706211124669,10.651446030825444,-14.265870711775374,-5.210304886761502,20.414815076013152,4.278816911556252,-3.819309689376579,19.38422468760516,8.394955495456864,-15.652908186363383,6.9317733103648305,21.882797787892933,-0.4997972617077515,5.693060557409636,26.114860877538568,6.792650099586769,1.1921660282941384,31.557424700733524,25.268256418821338,-2.4318816612423557,8.442724902699807,9.769427694512261,-18.354569326488974,-5.908903354435488,25.352455467122244,11.375766114295212,1.5426691666692287,21.07996030746922,5.892062209786216,-21.841909328613326,-3.5352817672042924,5.891153915861949,-19.357269769783805,-9.75835180219964,18.33422193630021,5.2403913645069,-1.258401737122752,20.00915101848393,2.0692820400164056,-32.28216603500699,-19.05918381755752,-8.897406272085696,-29.694104484372794,-16.153646713279166,12.98445209055828,-2.4090723884922483,-11.786781020569626,9.398658601352901,-6.055805654017263,-36.759016308768096,-18.586611295353713,-2.433210111094327,-18.432588333719565,-4.164856549540737,20.7633689007754,-1.2687376595552013,-14.447283157722797,10.022129947463437,3.4072008737883044,-19.10949936072779,0.9761259692263717,11.471424207868704,-13.864685655309742,-6.3349434394743245,18.964084151375275,4.27325212535202,-0.1717480875950258,27.587004217845397,15.788521387779355,-18.754781817595948,-11.073056605375372,-6.289927748606841,-29.904159356460614,-16.62741032020368,14.620447660412626,2.0357462065513197,-4.0158176440190045,23.131923742290862,13.967214013971587,-16.64241194410756,-6.261282812612838,-1.8897324264091473,-29.330691081623964,-19.92818565624207,11.903334771640726,3.851911868746539,0.9857064740935584,25.751697042534328,8.97671241773168,-29.24245749774071,-19.478141532360816,-6.0006417542769865,-19.74575790164291,-2.4971584742314548,24.43037363246156,2.367092359033201,-12.28546720043746,13.510504863652791,11.50671455969066,-9.130439465912477,8.21329113181119,15.173672173590068,-12.66541646069179,-5.233864940700805,23.380350309449398,11.4221045489711,6.111073976189967,32.82278469125982,22.693690315589443,-8.796358877930215,1.5678133027887924,7.474294097017307,-17.37192806936985,-7.217683506709131,21.02420650451926,7.268421487515233,1.0910117550841152,29.002591957064183,22.52486519991032,-5.3347502220413485,5.991442381921111,10.707318061338501,-16.575830302352585,-9.263491848277159,17.0879323893139,1.3783018735371702,-8.422864917018252,16.03617588690534,9.318059337480157,-14.650477794559464,3.8449895355006323,16.23851072505256,-6.808187986433044,0.20439116878823782,24.04662321723845,6.269138619546792,-3.9025997867571007,20.727128695876168,12.597704771098986,-14.743075435628832,-0.4968046958148751,9.924008037665693,-8.482874657614166,9.211029051829266,43.13948081726007,27.11790274246323,7.032047539809651,15.812907586031125,-2.3052549218571947,-26.1428717783497,1.9272690039258027,24.235896564659402,2.956878700940381,1.664608204654614,14.216255590936965,-9.515873963617976,-18.44717226974423,12.085365870721766,8.202562341012566,-21.728349231693162,-13.272085119448086,-7.200358408437372,-29.421127878502602,-14.423813014039823,19.557351790923672,5.105525577100293,-10.670809129184349,6.61284660037523,-5.245389299452545,-31.761247632404064,-11.666077387255285,5.408461380671166,-13.99316513833031,-6.291163825958886,16.50673618760095,-4.166138833349761,-18.694207325631613,4.457679060460988,-1.307737949996266,-27.189267088289355,-13.965754037138495,-5.945641182957564,-29.541522331212622,-18.27541593164637,13.431992815886721,0.6485456734972406,-11.936646407049546,8.88399023843047,2.158483036870006,-20.088110467626663,-0.3550466940998742,11.559565398274131,-15.488102066995785,-13.238394557090338,10.646600240957671,-3.9607097973526937,-13.435050420426641,9.13227262186241,-1.789088762354118,-30.818135643743222,-13.407165370488809,4.113507397360722,-11.750203883116853,0.3738827269550935,26.17082363653317,4.890837349842068,-13.777424809438992,4.042654934161769,-5.681899578769345,-30.75694421031515,-10.19481446513441,6.502113644238589,-15.926205421437317,-13.649972448523457,5.040724080290147,-15.62838833227153,-25.59502513915818,4.303431385405185,2.0179590851542235,-25.445641894817864,-14.170651745914267,-5.677324497068849,-27.492775800959944,-13.787228907878783,19.039123532720826,4.136850207688985,-11.206197443149318,8.756933545768549,0.6909065426889498,-24.865678640166806,-6.576224041633793,8.12591440027485,-14.330742894659817,-8.29601155779704,16.501727154686012,-1.209804679285904,-14.341364693762474,9.802030158134329,5.374348057433563,-19.56853143672146,-6.021376507294078,0.5431150151912554,-28.088305487159275,-22.7598601810708,7.509959849649949,-1.211795959323247,-7.381681980414904,17.339774931371565,6.472533656976202,-26.91343353571313,-14.810869891389835,0.23567384746217934,-16.86747542080424,-4.112575158461931,27.272146134394553,14.812820112682598,5.860285657949111,35.02651480765833,36.437607599485695,18.879200190696636,45.96185175711756,74.23496989907267,69.98912811376006,95.74176691683705,139.85251042235717,136.7634842183968,128.62478874995188,149.0311274796093,134.03173350489828,93.38152797526219,92.81400093305098,90.717385150101,53.47131780863528,43.791440121893416,50.112274742983274,10.401621228874387,-24.48053976627087,-15.239551754397988,-27.17177543494431,-57.39715540829845,-51.212719713366326,-55.375187761669075,-94.76067935214839,-94.31611547750946,-63.61450349480066,-75.17830110358979,-92.31150971749064,-80.41020424037089,-96.73201582093944,-125.7682691541049,-104.42333670699192,-83.2821969536859,-102.87891216691979,-99.0850541231651,-74.8462710730974,-87.99373475722902,-95.15224392536115,-66.39021505792454,-68.73525422969065,-94.88932673820284,-81.53179783138391,-68.52309459375039,-86.45233091982699,-71.76030713615583,-34.27465404041842,-38.58031175903616,-43.233527162280424,-15.097149667103722,-18.383987113858286,-43.389178659995494,-24.867999679034085,-6.041989206238661,-22.184467166552917,-10.703132891108275,17.927583885858123,-0.4030091693929574,-19.415003649100672,0.0613524819502711,-4.599335019671179,-28.50365108112168,-12.149516502207348,0.5563962323625984,-21.3458240804754,-8.939754638550502,30.20632518173631,27.30554304561894,20.05749730549834,42.176923829095315,32.172566288903454,1.2513869693908042,14.602159426627871,28.3137000399391,7.418822920455064,17.887916497590957,52.14529717760707,43.226981987093055,30.667848269923713,49.24248943732139,37.9881334164879,8.226588523126756,25.676903235390547,45.23155237950135,25.969035232230187,29.647907121231732,53.308776887213334,38.1051757381514,27.46698520078305,53.33418816532211,47.170316307540226,15.515809090960698,25.891663017928863,38.582835038512854,18.330133012658834,27.34341656318502,56.38635218108823,41.447889428477495,27.410414079373076,50.90985566614352,45.74602071132541,18.275017824501973,35.25526856819945,53.690747463869435,34.2505546823447,39.98897294256712,64.82732430336488,45.14978178280275,26.104983823214752,46.44831434930017,40.03055161716176,9.468284977932315,19.801728092226682,31.54310241264806,9.577076550418294,18.978571466063777,51.731289729766175,37.55302543509634,15.949311210103932,27.289821808526277,12.94277938255008,-18.00039091828241,0.5143626697063208,24.73252072103007,11.819245635032871,21.87206656714077,49.67886971192851,30.755502359657257,9.292359683244403,28.302201588800468,25.540436218174797,1.8176545953973804,16.845907203906584,27.148148782897895,-1.2979717546611713,1.3190114074169275,31.449614903827264,20.274134907147037,5.002519147641397,21.81678036158288,9.32295147848477,-23.32591728400942,-9.99722314821624,5.588203002735025,-15.533795588739633,-8.197823170558085,22.5898294743563,8.157116668264301,-11.46881783950438,5.301719442319875,-2.9162620806946196,-31.896968573080876,-15.654401169207409,3.300446364693876,-17.793860069375533,-14.777136535266864,12.852855893521008,0.17703154129779364,-13.824862683389092,10.092158183430458,6.85659881937334,-24.575969073581305,-18.2712929599842,-8.1737033197355,-31.361630065497273,-27.726666981370748,-0.35124765056471396,-13.707358172880076,-29.3515126235866,-6.726746380076921,-8.318154111773367,-36.09610980580015,-25.823528575811558,-12.04816795777163,-31.243886038351295,-21.183127007659433,14.089102692755088,6.768380343151113,-5.723386435649899,16.019367884234534,9.598086979583357,-22.00631030672101,-11.594565601114933,2.603488335868572,-20.51036189426189,-19.436654017603537,4.879170870636106,-10.807848723942488,-26.401123231754713,-3.6825026901145996,-7.860586444946474,-36.71592528273276,-22.870038437999895,-4.868093913108058,-23.602222972824972,-18.379557880381835,7.656028740787857,-9.805234198566843,-28.691565153786303,-6.1986643826162595,-5.193573442490511,-26.43548168121029,-7.472655593564772,8.660687335505205,-20.196736266811882,-26.85100044663484,-5.86664936301024,-20.211408279948223,-32.75706266297762,-6.87891236846348,-8.92105915357496,-37.62013700859728,-24.232161348347113,-5.68227678945117,-22.533806230118692,-13.153849299612883,18.431649052936166,4.5542146978312,-14.669765028111758,3.0559036582512356,-3.8881012038455562,-31.784682027892377,-14.491238647199957,5.279506126640037,-14.959748840647189,-10.548919776709653,18.217055579224226,5.4598215789822575,-10.223377721355396,10.099317378210275,2.5222409446664233,-29.944856018127417,-18.644946120995023,-1.5541973462038587,-20.393092298002564,-12.617646622282702,20.47315550489934,10.108083544556106,-7.675694282540805,9.84775465971452,3.3363273054449687,-24.92844254590946,-7.0117808177215055,18.603303923411403,4.6599489171042885,8.995337654778163,32.4197846411553,11.056942982335888,-14.758189159693066,0.399622622266671,-3.7195033941595645,-30.116214567166722,-15.711125644865586,4.3919070227680965,-9.86905477271241,-0.7824792969968364,27.48747492289828,7.641884868661361,-20.00924788053704,-5.16953249475604,-4.082440074688652,-21.125669843633872,2.6621872862536495,26.14157121919339,6.760227203443545,8.30020827411579,33.504095116308406,16.57645470951062,-4.285533137847278,16.432406583808998,17.808474814793755,-5.238673903630721,9.317836174974737,24.185358838478745,-1.8987361749141876,-6.042601553466889,14.334827939090925,-5.695432798512353,-27.508357733267662,-5.823027147417902,-2.1923350456091524,-23.01388837416645,-7.268029223289904,8.35282220467135,-15.7474997286563,-14.764639081466537,14.083847846635443,1.9359826879656463,-16.82466410603982,3.8805622691612687,5.973418043653437,-15.045656427453249,1.2952638570635386,15.95999678268851,-12.14553347197591,-14.98880985271619,15.592826089747184,9.14275387937147,-8.58358851270082,2.403873745449223,-13.606730130825053,-49.78952269884947,-33.38589008964841,-3.199771976163266,-12.420495732500491,-6.588855025543028,17.322626602609045,-2.417683477433348,-24.63071155121558,-2.5051046480385626,1.2593016749029151,-19.07501798014975,1.2549791747347658,24.084948339192948,3.2960247701889234,0.1653297255458437,20.04418646573329,0.08975990060315908,-21.07064288917584,2.0207547634116505,6.176305686172681,-17.420996277189552,-5.878473172971741,7.578964304561936,-16.787746693498434,-15.185427499167892,16.931921937380665,10.230517644620406,-5.727793286874471,13.08893246250662,10.387454709449102,-16.1746671038251,-2.807867327892467,13.698741186968604,-10.029770835976601,-10.953354694702535,17.2015916483034,8.473450015326733,-6.616665867417819,12.331965993979619,7.257933973566026,-20.74584154589401,-4.207755441244499,19.011676349311873,0.0827371290492227,-1.86043884721121,20.132593502756773,4.101056230436992,-12.747937661130836,12.484666916394268,14.341624374328386,-14.014118176211033,-3.9628263389935627,12.811431554618627,-9.088799358213244,-10.332262214422634,15.534004480656863,3.900542257664899,-11.216306129884071,13.934706720280795,14.466632193171229,-19.344500004787534,-17.107641497698115,-2.5947915958186023,-16.473103482167378,-2.583246412437772,35.98640743456865,24.119329561265875,-6.3547841330681125,-1.3695497921941735,-10.623737468853129,-36.311591830277266,-15.679610557238558,10.876673977847396,-6.7097882821959995,-6.891827467011835,21.311474795393753,12.69685156463525,-4.27244677214908,13.705771505814658,9.080581406340963,-21.99224197821604,-10.11664399734114,13.623091170909973,-0.6655008589123401,2.669114360247089,31.700632856303443,21.04973337224866,1.5994020498675878,19.779964605099696,17.372018560953943,-11.572873870801786,1.4945441276352565,24.690465430363677,7.979471968913813,7.112370434065241,29.301922451690455,10.235043094607494,-15.037763409181329,3.1521327561339945,5.787916154458537,-17.495048586232212,-2.91792874687782,17.081096902971844,-4.003559058556473,-6.768813314454631,18.427136988372002,6.632411785549509,-11.29328484138125,11.939915558509037,16.549745925212882,-10.190784636793044,-2.3269183190004545,13.84634086363094,-6.765058937062426,-5.837402738924791,23.976963441084212,11.37881140482032,-15.539809456393332,-3.729594680962766,-4.543014067809407,-26.344526431339677,-7.772398521863123,16.050401371855028,-2.645460952805646,-4.113829461708093,21.62887974035736,10.440159957310241,-7.196161395218491,12.861295719349737,12.667298159990537,-13.66182567778852,-0.9526271871599761,18.40295879974266,-1.2979096874914724,-0.5022430064418244,28.02802297713201,15.52386810543606,-7.784254576908835,8.032022916001557,6.556446357091344,-20.78365285226166,-7.87591398394688,12.089446204784444,-11.550944366265522,-17.306803255250465,10.538042915636666,4.855186502505403,-10.290140369825236,9.681609454425942,7.185512932736417,-23.0156273537267,-8.22610008029933,22.660674917302174,13.86847057703297,13.884434115607789,30.636729222704673,3.5227828819519615,-28.485903962826924,-10.153381459070303,-0.8631047304394613,-17.60551125368086,1.2785487171332086,24.88215388758392,5.785779517887348,3.3782995483912557,28.200071317187096,12.145442883458095,-16.383570903097933,-3.773623696459665,-0.4108779102908011,-17.46522509756722,5.555070028301261,33.772110051770774,12.708380297221042,0.45684943964571256,17.576519238348915,4.314765038697274,-13.59143490296606,7.569721883423302,8.233197810787267,-21.94715584931591,-12.305853567056959,11.088207837008422,-3.886941557385695,-4.027012616291492,20.936066045968808,5.6459861448869635,-18.840222131067986,-0.9302294451427979,2.05496335104606,-22.20220616057431,-7.1967797628306185,16.941021009616147,-1.5663476602067394,-4.899092429368068,21.068159738549774,9.104391734889939,-15.296126793336917,-1.859532208397562,-5.28876842336858,-36.43910320445967,-25.52891103506387,1.4782694440365791,-9.80892474808806,-7.071718815038925,22.825439868974627,12.581305229168777,-13.371595598359995,-2.286327085047791,-4.780793053275714,-31.91341981889075,-16.794241716995295,12.4582166949726,-0.22611666264968022,-3.3184840629290906,18.14355055994898,2.373673925524292,-20.737521125012023,0.3639167486121444,8.436006636114335,-13.587271558297072,-2.2008250261330433,15.881645159654934,-8.983074700058001,-19.095358761346162,2.3183292728613285,-9.16602006267928,-26.85179756872417,-0.22847258573851903,12.180488909390373,-8.507314660128094,2.328516665936135,21.239610617703107,-1.06648504587762,-8.864169661693689,13.882709316864625,0.8442834839801812,-23.703313290663438,-7.000362220722264,-2.7248528310039237,-25.989855368047955,-10.558224047524545,17.273322149880922,3.6020072092615525,1.2682373535133116,24.54128868651532,8.669951447042045,-17.50113670988034,1.175750234783246,9.042832279909451,-13.324793806066594,-1.6653548036379906,19.082583756011758,-3.138833714955636,-11.538733767495339,13.565007821561249,6.45517868465346,-11.379083958022251,10.975334346584061,18.49780658410117,-7.333390854823955,0.7683822103008655,22.225780596030056,3.6512342631291688,-3.0760689094373292,19.990225268091283,8.258150241645826,-14.972532992510216,3.8771835005994717,11.605010704269052,-12.108069271961,-2.7371133097461238,18.88513694130204,-0.0017425358305587224,-6.71521837977485,16.995567517391212,4.185350434599319,-23.04753743447614,-8.271334166630165,-0.9009892493496218,-18.826028196642447,0.31080648719040127,29.708063533930325,13.024306813105069,2.9870326106015685,20.8202173421887,3.6767471229693918,-25.493940089182846,-12.045047457476144,-7.214886325716552,-29.325230654405814,-13.242925737676275,16.778047389563646,3.355768525539169,-2.9071513780015903,17.404866293091306,1.3123708388702955,-25.622623010743084,-7.611288124580013,1.7602711580920114,-17.441849495025032,0.40665800109404415,30.812774893049355,15.14358957824274,4.172776081017911,19.870067372119983,1.8313876813006456,-23.957659463594144,-2.7556307493404866,8.417978847057242,-15.542843458654254,-8.380678934146156,12.81395355767475,-4.969002784409433,-9.955219636328184,16.373710253375194,5.1982261478103915,-23.871535801829527,-12.842584006854155,-8.741418187016832,-29.343175002545614,-10.352337580895414,21.999331387074054,6.939254933041996,-3.424809523155779,16.419921166741112,3.9312556610943874,-20.459569091927975,-3.146097470671263,2.85176918589914,-22.510069872837697,-12.20156491440492,11.991679370754877,-6.8395894842652964,-14.801005510296944,11.861139773002746,6.492249912996947,-14.577611672533404,0.260422834584185,-0.2998653664874107,-32.01572011495437,-22.977296110305673,8.270305172703662,2.104993110814485,4.596681306635324,33.761750998739586,22.672326063894452,-7.140957286148659,3.7643534129001726,5.803431711089457,-22.79908065885553,-14.775795449955787,11.22158877415039,-3.006784272060658,-8.1215904225979,17.46109130657423,6.068821753722865,-23.271681283351317,-9.176702308703067,1.708823789242536,-15.512693887119639,-0.017502979515519712,27.251671713008466,9.941398717190044,-0.23157267965784334,22.370792777762215,14.017014215105936,-8.097105417568399,11.208069458392275,21.4040118278704,-0.9912870784975052,8.283607581082759,30.379289394456393,10.357792559869683,0.24848756998465205,23.73698131423995,15.03145636420012,-9.097767753373127,7.766149833088669,16.181769803295857,-8.5297721062574,-1.4656055476758896,21.086723468279555,1.7589736842095611,-10.554014459677635,9.541184136033499,-1.852999685690504,-26.02143235983504,-4.502741261131998,11.026373292083067,-8.356915215797441,-0.6833923065088925,17.775733308652903,-5.073271822669897,-14.853455314681554,13.457806364704123,11.616154946319128,-7.22845649268451,12.0071688085955,20.588229908358812,-5.093064669539501,-0.2902764216661513,20.296245318808754,3.312511720267157,-1.7167832867575978,27.28423454810946,20.95357676028966,-7.972604368513684,0.4548420474523862,3.2151648667782204,-22.047662951020627,-10.178257983673511,20.15363703058962,6.8854254333789875,-2.8712259939889964,16.980717598642126,1.230616185215096,-32.632025617732914,-21.750075755694795,-12.236189405561145,-32.300174730741084,-19.263731967992246,10.275825118769502,-2.801568367415717,-10.27232925575187,13.619792696464708,2.59301388572704,-28.382319555177805,-18.870242818682115,-12.384470254491756,-32.816688218625806,-18.65722762468711,10.199626859960556,-7.133854436226674,-21.44732369282493,-0.6805566700957204,-6.225431608144885,-26.096146373904137,-7.001673120578251,-0.4906588505271722,-32.06358226511944,-29.529487338475633,-2.1314617978048656,-10.648223240108077,-12.741503076928424,13.821679037131696,1.4160868337019874,-32.2503575731854,-19.706332219238174,-3.8787678943270647,-15.733859694915942,2.161695877650189,29.05268184109849,4.788672518473653,-16.65459767722331,1.4867882011368874,-2.181046619694042,-19.03818198462385,2.5115990501800987,12.724696322736015,-14.071163064791172,-9.146258023363245,17.196704519275475,4.510998268960175,-4.37731252222698,18.5066606288298,10.891855147785762,-13.455949284741079,5.7952693222094265,21.8394789619021,2.455781447893278,9.844760796001808,32.56961238021532,12.179134134489061,-4.804051599880637,12.900205706922746,3.7271998312802586,-20.816624931618584,-4.0017285883000255,6.741245282647613,-17.55051378038253,-11.345845854256174,15.312194819546846,4.010467819527122,-1.0041799082955833,25.543997025359985,16.097063296789344,-16.798126050999663,-8.411046506467514,0.3424648591469599,-18.847676227368368,-3.3888434450746328,31.170806039534916,20.15033857795929,7.167704584362019,24.0629832504286,9.312441518499572,-23.900695593730333,-12.621089189787087,-0.2710277836320212,-19.726510747463127,-10.714726687742687,15.76558169066278,1.4740323978638123,-7.273180928093704,19.69438450053418,15.46576498588258,-11.136070409168878,3.4980757030036784,19.120714000926526,6.566067822228186,28.385756361249726,71.45046716048667,74.07608224914947,81.8198120568506,125.33020967073037,137.53530304468845,124.608278066888,144.95962433994902,155.03418684725546,126.64502816878235,125.62946051002146,140.91931276384673,109.43600359412497,75.75450124034376,75.70523483746315,50.10536795368941,9.742208310236315,14.277069824161162,15.688858899553583,-21.55397176712212,-31.070446499290846,-18.41414916358567,-45.843716759332786,-70.40443740441451,-57.47418511706506,-69.31960867441387,-99.08428379196612,-89.01297143355569,-85.96028736497668,-122.56835336247175,-129.16521892257566,-107.0920085314063,-118.04253063032512,-126.29350895528577,-104.92296561891249,-116.81783761660404,-148.87546077528978,-133.4805820888294,-111.83461541475835,-122.5249162746222,-108.9410204385015,-81.50862985740144,-99.98759662948821,-116.27292079358044,-92.5903527297199,-93.64254871404275,-115.92322765840836,-99.13176583086948,-84.16345744261395,-101.72482968618434,-87.14740606780818,-49.67660142065506,-54.57978076643974,-60.79291728636458,-33.82172059698243,-36.32128326163229,-59.638613621191304,-39.66674628056472,-18.725043852772387,-32.13707974277986,-17.96431030670317,14.68988522362626,3.3719018645509022,-7.31195224862152,18.02509166673162,15.04913211066624,-10.892664356868877,2.7834966099489886,16.387014728268326,-3.033407255889884,7.346836466917343,39.8620401186224,31.10746258136966,21.82640421570801,46.51010922853772,44.359924837441795,22.995325329402466,42.86510385027159,59.88683074913944,37.66576935092197,39.7753952074774,63.15258267485158,47.699500356679316,35.11258330094242,58.92724716905294,52.88500757877318,20.923168845906584,28.862435175780902,39.460107706734135,17.605142507549353,26.230659439011582,59.65172031951008,49.81694367513022,32.66883554667331,47.60076323262542,39.38030379041362,15.885065174599493,38.987257141625044,63.93996388102407,46.801274823041325,47.64407862534037,69.61084458558989,55.918200908926465,44.65218597864722,68.83034611331935,63.792973131311115,32.43210818026016,41.825209700975854,55.496435714545015,33.459580543440225,35.95696656279967,60.73441709334524,44.96135513500526,29.11971746172577,52.320079672096114,51.895163701788086,28.13214101081742,42.17797447881813,53.074270542231915,22.047743459812573,15.434009845902441,38.48112301377267,29.632266948627745,22.603826936318114,49.42339605851493,43.97169428046652,8.987056840438806,13.817822327438458,23.964861488221732,2.0180433362545873,10.67273379816736,46.345348860757056,40.126176062892554,25.425932343645357,39.229876209515766,23.143035034803667,-13.062981898581741,2.167110919145662,28.45557697720502,16.225450555034868,20.803612820417392,41.95997854900655,19.708979585817637,-2.6064248841805364,17.94144947616892,17.93841494945238,-7.150995455506651,4.372235419812377,17.009875369608487,-6.626904874220674,-4.824773689118931,20.72339096925015,5.164376522122664,-13.09861415369838,6.898026739008978,5.4443740270518886,-16.77455357277409,-0.6090187634224886,12.470344195332393,-13.273190233914733,-10.651835694513482,20.5450751147687,12.313766654440958,-3.1742147221174646,11.910002606943879,-0.539369207702685,-34.604393589706575,-22.19056970555026,-1.5678974285871243,-18.0016992944732,-14.457213567899206,9.86892397838384,-6.664863946255171,-26.54114890023706,-9.039756812423942,-14.895868591107016,-45.34788326768173,-34.40716684316324,-14.825822793085152,-27.471445719477906,-16.064520482914972,16.276752941328787,3.031736099218433,-19.145928955777208,-5.181035119766173,-11.818495414145504,-39.80487026142332,-25.944830558834582,-7.17047323959991,-25.560762942344848,-21.565085168685343,6.411104533675438,-6.563073253338475,-26.304834014628423,-9.991633166850388,-15.915140102498862,-46.37733946791183,-35.98711891241309,-18.990145248355105,-38.73228223577441,-34.92427952693323,-3.338850544632656,-10.696397795926202,-25.774413475410643,-6.6719978310999135,-12.599061313348097,-45.42291107471006,-36.47636497703223,-17.554421919270276,-34.07393888668314,-28.743230607175683,2.9013431644507666,-5.158807415180327,-21.54526932849294,-3.1148270003871517,-9.244347169207638,-43.34254064099179,-34.989692886017664,-12.3938589879598,-21.39874039124308,-9.743829674867786,22.093231318764598,7.946976310079088,-16.327747325298997,-1.7123904813850555,-3.511558617888793,-27.62574204634032,-13.089650107128024,5.367108888477977,-15.098795840054136,-15.11676746453351,10.142109481774414,-4.270163475207676,-25.531982573715265,-7.852649223436444,-7.988793806703697,-32.85324836180588,-20.631736147416007,-5.264845730722735,-29.522486162466116,-29.712411699902788,2.204034414183024,-2.014735466007159,-13.938159605483461,7.661667349620414,4.0293306437706935,-26.23908810381779,-15.794052808877918,1.6411061634118225,-19.44311760415861,-20.640042219436847,3.507551909521549,-11.189337107168608,-29.727538238480786,-7.5024995657279705,-7.73047363824087,-37.84400373831692,-29.112089165286427,-11.236164851655865,-27.739400648535643,-20.482714552784174,11.596946472473782,-0.7139908120082428,-22.74386026563891,-4.069582199175919,-1.072928153024363,-22.384415692528776,-5.333281397401878,17.055198017724052,-1.9203430834962525,-3.9840851385426217,20.496713220544827,8.812600923192655,-6.904588234082352,17.66493784032799,20.125778495871096,-9.995076573598674,-5.08346486489348,8.98065683005013,-10.192010004116419,-5.99995346243474,24.452872714548953,13.220878734965597,-7.00862917902839,13.622819334100729,17.547681696630345,-7.3771104459909544,2.883379370830463,20.891379072501888,1.642901855944853,2.9224827149262094,33.32004384057963,23.283805218774617,-0.4567367116888912,13.59826900583555,12.452954881559995,-14.889589114419485,-3.1274913812262772,20.433923986698392,5.601615228247257,5.25140376859994,30.081469187040152,16.43117508951115,-6.754056036112526,9.074483912879023,9.466246107484052,-14.339290978621381,2.8915172412708543,31.97656089816221,21.85677897091347,21.460259216650318,38.71103033293845,16.067796552792956,-10.32420693313163,7.822323036791822,10.585964121631143,-15.979929919878844,-6.161090342264799,15.532825185663132,1.686367344555869,3.989211433042408,29.61774824324634,13.52782945208212,-12.785798014871972,4.340777747625422,10.377992403849507,-10.379716650610781,4.100184849713761,26.15357604336648,6.0105288287217675,-0.8394738535703914,21.81881397328612,12.003585859931693,-5.695852627946676,15.08427790962353,18.629876321635457,-8.723561606846886,-1.6229785850194896,16.590616573364766,-1.7474437579999975,-4.056853403614823,20.36898365048635,7.369189086895786,-15.364081176867298,2.916641441810654,8.202966277169752,-14.665194226617,-2.879464190574912,18.1206455723436,-0.22394334704869578,-1.9228954852092373,27.298066296743496,18.97295759886603,-4.429007906851856,8.857022549233635,7.526486998181687,-19.518790470551767,-5.287626388994952,22.552051842588092,9.100694612224785,6.156520665587269,27.777837221298952,10.719540295918486,-15.815979747701808,0.40000354374290126,3.6779356640321335,-20.84061319724818,-8.664429500895977,12.38068852116789,-9.359480949799405,-17.721147562221862,4.0235592295741025,-9.277941859360132,-32.45677544158165,-13.096539255103929,-5.342708118940716,-24.895323859462064,-6.730446385623801,21.280541695431126,4.335011055108032,-1.2776436353835854,24.16878324990719,14.26915846273909,-9.432575589925854,4.896140374714987,5.192197419201774,-22.762141403289853,-13.168673270482314,7.755971510648389,-14.08422283358194,-23.66081994210483,-1.07895990977004,-10.256818640664184,-29.253662078725096,-9.32233158910572,-5.390067526139435,-31.402265294529535,-18.802679576486877,9.132816161688055,-1.2625655145581405,0.16606645230688155,26.454701755280848,12.048056720457845,-15.738508118343262,-0.04682506249599605,6.039228980178361,-18.865363159156693,-11.393961620026666,8.103918134313638,-10.529313575985412,-13.860029342299644,14.60821992353993,6.3110518233158,-17.789619293206258,-2.189328794812617,2.862802394908627,-20.52584080388651,-7.482967762421055,18.69003260102378,2.6056778401116585,-4.5906284302356895,16.63750330774525,2.7895728035554264,-23.053385933072512,-6.238636999473713,0.4061945147044189,-23.670390825905887,-11.986455758357947,15.383859466811264,1.9240936471011167,-3.0240876934836125,20.74322469461127,8.623195934796666,-18.354570392912343,-4.452144843587441,-0.6162975205057956,-26.86053872215033,-15.664686208695993,13.611352962966116,3.494301378138678,2.638227047705414,30.915052146193073,22.28569619570965,-3.571996721530285,9.870407841809543,14.07423612287095,-10.430122910219048,2.0629139243361223,30.285941215233713,14.278851389552525,1.807853292478288,16.940758860016356,-1.0857432804888685,-29.72571442289901,-11.29124923864346,2.350354391848117,-14.72610407854637,-0.04335752200803533,26.48911626352416,9.1858312054783,-0.9412366245592796,19.64854719187923,7.223587030659633,-19.842804524572795,-4.7430373838834425,5.0431742328052085,-14.058439333312842,-1.1841654393247083,22.40486738923122,0.2961010958275292,-14.532970747068916,5.842810961587148,-1.07097016233583,-20.24777145977455,-0.31469788996914794,8.396206859948684,-14.298103584639241,-1.6347940430152326,27.195704639699095,12.17933180304386,0.2425316136006488,15.86184396017099,-1.7698156446200723,-30.48353429918536,-11.664173918954102,4.021380751778675,-9.728814985227363,7.684803918858064,34.39797360519583,13.377243509739287,-2.331408476352658,15.211420853843801,2.902888226857014,-21.59695552575112,-1.4974483804567296,12.192052840284372,-6.8106305665348525,5.152408263293833,28.927789418518245,6.150538632468859,-9.694331249575747,12.236131581299427,7.218339338556932,-11.838687668288042,9.247148910914913,17.759306567312585,-13.112865312515096,-13.892030784978193,6.401929106072023,-6.787921086736132,-6.703721398431174,27.891853719842935,26.117608228122002,-2.847548933043017,-1.8047921757116505,-9.51933948525363,-40.19439291586989,-24.950525135049393,16.135595029268934,13.212530430450318,2.938813282681657,12.40360255528022,-10.27719398865672,-38.13645421764334,-12.138957823120553,10.014178763767905,-8.546667233017315,-4.581472565403357,13.128561875767558,-7.224715578074152,-15.384760384193374,12.82435785341385,7.358337913737802,-20.509487286387245,-10.41784636260028,-5.726655604615922,-30.43845015916422,-18.454137410229023,13.74753266388644,2.236966415946224,-7.904213880240989,13.599320217673775,6.309119573319126,-14.779321064309332,6.75078153835133,20.209261785988502,-4.21099497604556,0.4311315940320988,26.134694546858906,15.669252339366654,11.273951025947778,36.096773536812464,24.3950349729987,-9.71723835766707,-2.2506664313506635,6.569465942444475,-12.40911301332431,-1.1237511870197414,24.998839289667643,8.805047121513276,-1.4027274932333706,23.324624087175877,17.59441531372563,-8.488779918665122,3.467610598009948,10.008920179116933,-14.575386004342745,-5.354547719399214,24.486205219901066,14.40952013515118,9.638976678315943,36.9001269638785,28.875873874411962,-1.1467786273914378,10.769910310608974,20.988056594463167,-0.9016860914176785,7.068689289135078,32.02824285187738,14.338088837869014,0.27074232072073556,20.01872506309465,8.395435539956347,-23.803454479793498,-12.749415092074244,1.6145681623918482,-11.878471606979707,4.058878114723724,33.25979054762116,13.331063929430687,-9.040359594319371,3.476017477710686,-8.097242170706375,-34.470447468844775,-18.19248827115585,-5.479518261299901,-26.87076071603396,-17.297553785330123,12.49772593857645,-0.5535920944774908,-14.455726049811792,3.0953914787628527,-6.814609279448594,-31.78010506032938,-13.189256708924376,2.085351370330865,-19.33176777606335,-14.34466256738139,9.666784656436107,-6.7475990528370335,-21.252553899305852,-1.6101986052285469,-8.536609143841947,-32.37076511668918,-13.944452441761353,0.6574822262402922,-22.733667769390443,-18.987355786046514,6.4636503391134,-7.646730529147417,-18.919753645279762,5.648992275610674,0.7991722379616917,-26.070796508397464,-11.06218387961116,2.5390561917777745,-20.1732460731098,-15.238880524394636,9.595607900644634,-6.754495409399892,-19.407078705947498,4.409735159315595,-1.0028281553017182,-27.874440359957056,-13.077557861120063,2.1498980593566053,-15.206435864756703,-5.475337950687331,19.705142453105147,0.33968672346507667,-16.60492032322727,4.107754033809641,-1.39802982414085,-26.630601468085093,-9.926893829980296,6.153871101539076,-13.400052604590366,-6.490076100978403,19.910891393542656,5.189706555746959,-7.106571076516343,15.936192518526413,8.31838414258561,-22.64207439099302,-10.544057932432333,5.128836966213523,-10.64844982386018,2.7776238598320377,34.371209441902685,19.30103031560931,1.4357986464215582,18.912300776620725,11.676299218067568,-12.620689557846394,6.9770755515184035,25.091111563971413,2.757571313904849,2.917688891132963,23.404964923350676,3.9089439515476645,-13.164604070101793,9.613009413569959,8.761254600868455,-14.784331257397708,-1.4869544201181988,9.185645021571133,-14.76423550975012,-7.689404959458486,25.84762173955776,18.66647343741928,5.635652747185801,24.237765550049897,18.088319181959463,-7.504050848291136,6.681987404461989,19.090248768515547,-5.297077851286597,-1.5762156967485454,27.24929376137374,15.067288244546422,-1.3139940658818476,17.229918040850222,13.24385760535085,-9.245843017300393,8.525303825278455,23.573410170809293,-0.7200903803250007,2.1378631657731137,32.89989079105511,25.12084832266298,11.137607801318339,26.791931034521347,13.748381285903044,-20.512925130413684,-9.344353962597133,8.56954344641008,-7.5665846876565706,0.18745938422929598,28.261921264489143,13.823041002749571,-5.77389419137006,7.769338242772893,-2.8056043716988244,-32.02281319762333,-17.1326817251338,0.8531490696213346,-19.536190504621537,-18.490617448092685,5.629738952570367,-4.715532793634481,-12.04545403171366,15.337310812474632,13.179977357809893,-14.611710589220472,-2.73359237338801,12.482220897236566,-6.921952290606809,-2.4470115366458174,23.65907589478566,11.215376859793057,-1.9581881380890058,18.023555815394822,7.551933509949457,-28.577426028666316,-20.923205782408516,-3.8588466589097132,-17.95819018670088,-7.28749151040962,22.197367338204288,5.755008783979658,-16.106923170147834,-0.2499583604399298,-6.108369305804745,-33.21189287361829,-17.769278393921887,2.0954442870631,-16.329417698024702,-13.821934761062247,11.592087645925304,-2.00071614673484,-19.10496841857848,-0.9838459673298008,-6.6722456704159345,-33.543081690482474,-15.22366689470756,11.604770921131747,0.22839745311330084,3.1336154238463267,21.739655826623924,0.7537287343788446,-18.136156011269833,3.8818188418979087,2.754104634934456,-24.202422233045056,-11.884762565916663,7.216713667639498,-7.24772574845797,-0.7803566418083872,23.12527029579561,3.3802983658821173,-17.962803377270916,3.0712044602221056,5.342774375047378,-16.707164474955263,-4.289324847958868,5.627152083256588,-23.541425287774153,-25.58940789898721,3.916596555140627,-1.6896813213825324,-13.657872102607712,5.002573771919584,-2.415804704919342,-31.216997456768112,-14.199913603700296,10.637099058858809,-4.537935923176493,-2.8185430237111495,21.516033480259658,8.239943973586355,-7.546923924967768,13.886558166119356,11.199169615978217,-16.182407917835103,1.1512479959902677,30.74296425070468,27.165481870905097,46.478964194312034,91.93017614589466,99.91387406435051,103.392610968395,142.53593981105595,153.16673046033742,125.16925238900181,122.38391027870864,118.76131809285013,79.20216377781489,64.61507278136042,76.89164319745117,48.007781020104034,8.627390687700636,4.337714345570909,-17.01150611911687,-56.61735857405946,-52.76717005155356,-42.00226632035329,-69.21421552559741,-76.74502797209836,-61.371239833102685,-88.69845637740195,-123.07878865964811,-113.07388471594187,-111.2979512961857,-125.05547300345765,-99.38817277811044,-77.31781872098611,-104.60919368294306,-114.29893003629319,-90.94657427385212,-96.67516655486101,-104.99740899708584,-77.06264143787931,-71.12788805701096,-92.63413869632662,-78.64469927072767,-62.54179442329869,-86.61043444536101,-86.57732712507146,-52.16851295639289,-50.76927616660965,-59.3776652603744,-41.45931668333387,-52.19123639614443,-84.78456463914554,-65.0072646933883,-26.75534984790788,-24.949211973596316,-12.396965665780051,13.502435289163905,-6.3898812663399465,-32.00516366273664,-13.069787153603173,-6.734386775322196,-23.099024411213232,-1.3468556734740655,24.492566218724058,5.84685206386574,-0.7424739998645169,16.595959931968654,-0.037664311968701014,-16.02509513900513,12.479817315413507,22.553401182252905,2.671373376455316,16.81326326068794,35.409692247292405,15.887857301687491,17.574052495068134,46.561677856108616,36.61839030357022,18.557154107532334,37.576224772896644,35.878127458986306,8.70937716751643,24.14480131232243,49.7260243073533,36.0392885826942,38.67522923925698,63.23640105709451,44.34922735668942,17.456710241491713,33.96162238415735,37.121326594813326,17.675994067573146,38.45230546058466,63.53575180152833,42.73915992257787,36.19855274232428,56.983977214684224,41.58524006545818,20.72256573516771,41.233544347666694,43.8619217572142,17.843995918362943,28.7243747797634,47.61181942244686,28.23440577227552,27.683755082848037,53.81905685403281,41.19268775785352,20.559806463810983,38.62526322390946,39.04820806957122,14.052601429233935,27.062090260132507,47.55889217261511,29.473475041518782,28.270053581276983,51.87534446248929,35.47212131870991,10.015210276660598,27.167953384686918,32.724619629602714,13.529586794952746,30.373183147613826,51.5397319878914,28.286669656093853,19.68117312827718,40.23855971839557,26.689313921099377,6.7852396587610615,26.581071831936974,29.326135029883574,4.525918630364925,16.227757514828873,35.681791031323655,15.271412779140585,10.333114602746766,32.243767570313594,19.374984613804884,1.6789872934421908,24.974441759704355,29.539661879135494,1.7432405983774988,6.850327481537778,20.69435985860265,-1.0629298729853538,-2.8450998811194017,24.208194388233597,13.315409608832113,-9.006129113460979,7.104560843448198,8.48982223165671,-17.12368820139873,-5.467025854700236,17.046610831824832,0.8720277592367687,0.2735051527633128,27.336287197536645,15.784158193888963,-8.314518867121311,5.460459337393527,3.522891052805213,-25.57416697256474,-15.719377043700105,7.185929531891475,-6.652256015297205,-3.919422267800372,25.909409071845143,14.753022190177772,-12.317720852430988,-3.239316838362825,-9.201067403847166,-40.32913216158147,-29.48509210261202,-3.3863593265367697,-14.336576578161186,-11.138803386952693,15.60541184471019,0.3999534858503786,-26.47278301128985,-11.032351461123287,-6.5776752926327635,-28.42197678446729,-15.798582629890058,2.758369299976442,-21.593342825664255,-30.88899720679293,-8.872700060839005,-21.587727434231695,-43.889373054797744,-23.916581808819206,-16.860582949030718,-38.45883634117384,-23.641815965913374,0.4221525408495417,-18.661761619511097,-24.80751696482993,-1.531638870801567,-14.08910935766317,-36.77217139749743,-17.942432413868765,-10.955484204970945,-29.8603932786737,-11.840248454991064,14.402602578107212,-4.252627106149738,-15.307236331659304,-1.819955653027069,-22.976926549934387,-50.38420926217397,-32.60026626262835,-23.636511741737994,-41.67459523395076,-26.42903293557225,-3.1528736882384543,-20.732977691334767,-25.058179850657492,-1.3763710597945575,-13.830678920974965,-36.520291565395816,-18.626935796731704,-14.815190676934565,-39.57702791281796,-27.389708101619128,-2.839947660381111,-15.567470221568119,-13.369964800888042,13.120043506596009,-3.436375043469692,-33.799120183958884,-20.299259233498482,-13.888625371943798,-31.976234143944833,-13.53465324234484,13.636100036780695,-3.5916241044563026,-11.070064671789773,9.343764862194593,-5.316566309050042,-29.62070810650104,-10.765956409470888,-2.8688435832827217,-24.327319658191993,-10.40938449118424,16.83221589804606,5.204188308276624,4.203048070722977,27.699611499997,12.129290570383182,-14.893630125040382,2.9286843878303923,13.162332418076659,-5.0409036312577165,9.3099801233211,32.784249189284154,14.991566779738104,9.194277408655536,31.188080469931556,15.385719299079707,-14.027735980976345,-1.7685995546926812,2.599831995044923,-17.932791196276057,-1.8531942580066634,24.909610631067885,10.261383837565358,7.9869007792479865,34.98136589164337,24.256451479145227,-4.077198234155592,3.981755929686307,2.4959540222639345,-20.811163705625294,-0.3541899685105321,37.18497148831491,29.4651107737987,21.16493956977271,33.00817747885406,8.21313993226076,-24.46663798481003,-7.111925181905384,6.892180657767541,-9.552447481886592,2.1377911861144474,21.726250912457964,0.640446729312357,-6.139473912507577,20.54641375412437,13.450941860622157,-9.957550300181953,3.649288071713668,7.909638458558022,-13.406962059114239,2.4607259509597643,31.908916283978524,17.425039133432715,7.5243116858876835,25.252986820784187,10.721654802940208,-14.799258005308717,1.9749669618442898,8.96184717754883,-16.339570110748724,-9.183793671918975,13.588771478186008,-2.3579369982814775,-8.951933414444309,14.980928544722374,6.213903870634645,-15.937181257996624,2.116859528304037,8.195446621768244,-18.16761395569768,-8.726906198814923,18.176238251865172,4.77030666301134,-2.770961727514509,14.819063505563044,-3.188562798576841,-31.210166372803307,-12.507922782824648,-0.9928927075518899,-23.015147330624824,-13.96437222663176,11.868365554674954,0.3280144166887009,-3.510535807266124,19.439895701809686,7.1151582771860955,-18.966891027805033,-2.119887809165377,7.097549780841864,-17.212975175200157,-12.263298351524789,8.444894297489178,-5.156262019538715,-6.012735863224261,21.303812578627433,9.351447926026953,-21.723846988837586,-11.626065366851421,-5.5740120842032095,-25.94260209841748,-12.08212592716836,13.22855068518113,-7.2327322023723255,-21.46825818659307,-3.8302106633063495,-16.804176321909125,-40.94768387561408,-21.192430901763686,-8.982542864561655,-28.205139188777885,-15.432239448829776,9.616688410589001,-9.988183474197378,-21.85956249677235,3.1102164580941984,1.8413855753651491,-13.349747665750737,7.249615790307603,11.53936747069032,-20.897104825550137,-18.8066443092715,4.415820356158833,-8.766798783879706,-12.358795160400888,16.05425356225871,11.837374149819759,-10.269816980548779,3.2021320263956703,4.810997732266021,-23.783551357501246,-14.365872765668197,14.001219082988767,0.17444136692090062,-7.830190653152795,16.944783678201492,11.541174126150606,-8.844523759813757,9.405281217733382,16.037125335669625,-10.597030124094937,-2.678188927545251,22.34853674935281,4.2281352220313835,-8.604895683453783,12.745833392953916,5.702484008485513,-16.86556050504408,-1.4795517487521774,3.2230424230775077,-24.231577156052374,-14.371194674709603,18.066551577762965,11.308463216552605,8.561875155392382,34.23660211278334,24.7652779656877,-4.406141101884092,4.858303524373028,7.3633292174108895,-19.26086101611989,-8.712626302840599,23.19647604246875,15.346276247267479,9.903754526410873,30.22412986278931,15.019495940834638,-16.6572171446353,-4.571944235958016,5.130700877417498,-14.594969522204472,-1.3591177522373785,29.872680598947856,20.061770790693153,13.314382702948198,35.418626321681764,24.022900922971786,-4.937906304363997,8.76497506608484,18.80377156664197,-5.085683477584384,-0.959272972670175,19.956180413007395,1.7429111152191936,-9.783662744185708,11.366398611350823,1.5377646687064006,-23.939483886740714,-5.363785183007511,9.73451237843109,-9.40746083574034,-1.7517060604418653,20.670376784938803,4.313099671456135,-3.116708144210019,21.91356007503776,12.54711473354838,-17.562187186319683,-7.132444784423889,2.3166387495523164,-15.72913785886854,-1.6579097344094302,27.70476323993786,12.384463453810945,-1.9869855034939037,14.65971080382309,2.7108935099181997,-23.34329157315498,-6.700797085295969,5.026258092423206,-16.309971750286408,-6.288853649858428,22.78503349255301,10.282449294759804,-2.067512789463786,12.251732054619396,-5.737239073103096,-35.61246186613935,-15.373960927157132,4.827955734322757,-11.257167039587658,-3.7607717376283345,17.48565447936749,-2.10637056531683,-13.681040010206688,11.686031828630139,6.988472888661136,-17.851103078495154,-2.7251253110041223,7.966627065650593,-15.916598744139845,-11.559547238654083,12.354637161525481,-0.8222900166211744,-8.370143634194875,16.070934095352,7.515600929333935,-23.895075490824727,-15.383594438100161,-5.553865892781792,-24.34529306189013,-13.56175490339382,12.531024185833287,-6.217117293516447,-22.27502666348202,-0.3602449600854545,-1.8766032673368223,-19.321684914103276,1.5029073131081887,11.405844253017415,-20.52613903547502,-24.91568308933136,-3.573031903261662,-13.670554111963352,-15.336573041402726,16.235586518652024,13.36561781082903,-14.742453211611826,-3.4949139812557632,7.803854174072712,-12.541057692564882,-4.522756681154984,20.905124344018045,4.427132534480808,-8.376243123319338,15.923468308772822,14.08317707890635,-8.246116408632634,5.876256883788834,13.478489572036743,-12.778425500420251,-5.9174102695084745,24.47181940691373,14.553247436781232,3.8630702678979008,22.44425704080218,10.404722697682415,-18.26420151253515,-1.4121009604220216,14.905445010158818,-4.826742732233923,1.5035394054602556,26.32457662036402,10.455784349323814,-2.396818834587938,18.56613836578149,8.470673416469584,-21.985300369127103,-6.678642502018604,11.843078617479797,-4.629115723874262,2.5876190218975665,26.50417174899614,9.808660920760722,-3.061272939860165,19.6725496501463,12.604361369778795,-17.660834849082292,-5.872033880486283,11.069398212751477,-2.5087055480301146,7.713048023678616,30.270695224867595,6.307574015080416,-16.71930045266835,1.6353238597468813,2.365069722495841,-12.243578626207636,11.006453521947478,26.03905732590574,0.1268601599494783,1.449821913921741,29.11232724167222,20.80529871587163,12.088781541616491,32.982034501148824,21.247295030465178,-13.624244486421023,-6.359658381949605,3.5588890723171396,-18.105867228021918,-9.949130023938611,20.224426690033816,8.649467397793597,-5.551823401442769,12.841586541113731,4.873840856411721,-22.68629718331996,-9.809083176821275,2.2963780981430757,-19.514946987680307,-11.512753283382606,19.443877872183407,7.7985626653659885,-7.698573408290678,9.574690328307842,2.1387433215890486,-20.46742474153142,1.385090131660757,19.780314770975004,-4.059562479414248,-5.439761360471992,14.706401617215363,-2.7354078592853313,-16.98584436259298,4.859950753053884,-1.2042285581881078,-28.555428636555547,-12.937020282766138,3.1817879997726326,-19.721964144926137,-19.3148173129251,3.327063162573708,-11.874917851919617,-23.78933506252126,3.640229909036581,5.186245258826772,-18.615991704200283,-5.552852673094839,5.38861100173348,-21.24350881773531,-19.795882518348783,8.951862414844515,-0.49463947800572505,-13.27941379668781,6.5473207113606655,-1.133688993670571,-31.41106111846786,-20.077649882598802,-5.342715137817285,-25.042361478439112,-18.246110913638205,12.705420014852734,2.9741846205326246,-12.409720110532003,5.675786071701896,0.894653659446293,-23.205695359574186,-6.115318365725356,10.960432721662091,-11.38393000937874,-10.112405311666794,16.70147613019649,7.655968790138233,-1.6894641885543193,23.66132260080869,22.07197379958417,-4.635297491789601,5.862870753735277,15.694039582146996,-11.830565090792575,-12.957064707391186,12.877357599907448,2.150735094216918,-9.660991544127869,14.420316528753155,14.135984352127153,-8.154454684877116,9.662068492469855,27.261379632005525,3.9252480986994556,1.6141510545981097,23.46063796152253,9.565286079130273,-3.383891769018041,20.738221820560064,19.3845422679827,-7.791250838231958,2.381530329737025,15.344519859063153,-6.314591419236686,-3.9266151696162757,20.695871209047276,5.227588703782002,-12.669007075647865,7.222307304818381,5.108373067365695,-19.661299967864537,-5.243282352271578,10.992247351815612,-9.036442194590972,-3.6060616925613695,25.56349718156322,13.511650949979959,-2.511096478907877,18.399334487187055,16.885765204963768,-8.025788739865208,3.7203758320258054,13.605120630589187,-15.05878245666014,-16.057615663075445,14.240862552310954,10.328479021824023,1.1496482648476918,19.668154803730307,7.090888172386732,-28.910580679427017,-18.527014932110273,2.567624628438246,-9.840615989234301,-0.8312096410703322,28.370800957584997,15.05349708089895,-5.688075860517537,5.575761902276358,-7.6365717203450565,-39.86808598294423,-23.072701875448978,4.486466700351901,-6.3493532917425775,-1.9919645183796977,19.891933158100883,1.6055666477510897,-16.367836043750994,6.339175484608203,6.39188723165771,-19.05136488654239,-4.711519941498001,14.575991301705976,-4.2555775986757585,-2.219139890325735,24.144300229726714,10.7936352526601,-8.936075339793964,6.375244580190797,-1.6509600267313234,-33.15173012438242,-20.31173042416423,2.888528260407093,-11.661139358727642,-10.103719317731798,13.474421673054234,0.9951468155975451,-12.102259824157908,13.798115202699698,15.716929846652302,-13.630855949116654,-9.474402880163492,1.2546745766474956,-18.99720114453925,-13.365331221728384,18.422885093004258,10.562998299122327,-5.150388459847387,13.738358525080427,10.02375001458069,-19.53502081275273,-9.900329060295691,8.14710257067058,-7.9850555769716856,-3.9179812544253503,21.045955106397635,2.9657555940434417,-22.883006198002214,-9.50231079276572,-12.00501772827763,-35.553713973964705,-19.24142025533809,1.936530007387388,-16.078370689951257,-15.492626855536994,10.027106767014141,-0.9452297585180922,-15.582055361053342,8.089344784105055,9.610839455671442,-18.56208307589291,-10.34587250042802,7.464746053870073,-7.878582902500691,-2.8046808661434746,25.84001670781127,14.392112181293346,-5.497288203391399,11.421806315679074,10.150209261825651,-16.29278088670285,-5.8720647898743366,11.749337963299297,-6.469891487328843,-5.271730106687561,20.813628109382655,9.611559270494777,-5.508626022444641,21.68109665796414,35.102868525773324,27.02437186338733,58.961409647149466,97.87570920632865,96.7945693931107,110.77792254278259,145.68813033683932,136.22188929143886,111.63578237897046,116.6345590441911,98.10233867454946,54.29267216278897,50.813283522013066,56.477704978634826,23.841834433861703,3.2412011183681724,0.2810125488759403,-39.57876555606002,-76.48959926191543,-65.25344153745382,-68.00505726273094,-99.9029134912117,-101.5780111099798,-96.16998719163881,-117.22760552980856,-108.31275190083127,-72.42136613393285,-81.83151150426228,-106.07832731798003,-91.8212690445552,-87.40172975090222,-102.58643297475449,-83.7679243902082,-66.43062876588456,-92.45747474377367,-99.24555196446767,-73.38016151715436,-78.05060604599484,-90.21989269958907,-70.84717805569232,-74.46759610374649,-103.80230361307302,-91.58118603469774,-65.20950250641994,-70.82195279869987,-57.98166916141443,-23.278090382195934,-29.823974943012587,-45.950049896546425,-24.96392810853334,-20.623595068286598,-38.98987312066477,-17.230769981763018,11.339486926604003,-2.652542889116722,-4.917801091025407,14.88190193139051,-1.7601708902253268,-21.361011142348275,2.449619277560858,11.1838216904389,-8.894755081229418,3.640549117889673,21.69878061205298,1.3233542600336161,-0.2492459044540718,27.826737555243096,22.00837131697594,9.726164500695145,35.09386432904134,40.082056570421784,14.513792376226672,24.57465962088456,45.43964501322572,32.75019435135886,39.63628500993064,69.5937832104372,55.154742829037446,27.6108915492838,38.53821891223165,34.83969163589098,6.664837293084002,17.34632355636866,38.26238939867666,22.395331761016717,24.675804113357955,53.86842288071664,42.99573434368895,19.307161713846995,34.18584397240053,36.18660042270691,15.064766583738301,33.631990330092144,60.78402368093054,45.58522348705651,42.486100827091455,64.40009911164911,50.060528535885,27.370048250848065,43.56853745809918,44.56681809671889,18.349729165565538,28.084293772323722,46.88447325852626,26.945218029028297,24.723782688424397,52.94744338797351,44.538690569990166,22.429573641680022,33.12840416007219,25.024614601590645,-6.52370228766879,6.8067064414867975,35.81905973421905,27.599897149751435,32.41048132719572,58.94641722874286,42.83168101229175,12.915954311279037,20.704774078610292,16.54897670815573,-8.164140177222299,8.780046053831303,35.173824729541316,17.35511482428261,9.018064561546241,27.423009026443214,13.3835443702673,-6.742730050589455,13.760673573429003,19.085227042199985,-4.995436166788599,6.800585705636581,30.60440669415601,15.899251015447984,13.729966796507988,36.83683290649664,22.78511067811839,-0.6773181567974369,17.525301884425428,23.37585306219968,0.1809555369416369,9.205962546409987,25.55336684578311,2.894065782020105,-2.2604880520089243,23.299319133023612,11.956901403249788,-13.2710972045981,-0.9281376301375399,-0.41578329350441345,-23.4036759844584,-7.388670394073727,18.583468201381677,1.1852001640691796,-5.377640307016252,18.0392101754286,8.79231073652775,-11.769203573580372,4.9671489544435214,6.616721444690238,-21.246840738357502,-12.332242031851058,11.817767490651736,-0.8159184596640099,-1.6746750109300867,22.16873891184947,6.356445024297565,-23.883251497902528,-13.080181622045902,-9.054121586546328,-27.908404976774666,-10.032143201479952,15.730413846593585,-4.641804401865247,-16.109787018360276,3.0962534003447217,-8.10884835667407,-27.401193577229986,-6.298966804511418,0.43852587676994714,-24.12981999558042,-14.872114496976488,6.4259377791689545,-11.251471540120143,-16.417438634530324,7.293119606070109,-3.9561811361714767,-28.52013956545122,-15.942384681065835,-16.95785060378919,-45.98612334257109,-36.37776470997234,-9.863430662116112,-21.557012302206093,-24.245418010077152,-2.4313098290222044,-18.310515050388688,-45.87006541676882,-29.88966860055623,-20.794356767766097,-38.52779077361226,-23.059404227124947,3.239174421221785,-10.479442648244678,-14.548522263627614,6.9275631220634875,-8.5432677737481,-36.89844482320312,-24.074023360828903,-19.02372047624159,-39.378142776273116,-25.07669599575054,-0.76781898951982,-17.308846192992384,-22.473607617042244,0.313798183813466,-13.134395391203025,-39.76453020366149,-25.177775818413078,-18.287142483528836,-36.52771734574257,-19.280802826669873,7.601008460224778,-8.747032339129811,-16.212716919075124,3.51054414515829,-11.101595676450941,-35.78789946683508,-18.15490201018231,-9.476428307558079,-27.732384784130957,-11.377019718685471,15.26106666260619,-0.5477764989667584,-7.219184199121975,13.193211298578937,-3.237767110253591,-33.14028226944385,-19.4263157112953,-10.335119283127897,-25.92501078955157,-5.719366549324281,24.262655736354326,7.268591909691887,-3.7490603020991937,15.947407499719866,4.831660547986282,-18.60181284896242,-2.901252180348747,2.164379365808845,-21.69237225457126,-9.54817991478095,18.314420269042593,5.984894216268772,0.7698512948436902,21.991493954220637,7.4884156852079915,-20.236565945963083,-4.113392819064325,7.67986466469524,-8.30622165779012,5.495111731520188,26.246629254058742,2.7067489599893495,-8.67248325553114,17.34895633256805,14.976773368560899,-2.6242454002086566,14.462328046765922,17.237324453146535,-11.799813017587432,-6.565856384015298,14.944946166569839,-0.13027832242825,-2.376191695381832,25.986810836117172,17.818008654432692,-8.568104222175801,3.000123200962916,6.914455739742953,-14.631783054793694,0.5771955962949669,28.41258525771636,11.860962024005303,2.2265573876219733,22.787595838540497,10.089508000936332,-16.13805376776746,0.10674101058730834,9.30483037534966,-11.498814164708065,0.424505434028859,25.498498180358695,6.847306076434872,-7.14138171246891,9.139550375072742,-3.002592891089905,-23.669805676163097,0.8405099080950791,16.85569347630628,-5.119024815920566,-3.5394938198915016,10.37162933572717,-9.050384180170633,-9.45654912050907,26.07723898975661,24.643409143228297,-1.4930018006542252,4.531411183291469,2.3506565609329013,-22.5380646206329,-7.3357377184532435,23.070206365766367,7.919468526031164,-5.528871092861538,9.525903907229704,-3.2575032805107345,-24.546346453462984,-2.9958043839563917,9.822032328524934,-10.417695573638465,-1.4675891911000134,19.707001181105568,0.2719316552840336,-9.449949943124375,13.803542718631242,6.768417684722717,-14.714105411047242,2.515415936601693,11.22746815503518,-10.051128779684623,0.9575800480502572,25.713460148226375,8.108359170338044,-2.5402542658213516,20.42875107059119,13.995845226041359,-9.192464066368174,4.183805321076834,7.891797627862478,-19.133139226196832,-10.686221265409213,18.00656431686213,7.846063369510538,2.064632596098972,22.638065373337014,5.893347824060628,-29.864235964588996,-23.064853344434336,-16.49479891042676,-34.42595293215119,-17.321375257997946,14.331601308264784,1.3269757203034498,-8.897000530759088,11.348196403951007,1.8982086735275185,-21.967459273986513,-5.77135410698235,3.569016819203397,-17.85737769005317,-6.964111760838389,20.868143723664026,7.9145255672895205,-2.2571602601060543,14.631573552429435,-0.7199848668468363,-29.614244704331067,-14.757354875727787,-3.8426607721494084,-24.067717805021687,-12.766221999745897,17.87517315198895,11.967548657564503,12.050961859670574,39.07157341341557,27.79629361547991,-5.692164645664501,1.2801451708518332,7.764174117103822,-11.727755480374977,2.437487792963525,32.33253497974046,18.502206312198425,6.132996526877432,23.220373765234793,10.876405984651809,-15.675627366564335,-1.6091762776488903,6.375379875648172,-16.719602964786745,-7.065734328395742,22.67254868629099,14.43145473490214,8.5975569962407,27.72997906081972,11.850249556361824,-20.196265095032956,-8.167614007856116,2.496710505848711,-17.49917824097787,-8.591655052245734,15.99643733710736,1.2253340813737221,-7.039797438498366,16.8303815819949,9.355086294076433,-16.20228395437761,-1.0759637457755797,10.650280903758613,-9.687033292082385,-1.9513272839914286,21.18572446456665,3.600274064342031,-8.696418185035492,12.481039274480937,4.650475571935264,-19.486351863492043,-2.1817850049531806,9.726456129400258,-13.65137021902404,-8.80260330169318,16.27562088288498,6.6062304679393415,3.8242321552616736,29.350877790990076,16.466060473601985,-20.346721621419896,-14.782793168123376,-5.52494440852537,-22.314600863851105,-8.132206629912334,21.056143283020056,6.484682613633262,-6.396238653115257,11.97883331908184,0.44445448119775754,-27.915116561966467,-12.78123839309201,2.4661067253322324,-12.674874386263687,1.1665886683264208,29.926059235804438,13.928907719053893,-2.034238808322668,13.679248890077538,2.8741007006942088,-20.862516733957204,-0.6312491391301958,14.867743502898568,-8.334048370708409,-7.663892808333275,12.0133582335237,-2.8154844585231267,-8.56332729235201,19.73720880763579,14.149576704629961,-16.17971396516448,-7.605374597570293,1.0898668372040978,-19.843190958174645,-9.942130020238318,18.17231676490166,2.7201979376195666,-12.115511518669056,6.7029649221902705,-1.9620469794441622,-26.7812590430347,-8.00307389664285,7.869033556109132,-12.894728303754682,-8.018577500823968,15.283475515165438,0.922592717506264,-7.358291358487049,17.61373330548708,10.114025011166438,-20.185052462358513,-11.0169620344621,-2.477645170737864,-24.475540522277498,-16.609339502584085,10.076928903024681,-2.8790665825127952,-12.047481802714325,11.734246003773915,5.288667409110259,-21.866747142735413,-9.217303935033534,1.8369169100006784,-19.651522210092494,-11.933354879860726,16.414407272554527,5.2628705904999755,-4.657998932095604,16.34672665839267,5.417102812235715,-26.87896800088331,-15.323393209753696,0.9835778785518361,-13.424158303514073,-2.7276976860629754,22.04894061389669,1.8344331435699441,-17.25353672763059,2.1448113023613153,-0.7063578936745989,-21.856140836935097,-5.2446634995513985,6.466233984466744,-17.953884847455484,-14.817161559666328,10.735746628387925,-1.1879256714028674,-11.290943602176329,12.47966886737918,9.72015632138458,-12.41227365671683,5.2471319606832605,21.128769375635017,1.6592097169704711,6.853153714954046,30.28678170529804,13.43265233581655,-2.92799204979727,14.041956781833138,4.878147203167366,-22.578855229475927,-8.778615412658723,5.942095411781199,-10.194998079719536,1.8507818824615123,30.54602035204481,13.917503658983936,-4.904288056843411,11.06869958811643,3.9572837160749508,-19.806284362796593,-3.9068428995018127,8.173659385577311,-15.199210118523464,-9.754196262750286,17.444924240708136,2.3556565235255125,-14.231061311886128,5.948292374290489,4.1689773412562205,-15.545708381260816,2.1912764041408668,12.01879041592439,-18.16272055795114,-18.086324579497266,12.967971903541486,10.789202373583755,6.61428327112294,28.246839687993422,14.281659061057264,-23.783542664163846,-16.996316029991505,-1.203805969106937,-12.647513265685072,2.768409044604338,31.950478190199213,12.327669369708268,-11.476867023538375,1.3207807249514314,-4.781078201372499,-23.582707127080468,-0.37693568976104075,18.901696556069137,-0.24560354717282706,4.323470557986255,26.451576276894453,6.08415250046885,-13.292212328074799,6.1778804685755055,4.832661452790825,-13.65482772238953,6.594311065483209,20.978584713935124,-4.554961662261789,-4.213757894316477,20.493395957524513,7.846944916760782,-5.223799248547492,15.462059587059219,10.557196500560641,-14.017592516169831,2.7735546450846478,19.58565776316589,-1.5470377177323336,-0.06782634662798337,22.126117500102858,6.590417400390475,-6.9110051528517005,15.369601113694719,12.375822518512747,-10.687108230801648,7.119624852370352,25.710629040131153,7.736504830905219,11.302767862639696,32.27871689219767,11.593144186468184,-9.7746776189119,6.55339549089493,2.6107769188127303,-18.253888386576133,2.0051386364281445,20.693001191360626,-0.63670503619295,-0.4011561599793749,21.8525277089239,7.3676069181291926,-5.954061907634334,16.109238094354723,11.52505228765925,-16.987426420170635,-6.8977085163927505,5.267683093413446,-15.215354015297084,-7.706973592844932,23.1839816946946,13.04120062139867,-3.3845514972940878,10.692406772112605,1.9735160979519089,-20.508433715932796,3.0841132002474083,28.33481141767072,12.10116880857458,10.168252913191226,21.571288225217234,-6.872107721350691,-29.38256441553825,-7.159275839583509,-1.8350768708692047,-15.187860601585147,7.337336798046438,23.331993986970968,-3.2157253932896808,-7.134877889732965,15.577246135276106,5.2130909782149715,-5.113901861401024,16.200507807128503,7.983576134843876,-24.48141330365246,-13.950987499119694,5.596017183248885,-6.3350420138041565,2.758507469841862,26.881734417800644,6.623936752559306,-15.510121049908479,1.4869562570454224,-1.5219026101249762,-25.442745301527676,-12.580795295071166,-0.7716762766988672,-24.37167024291926,-21.162295494773627,7.119271336586047,-3.6721333251949417,-20.26948828918672,-5.798363499336557,-14.986731738859573,-41.22390587586681,-22.42369578542518,0.6012922683668691,-14.803225721826387,-10.58413691931991,15.248521146823059,4.8330895682619115,-4.673757960694856,21.069258342826537,18.438519397131593,-12.094668268656239,-5.235056947510081,7.019829199694886,-10.990918842431936,-1.8739351026654116,28.092793813241304,12.285532430915378,-13.195540775792121,-5.34635087552838,-17.472122842473183,-46.310784684768066,-30.808659329150935,-9.693268797674616,-24.01918225559802,-16.213261133453212,12.296022844607188,-1.032776171358604,-18.83301483416323,0.5850478442223146,-0.5694230131236755,-24.52518778700462,-11.760850539576795,2.928708971738745,-16.79141623350626,-12.076913327277005,14.796374543300026,-0.17965260467845923,-20.76844270511655,-3.465255359643896,-2.754487292435509,-20.68447673649702,-1.7341838360847621,14.369181783782613,-9.518514494008267,-9.913465964952938,15.511802739758947,2.464626342485648,-16.594321345547304,-1.593278264316213,-7.0124625399348455,-30.60269937945468,-11.573501139896493,10.37977814119639,-8.649842971718918,-10.409263000147028,9.83412930080097,-7.083336462264775,-25.768115958633917,-5.870213770242433,-4.601903976016118,-23.60865389478756,-3.1365057368072513,18.924944929824605,-0.09644084887188065,-1.8148411434023228,18.693994654872125,2.329790996094035,-15.456498561748033,5.7238916433371365,7.36720316387862,-14.514533389051024,-0.5777897616134009,14.625346220809272,-7.384985401728892,-7.53997952043911,16.529240697287484,2.586229192191306,-16.558891298844944,-0.742912444161842,-5.1436186559453905,-29.848674464831987,-14.109770676871651,6.035655876304759,-11.069648441558813,-8.63984753517076,16.96927848880525,7.228048540415021,-3.095070977084813,24.390047313293426,28.568903887766275,3.1525571979919516,10.24853328340237,21.515066455382133,2.1719912600658144,11.890738272317424,50.07003449876086,49.39177626884703,42.07430283260344,71.54420175393376,82.94389880160207,74.69090825464393,106.31551531157267,137.74740011536142,123.60105817881691,122.5204501590407,140.77832235271174,118.70958974672646,90.97893766838226,99.08636291101877,84.70830299830104,42.08539450361295,32.91101024932879,28.923539832453137,-6.544024313817392,-17.18938100265357,-3.965712807554504,-33.365518420402296,-73.08555249240655,-75.69515127537548,-89.93807381816174,-117.68391723069938,-103.34262388609312,-85.87192553953152,-107.49786406227773,-110.15657697688685,-89.20457199656224,-105.17235724092055,-124.359101821317,-104.16121183605239,-100.43898244093546,-119.18270348166652,-102.54219988348022,-84.11232461374165,-103.50023814758454,-101.62463517516376,-72.62853752188136,-78.9796689084971,-90.96429364778206,-68.38389920513492,-68.55156385199902,-95.61948743609159,-84.55339272327214,-62.654997765888666,-70.3198221574612,-54.79389548439125,-17.023353892948386,-24.205556262095996,-47.12960178997097,-38.11162599173147,-43.11696308916021,-61.89071747293071,-34.4188945287262,1.0951854833741823,-6.319069216811798,-4.079856093986348,17.351251508792362,1.9613571287290217,-16.293981548251402,5.097236802320724,8.971653276958962,-10.00161757830844,11.391090962668777,39.827793064557426,27.20389375299095,26.970783769502546,46.89694284127495,29.406149990401946,10.245467904756584,32.89358010709283,37.27607924695536,14.915054232168892,28.776156041513122,49.69034868580516,35.655295416777435,40.85535139515694,67.61695672921051,52.56848909501923,28.49756394458438,42.185309280500384,41.75257778245976,21.949593690093515,41.7322766138214,65.4714218917489,45.64376561320661,38.34237400830208,54.98642652594482,38.313175918137816,21.131796373615696,45.200470992604544,49.41777842088751,24.659524881812715,35.78958495347002,54.326635851749515,36.47416269827624,37.79926374777664,63.87675860366729,51.516769044468184,32.35846794917468,50.72743283237744,49.825398275591404,23.185663282408118,34.59231453231646,53.75745527324758,35.905595455573525,35.291961883292686,58.177117565570974,44.23525338851627,25.87466745672495,46.41678064324485,47.24975997182351,19.23506727822047,26.58848437697776,41.86265837510121,21.622681593763858,21.068333366185115,44.90463116249385,27.753211852702364,2.4134245724055,19.397836051867557,24.484558960397873,6.586497794698479,23.450400032564783,40.23348988951107,11.915682496285783,0.8029500181093483,21.564071949053222,11.849596511540362,-2.6811239040588104,19.999035345330817,23.75637873384889,-0.12765326062207194,10.89156518744376,27.920074780635872,6.415453054533872,2.765690093597978,26.350166012080514,13.199286336743942,-9.425531742438816,5.459286737356649,7.258363705952938,-10.848533236868416,10.56640627828728,36.22117782102253,16.559075680452818,8.491680287519126,25.41213961824984,6.904636747884619,-17.644496310405767,-3.0310222632307315,-4.357536989449986,-29.020509984860624,-14.397094366085595,6.961033496360064,-13.551800958057493,-20.855853436876092,-3.5319831132318544,-20.22093571307005,-39.35189874461045,-17.220353286902217,-13.097022840515413,-37.98231344761266,-26.552353012486883,-3.11248652870103,-13.15374886414143,-6.37845729640239,22.020551207639876,6.620736493911338,-22.23771019589509,-10.94041001283463,-10.338163169451885,-33.95259787340372,-21.49917358954461,-0.43082733726323585,-17.11968254512812,-16.546638112498382,11.736519749875836,2.0928223075017405,-20.106361518648278,-6.407456640724499,-8.113066350233154,-35.00906392483838,-24.202501157140397,-3.172610247410719,-20.24435988990474,-22.203097003507658,3.206544788415071,-6.533882963309891,-26.0831306232822,-9.022411172522785,-8.805742266372969,-36.2695720603239,-26.15911574224077,-2.351042910124951,-13.29523579443416,-9.706193637741864,16.433289385014298,1.6584094535351266,-24.292387271257443,-9.706490667070321,-7.48450168506203,-30.919293590500565,-18.535837964928756,1.7600915059876137,-17.236686517716766,-20.546181725209525,2.708375632033608,-11.661247604201854,-35.379879771950264,-18.562934519324664,-15.290064721740771,-38.220158412797105,-24.414300883368174,-1.8362613203582363,-19.35888952534529,-21.72502399728998,4.188222276761222,-5.584646264135943,-25.132146146675467,-6.75623793491355,-4.284414838464937,-28.352961826158847,-13.827885249337834,12.625142784862758,-0.6495849120517825,-3.7369607795395408,16.553871120861107,0.9036516036750974,-22.408838006687734,-5.31339384334863,-3.0141516760656186,-29.818200207160828,-21.27052992143597,0.06519133012787126,-13.336018666869098,-11.187228183852246,14.861108414925848,-0.7101556365670074,-29.82279723220747,-18.601767425666438,-17.4208041296991,-40.274214723945036,-26.436594019113777,-4.678580371013451,-24.021273767738098,-27.028239821132637,1.1859442928959343,-6.014219155207681,-25.653841195941332,-7.96652810170689,-3.6252013160192544,-23.63746974795087,-4.598386799152168,24.35219268581942,9.698608439796827,4.0599815517422275,24.031460557575727,9.593526924253634,-12.698893095626195,5.130120677913286,8.006074977257438,-18.721625552041765,-10.68979215080894,9.031093139478461,-7.661628449647708,-8.359039174673432,18.82449549350769,8.821265237004491,-13.215336018391357,1.9793180604900815,0.4296232851190811,-29.44819580409331,-18.47732272953776,11.227829929338165,6.969164731823672,14.924735852262371,42.85851708939667,25.66086158439189,-5.7194580668927895,5.97629741589374,7.429821077708127,-19.556199530946746,-9.774804083192235,15.116750899548098,3.6785106844471027,5.232464110142435,31.47525345753897,16.180284821574908,-15.002483605245391,-5.332885980184633,-3.8024752903284895,-28.237359169552644,-15.600526882892174,12.778432111891956,4.084997600139115,5.107263705457408,30.109615230302772,16.364394386720765,-12.331208517258665,-1.6231240761363779,1.1565469034458817,-20.846608744845703,-6.739731356693079,20.721520733497886,8.97539868695695,5.987256007382652,28.460168136352436,15.179827311211781,-11.676789218070184,-0.2389665899396043,1.682627008439828,-21.372608119734437,-7.737615983816092,17.94398389647381,2.445245294635635,-2.755046435801285,21.126861431296636,11.67815313070309,-9.213081582177571,8.461657793959727,12.734799716330055,-11.408211029209015,1.1290000321076228,25.974052163599897,9.006080847355062,1.0959209096148304,18.96904492777529,-0.21471261438925993,-30.435785251779915,-16.711394768689182,-9.639125352464125,-27.45677429025916,-10.327207829398342,15.148603283661082,-2.225759637641847,-6.713951322659952,20.90973344962464,15.322239608781064,-4.164308814690304,12.330542072463663,14.05880326399987,-13.881818014136025,-5.281955885625887,18.61572817449533,4.580191547166263,1.624802634108721,25.965816665258092,14.232976779320918,-11.270483139286817,2.060668165144037,4.9773810007206425,-19.278992934629677,-8.22867539390995,15.834833319101364,0.2056952156395333,-6.708353568923543,12.701714212058864,-1.2962499487461319,-24.306579876834604,-5.037112938050226,2.878586859488036,-20.195196770488234,-9.46539548082277,15.573007739009022,1.4344102396926903,-4.991676626964006,13.525098675013183,-2.0226439260700406,-25.43072872243254,-3.8406521136297425,7.824710402847245,-15.274445489829898,-10.329334025797426,9.702170915989868,-2.1641360678762087,0.9000784683864853,31.952665899276845,24.252172520734806,-2.29308228094283,8.745740347044547,11.825345959306103,-12.220183090226566,-2.6885192500041635,19.363564418505312,2.020453701638072,-4.823491326721826,17.65120005684579,7.116785472692009,-16.15959958697165,-0.8996142456983574,2.739801457809522,-23.316848065581446,-13.516522376880811,15.070846820935085,8.70317567733376,11.44568220505166,38.023018841958965,23.903523909916114,-7.241347988498024,6.094636925251644,17.56469082848608,1.8357506645924282,16.520443038059913,40.15678118516885,19.201446270207782,5.9418603408926245,24.947669630606278,12.480073838211407,-14.955718461978593,-1.7782099059067829,5.7862237746485725,-13.995179673516091,-0.04703520484290458,27.27052953358288,11.742888683314057,1.5356685962108712,20.579707372618095,7.950418444827408,-18.945606330111573,-5.75167993223316,1.510911100905803,-18.150202917851438,-3.6049677264911004,24.783275214618307,10.46811989808216,0.839902628408846,19.409940297139148,6.76825319005201,-17.155613118321433,0.8997393378024459,10.22519994326688,-13.186763631791232,-6.874044848898423,14.336382100188429,-0.5497242518076941,-4.075500060018562,22.967454778873535,15.334792385780029,-11.246667663105654,-0.866933880168494,2.649804665599584,-21.217367619899647,-11.285137866936953,13.952268184481294,-0.6951363362312968,-9.518470409864703,9.869436272118103,-2.1014236138632096,-26.561952441478365,-8.738303271603346,3.405606952668759,-14.82408712159765,-2.85916376681293,22.145401835292883,5.965334520813739,-2.4572918118366465,21.93262185436927,16.62010943439623,-4.6497232491400124,9.93511753249196,12.847623302070048,-16.094133707950416,-9.973843788273575,16.39297560598057,3.986638512565463,-4.116749844513048,16.457443697115934,4.660743026429714,-23.32429821100472,-10.012070232155061,-0.6716016722333726,-20.044756419505262,-5.141645788425583,26.324563690182558,11.289783292396045,-5.648428377082561,8.052294453951621,-2.7123876291370763,-23.227967212068787,-2.022966999149567,9.893119076731303,-14.846014370253963,-10.6262040552556,12.008701544643253,-3.8804317723024884,-14.297889579789263,7.156714871488125,1.2473665744458984,-16.868651735456332,4.825016228750306,15.50527038548638,-11.449991488685377,-11.232618182344314,6.353426286345934,-12.348358077607093,-23.183732191345086,-1.9663452609115204,-9.60398343616021,-31.260482169187615,-10.891040579745942,5.0023528972184685,-12.201026453422909,-2.3604996909699336,21.95810564129224,6.188267304965567,-4.053984584145102,17.20306776897233,8.15172671732321,-18.08127438038089,-4.989294654080954,3.7322904247082693,-17.698778628121275,-8.81601121163361,15.770638805100223,-0.8698202574130907,-13.693257863454717,4.860915644914572,-5.5971536932352635,-31.789500455892103,-17.021593113174653,-5.500795667003562,-24.630947499396992,-13.781599387203949,13.626807749905081,-0.4613905024346785,-12.077220371381095,7.402926902921568,-1.833394832418409,-26.74011348144741,-10.23729073778039,3.3752446480155025,-15.003833889691585,-6.030802006016065,18.34824981111511,2.5380671300750155,-8.603163491469966,13.08777676495854,6.1885678120707635,-17.611401499544414,-0.5717031046865042,13.59010681647422,-4.7126043770057,3.439020562024097,25.77183407621297,7.175477073467082,-6.999194967901118,11.272835108112117,0.7430051570988141,-27.46156399315341,-15.437238795323022,-4.128868874003383,-21.559474878964796,-10.502454347442304,14.3358306718128,-3.8075944421385532,-18.709387500595536,0.9673481526778573,-4.2787700711177985,-24.18698643329742,-3.5861056084330336,12.699985338589148,-4.295978258924947,6.904062832931123,36.33911199698969,26.198166171101878,17.349717845283593,37.02961728264715,23.64618462762085,-11.857988542088549,-8.470527748722414,-3.583353696314318,-24.33525671841692,-13.061951276394321,16.74986885145732,5.314551298893107,-7.163118356862519,10.165550996380745,0.6151596565303246,-25.06297959022891,-9.753421828294858,3.966358706929032,-15.485056435189136,-8.276047310572071,18.204225785297645,7.320837868888536,-0.2683564985916811,23.578958848660072,17.265417353740965,-10.117191638793766,0.6937989110505658,9.708364013685726,-13.266222030355541,-8.873241433479015,14.406033810285603,0.1281794247871808,-10.182249009803435,11.648494326143062,2.8874891312555695,-27.532279813316606,-18.181634774511092,-7.2693130629146365,-24.81654184965993,-12.799141563848083,16.367892890633836,2.998937717923992,-9.680223180093245,10.992426290983222,4.9998030222916485,-19.57225481006119,-3.9298335576688537,11.365089306900307,-5.805216745408467,2.6821957959712535,26.887554008606582,7.61452075828856,-11.844837575707647,4.485353836900947,-1.3553750674346698,-23.12680695923654,-4.553064821206748,10.648873298271846,-12.107223994572992,-11.543229038049873,8.868027000561163,-7.0330473095161175,-17.489429270621258,8.335385818214395,6.735715337692217,-16.52820248560728,-1.3819745853661356,12.102945013012476,-8.341100166935167,-3.027721616239706,19.878895163869174,2.3070145561699356,-12.218370278853966,9.685812573736616,5.563334837312217,-20.17390460468946,-8.523463540740863,2.3201405552945316,-18.264563776736516,-10.868469899182642,16.02807902084748,2.659788088943392,-10.163989364239836,12.434008205233912,10.797309431666989,-12.190403054946366,1.8114827088203427,15.236942189132556,-4.555430941666826,2.720307286235884,30.4185300176449,16.196720742958856,-0.10982665871968456,16.918898162020312,7.165578803828158,-23.47491848912732,-13.695944417231338,-2.4874389594164037,-24.473328539626664,-20.213851259217197,5.557307638279449,-5.821752248461479,-15.095860842871069,9.855397580555799,6.103392376353437,-22.438833377737815,-11.12829907733909,6.515359422207144,-6.154459805048827,3.191054127840739,26.23593986474223,6.1036168294639435,-11.64075070926988,12.776468815105751,16.78726995139691,-4.744871062119913,3.7499642773256454,8.459687399214971,-18.313540950205088,-13.597902518349363,16.374764170006628,6.26623102705153,-8.254920776505008,9.199529052403893,1.1802278506804216,-27.130664418932998,-14.89435796235382,-0.4857011490636691,-18.148744427328282,-6.809625451664747,27.971514768302104,21.42213957731291,9.398698318828444,27.768950444948388,18.71662211424769,-12.041711772920962,-2.3203638017492008,10.261407932433087,-10.76476304333599,-6.006439338532728,21.804287603585347,9.90191687566412,-7.166124879487672,7.314725839357912,-1.3968307442707468,-26.20666947038819,-5.246761413741353,21.06243545119423,9.557868689541145,14.059132519494204,34.12357707791122,14.762993149272706,-3.93199591239749,14.925735148857383,11.236517639619358,-15.088593264180531,-2.785065601922655,13.844237117277476,-3.145653582399408,2.0998748798908604,27.358296143995926,12.785330071775704,-4.119500873636412,13.838606572531646,7.915640809288563,-20.540723065215886,-11.214938008629789,0.927679180376277,-19.03984884642969,-12.046976049146505,19.78150651495265,13.121997119618893,0.5900354275953248,17.661819459954277,7.5652902846919226,-23.564527720655907,-10.200181940766182,11.387163241655678,-0.7387463207966771,7.616144987828474,34.29608777643773,19.610717813131938,1.152862929905039,17.922709925177596,12.947535745042925,-12.089626457048194,4.0387122465794825,24.007027856809422,5.662446318847528,5.424383013674091,26.321293712501692,10.723637675378669,-4.420209830156304,18.617757910502355,18.30425940497278,-7.245698039575517,5.138332761322724,22.18909211687526,4.3767461615792955,6.795596621493104,29.482081268149777,14.009172919311832,-4.09914819624937,12.871485175916035,7.027159122986862,-22.793870845736073,-13.215477019726734,5.675715380954195,-6.514919208370355,2.3034386504769095,31.30476509538624,19.391393660860825,0.9658050952026453,17.29733226961013,12.373683457310696,-15.287873094109315,-1.1540923631061606,24.471475857790587,19.140577509543714,35.555789642032344,75.22431443525436,78.2719636957478,79.79925354211954,119.61069418775587,135.54036618785315,118.52211430603717,129.63157444158176,140.64545289826287,114.91526178654411,110.47456019814292,127.77547736264415,99.85723072712325,58.58557630335085,50.833147768887606,26.908978050755714,-14.335995655881334,-15.136993216104823,-13.910775642836487,-54.247487874672935,-76.56925215410473,-69.93717266797779,-90.28262601972864,-107.68285776589613,-89.20597770019346,-96.9074785556569,-134.21042721850876,-135.36587851625228,-126.49680884100763,-144.67474197179277,-135.93952241041904,-102.57470934975312,-110.3176033777143,-129.35768616037643,-117.94312732564393,-126.93559134767226,-154.37043805161932,-135.81318005605942,-105.09672903744685,-112.19290853480388,-108.30243699774834,-85.87435870370531,-98.10016687526551,-109.72190401577811,-80.78759988631558,-71.99794561922036,-92.40377075853074,-79.52000899729845,-60.45426753682807,-74.64041610925086,-66.83303048728442,-33.530645609289394,-35.91737689925965,-44.3118074885041,-22.50155315414815,-27.725977637260588,-56.81943495377292,-38.519724448144046,-3.788852454469584,-3.9920782750531094,6.579900232495632,29.08215513929485,6.381072538187262,-21.074799838663566,-4.753665956819314,-1.0639602558487198,-19.05647840915123,2.4209452488924335,32.01787715286213,21.57242099801791,22.800630334889824,44.9294656905284,30.744425207831515,13.278055748037351,37.04149281767784,44.85580779468174,26.96020229203913,44.11709450849905,65.10024837666026,44.91209997497998,39.43099135380142,58.38459842926817,43.41171733111158,26.47277566312784,49.869074616893364,53.915020877002625,27.346114651402495,32.40590634428931,43.30796256971512,20.75695442995925,22.91966924194531,56.05355876871841,52.767121862083926,37.38370649484003,52.7529563606253,47.434079043374865,19.227939443131284,33.183978307882036,58.09609805191301,43.645763127528454,40.34606790732431,58.30631040210981,40.84435696903711,21.34306088097781,45.124219206014644,52.28540036257431,28.175447670099874,35.79739625345822,51.453995418187944,31.865425144084433,31.12904693001233,57.582056514195436,46.1083086840426,23.723027253176795,38.96214061673033,38.70420244698737,12.318950402474304,23.093770082071153,43.24078266256002,25.10772263200698,22.459986361227934,45.90442524403515,33.752321126392374,14.928092639623078,35.53460071875771,39.327176927417334,14.035864937886661,21.995720998566956,37.44374289744351,16.401494842064125,14.250182391765076,41.29963927140322,32.78911304276762,12.618245322848464,26.296371508026184,21.664812750402373,-10.059639343892034,-3.189508786024634,18.69280981366315,8.099266600676689,14.392977300358966,44.71320833486151,33.14719552773004,4.676576743168607,10.31678540424191,4.4919660427627575,-20.113450533278833,-2.709289187299726,25.34546037687588,10.802858570409779,3.903236322900163,18.72050064411304,-2.599097967612556,-29.612567877588358,-11.978666300443198,-2.6463378670830666,-16.75488929309402,3.1801818601274796,26.400674662266848,4.0487365854477115,-6.611310905266384,12.669437171684889,0.8799658009296625,-19.64297785672848,-4.08869703290207,-5.0055313358511135,-32.74704909430621,-22.380627159071697,0.38345777182644003,-15.527612605035154,-19.31191122650844,2.1351038467618295,-12.879784107036926,-37.87705415166422,-24.092243889909476,-23.718505415985245,-47.47807982453573,-31.09334572788266,-2.912297552320921,-15.69396013912598,-17.587762686115976,5.061055809674569,-9.946733580918034,-34.75023648867892,-17.95895180090299,-12.535491559201594,-34.09686161135691,-21.35923051878671,-0.4263903064929009,-20.036058677472678,-24.67247034388534,1.9857773230191764,-4.828828178802938,-24.305277861190856,-8.556285876133995,-8.143215193253301,-35.20043661364702,-26.24051787164766,-5.5469209421322105,-22.61178439312429,-25.280543857117088,2.376793777581508,-2.8492261769879255,-21.568698581676376,-7.147384123535713,-9.341888769101535,-39.28320970780992,-29.74495667575418,-2.060271799930078,-9.953284601583217,-8.232658837498732,15.480533063177386,0.8100711204881961,-23.952792134437253,-5.66186890868369,3.5363256943382018,-15.643008195576595,-3.1387261773185857,18.918440437779086,1.131948523270852,-6.354187241002424,12.721924521713126,-2.7668539769329463,-28.76125107807953,-12.28716313647487,-3.552667357102981,-22.69353625672493,-10.509762429614842,11.117870460200807,-6.92816572720638,-12.807041755310912,12.08017305129331,5.329133972626555,-14.133577550492424,3.0543777661988987,7.004467730564711,-19.620184151165446,-12.270372165532226,10.996428771640666,-2.4196851153297985,-5.8448648554041664,17.73022790482111,4.645091575801572,-24.546730457505046,-13.467907164531045,-7.1789991087382665,-25.70860143322141,-10.885378336520583,14.249645328676198,-4.390479474511459,-16.78919092944712,1.8390373892872418,-6.3011650136683,-23.675243059360508,-2.37220454934255,6.94840111154071,-16.153765039043115,-9.478509201277344,10.36789678076552,-6.99386292361846,-13.243666988316654,11.730920415212026,6.196636604657593,-13.021114280383262,4.05174180811324,9.187886968674109,-16.02219784969263,-8.788725780659934,12.314865930423515,-4.52435577059922,-10.8214520543631,13.3689589295199,6.6544615271127965,-14.227962455455586,-0.38871267015401045,0.4585739983564867,-28.30254367787079,-20.8761020343371,6.858025269886266,-0.4094644532130918,-0.43373444989912535,24.413122916141475,11.78370204633593,-18.721610470201924,-10.163228650694576,-7.693039099405631,-31.84802737126199,-20.122424226843165,8.820788015327883,-0.7490433711368905,-3.3363019031453125,21.187135939257935,10.838594756241028,-15.996371327230943,-4.022437647536144,1.530243667292967,-20.721571287372416,-10.428839789241431,13.499050204761428,-3.459671058477184,-13.019496630472712,9.149945668661566,2.307892792828656,-17.943449393008333,-0.012933044215129641,8.195511377712668,-15.45777190542514,-8.555463722139129,13.287827702459678,-3.210400308007843,-9.950467933738178,16.83203337765748,13.499995050517235,-7.613866784876855,5.18784937194191,6.983329190096892,-19.975319713385044,-9.741704440639085,20.52691715176504,9.943210298563487,-0.8219699113638288,13.133336848879942,-2.8235439336734878,-28.02670550525851,-8.73421159531044,4.829911607205672,-13.986376410546193,-3.740355742019706,22.526604017582226,11.523738942013578,6.482721374228644,28.940598925984848,19.414493588463973,-4.960247295446325,9.378832733652677,15.09457549996749,-10.385027337859174,-2.343722470147034,25.333679749896692,15.657113504594822,9.771119660148534,27.705487839657305,9.107788342575159,-24.55426212192658,-12.60364574731376,-0.4509272137166045,-15.825725415769515,-0.9186989630446067,26.69770864078407,10.707581080058674,-1.6044089866027484,18.3589952798038,11.812024790179654,-7.762354658138465,11.390238565936514,20.888823355082195,-5.045873121722947,-2.9998950595400755,16.243166501689775,-2.0216241704039195,-13.215537770798697,9.232753280829794,3.9496163543929637,-17.728054916344888,-1.6468267511947658,7.252063400168796,-16.471238724780985,-10.130518931211917,14.8312128130654,1.16773380269629,-10.577721512239815,6.689468660400626,-2.0519864234198897,-21.518227948214793,0.6659517028844881,16.053461823731052,-4.426458971061805,-0.5718978332888041,19.10572801760003,4.498454386795274,-1.632019435634946,20.753166608367493,7.772182145469387,-25.751243688727357,-18.308667034011968,-8.689093033811247,-23.48443724756051,-6.181306832305744,26.34863666638249,14.906974419869934,3.113129395689338,21.33377813879592,11.994164669838547,-12.25315358003551,4.775313905839932,17.953177733447546,-3.7470400695110655,-0.8747074135421187,17.56916931190635,-1.444085412990896,-11.41581807497025,16.540256302146517,18.267175167881383,-0.47213277728020664,13.656675137080127,16.92767844515717,-15.556997277128525,-15.785904425972292,9.985775853523348,1.2655717107576203,-5.086986532124137,17.6269223187878,10.153760240515796,-14.56934371478208,1.5291908983433373,13.66620007962838,-8.485251580244018,-2.2198841656478825,25.080114404214154,15.191092172019347,5.569118383151581,22.21576928476965,7.534584328841584,-22.63672042045185,-7.785865443627744,7.44056745135651,-10.672533937445891,-2.7917724428586492,22.59028792043524,8.23902212243816,-4.914585706593747,12.393885335632993,1.4954167855813871,-26.55538115154224,-12.640572819275459,3.149995013068894,-10.523575923045957,3.605671251344215,35.131207132605226,23.330173366587868,5.72662099859494,15.484875044281456,1.7504377669519302,-21.495680166010654,0.7877103192837431,19.255914301493785,-4.1475971159513225,-7.83644250963349,9.46569224103349,-3.094700748417347,-6.406160113410071,21.746835472386223,14.669475524419388,-17.499188039633864,-8.169900388303034,7.153482980181527,-6.6670758831935135,2.930757225191768,26.641963466979625,9.27496941388341,-5.7685971311739515,15.53687236107108,13.135509067811533,-10.372318329072119,1.511171309380746,11.88562685764987,-9.315004157181484,-3.396913970087504,21.97699269027427,8.022054232406516,-5.50276377470783,13.26043436755597,4.977803231227536,-22.707310156457098,-10.10988964831201,3.699101105978757,-13.688883959104501,-3.4594298144883044,25.58752909468317,11.366592170083955,-6.219810603327789,8.765856344334027,-1.69599216031106,-30.10490058047307,-14.681508771432473,4.167231598039291,-11.435119318116325,-4.562019589919111,19.209273532170158,1.6806391940055931,-15.039464913602483,4.814513373058421,-0.11608553325155047,-26.816609528027506,-14.733943574398243,-0.8702746482058319,-18.498092549200933,-9.316631482829168,18.02448126122745,1.0651548214756037,-19.18981383027951,-3.3766933601230447,-7.992722985633893,-29.796309768353066,-12.702800779428499,1.8659591205320374,-20.215817947583393,-15.761025085188827,13.158516352942023,3.1304554376911824,-12.593339815191847,0.7184577736636371,-10.839932127638654,-37.703417540204185,-19.875701331157565,-0.37589959073695667,-17.58151919309758,-11.64119224370142,15.413151925354793,3.978918496207733,-9.679226605901711,7.778024292200657,-0.6239446979111269,-25.646394498892036,-5.106800243653867,17.804444168215017,1.2160134696841016,3.71577117558976,25.3926712140428,8.284260226410048,-8.928912389067017,10.077772129772036,5.330238803211902,-20.73034186410825,-6.9062948052459046,8.414926710625638,-12.859823198941443,-11.931098518899482,10.490913396067748,-3.5768374002228907,-16.571428498215425,6.380495101506888,5.471634790964966,-18.207387945739654,-5.2316260764904445,8.875921616864654,-10.986897843552894,-7.093957296359569,18.27336263620473,5.92094926066447,-6.389549002776057,18.38295705801619,19.61402133579373,-4.936669627881654,4.148196050917116,13.633555170994835,-9.456476292006055,-4.347458299390829,26.309296223572154,16.558591155837142,-0.9837246464521909,13.232191152035528,5.7906934051333945,-18.738962654530074,0.3149574477568997,23.185628017913697,6.611448254300509,5.611757897499238,22.581118005003013,2.7411464363355282,-14.539266973524043,9.128245853105957,12.649924554756804,-8.828966677940858,3.043198044934977,14.203687853255369,-11.187120608941145,-12.450532463542917,12.553791161310643,1.685389991224822,-12.330671965547475,8.231066893122021,4.521537500678478,-24.82113063318578,-16.511946382072956,-1.8294718758238657,-17.7881268874114,-6.926961891519015,28.42328803874567,21.94057008337084,5.129505868794014,17.988419488197003,6.524373116439799,-25.015981145328936,-10.942242073399271,13.306080497492019,2.6852713159723347,9.630396532839157,33.00410452422486,12.390178628619129,-12.843196160541874,2.2082391644467236,-0.2768192814484465,-26.414701451211023,-15.877170242937202,0.7463027921113374,-14.689777823458721,-6.730726056020384,23.547533258367757,11.190847977105548,-11.58933738432335,-0.41387772524356237,-5.602214010334796,-27.93135074561574,-9.612243822215953,13.324801734587908,-0.5072471036903128,3.8477343750597393,27.502337269136238,9.876690725039115,-13.254442827924672,1.2743807967152172,-1.3531947081685431,-23.142891960289838,-4.594676800969069,17.736267386256714,1.1283145074204928,1.8520143284068622,23.996871760578202,8.27113572804176,-10.412606261556462,10.032708177251516,11.148809768277022,-13.988285060588092,-3.85504381462664,11.991836431697763,-5.842519321484902,-1.7441594995595677,25.201462923246506,10.724889453933105,-11.855116751720754,3.911972600851909,4.766754075972792,-15.589644500603075,0.9970296244072898,20.640820445663227,1.4298152661759254,1.1327714931419837,25.63160872529305,12.671519344459949,-7.183553473432209,8.722759830334478,6.848474465646775,-16.655073513344675,-2.1167325180734977,17.147702320246957,-1.5648398372935777,-2.70422059250152,20.026827751313196,6.873546456895855,-10.655999360737592,9.362296752033386,10.44378083603894,-13.987063564557415,-2.5667427298455037,14.40252284961773,-5.365578873956414,-6.524997327820493,17.097312576297977,3.7003570043729166,-17.176610029231437,-1.14550209027424,-0.31866743315103285,-21.819980412008906,-7.881832135836486,9.51892268647157,-12.52650753016017,-16.285100162471693,9.87875206346385,4.649265819270643,-8.753625155833502,7.482139504240081,-0.03224894664419953,-31.67413597082075,-19.77657759998157,6.80083932196601,-0.6004532543052896,5.7459426203164945,30.188445558807434,14.36066083856267,-8.511161751547476,6.748163034050384,7.122791464288764,-15.32523643564453,-2.1191229837292003,16.149706713905676,-5.085307894872702,-11.236893019509038,9.07217793637371,-3.521914681967962,-21.259523869987845,-0.42828726387172367,2.9681473274642927,-23.07469138309587,-16.806186977914194,-2.6439998180753976,-21.735867908836802,-17.951683154036957,16.54419012193469,13.507985078537617,-5.566977397350187,5.145572235291569,-1.303030395905946,-28.228331458852566,-13.95693801973204,8.663237600314137,-9.463205563268259,-13.875115831510271,7.897720795811237,-4.885725273799421,-25.93083372870766,-9.567787592870877,-6.651010581897145,-25.502250900997506,-6.375141319213529,17.61856413136404,-4.361529413260126,-15.847571553911278,2.2312468432005232,-7.837613702436343,-21.481265985953478,3.723952997180346,11.749048472509157,-10.022706966881772,-0.034366449024176404,15.88319368183039,-7.24703922118937,-13.74766544620536,10.41377829484753,2.7194175244837533,-14.95085322918556,0.9598667694308833,-0.6870504820516143,-27.44558534808109,-16.146128758939547,4.772563954346864,-13.279473663534061,-16.386834123551726,8.177574269681044,-1.9313222716488188,-21.243953224246727,-4.045511552264042,-3.2982785379132755,-27.561885534346512,-12.820654688740515,11.473884554442986,-6.58558482222314,-14.267768897726725,4.933415078766519,-7.815702063046006,-26.829193117060736,-5.942593943836934,0.1631399669022653,-21.842483040602197,-8.263575480498131,15.525837493079562,-0.603490176689693,-4.850863917876984,18.321561872238266,8.811308881351447,-10.473538925665775,5.5970414284189545,6.351152359590097,-17.67289708306988,-2.4786147777490903,25.76238666831761,13.418323760140336,8.025701366547128,26.685979869072764,14.828328883124328,0.5636126478147396,32.095903090561144,55.313007210955455,52.332199120651545,82.54939193944581,121.84375823590037,121.36093576931819,130.72527671118021,162.7515118680743,155.03678971258293,129.93146590642291,134.7395512143755,119.5654143090444,73.26295000063658,61.341042073255565,64.19174254550131,34.60459993109093,20.238485692623517,30.579499070606076,1.5892268138989323,-41.95068138222917,-47.06388562256918,-60.00087859934558,-94.43864342773831,-91.10201005625868,-74.85180893619378,-96.94684906051808,-109.35433321042504,-93.95449813198411,-107.99220300347626,-129.6179117482932,-111.04658461672642,-103.18755853619581,-123.80239851577765,-110.87520999626153,-83.843023614421,-93.78887725739548,-94.70113083503597,-70.48019815424573,-79.82781213302488,-99.27430093986698,-78.86816084529194,-68.24676125988601,-84.35184689612002,-67.66825467083532,-41.23358394996438,-55.41611062759411,-60.02073019135475,-35.37253089883036,-40.9073799006622,-58.10645290496025,-40.60409742211914,-37.515817908959725,-61.367050906597235,-46.20727893344491,-14.955526816475693,-25.03793348251584,-29.551316111092113,-6.188974589921189,-11.294227101870455,-24.135022521433633,0.8118773621699091,8.897025523988173,-17.886420053978092,-12.075617779866857,12.15925091848416,3.329627477456178,4.9686168071969306,32.87101302504692,26.661626363517783,6.862942954639074,24.648809433796963,32.12607569158268,10.659043497976958,21.543823682272613,46.77961267791274,35.663188975793304,34.15354165535671,57.597408833605485,42.25820874455212,9.638308467718407,18.08221903561119,25.214731150906914,12.82177574219078,36.908296192430825,67.73114698493725,47.774756324886326,31.236883808301265,48.081391805605364,41.295607201003094,26.200645923045734,48.81299489262592,57.603076164581836,32.36389549653293,37.3200121573096,56.84268458688249,38.66247593603813,30.32827417737195,53.83237453888848,47.05612694636487,23.371705305752684,32.681115839134776,31.463530534358707,4.9915765360996485,16.796835868049666,46.903304715651295,38.59441851657759,35.941710223676296,58.94238906045126,47.14613017210533,19.642179401475218,30.456464057293708,33.58861104519097,8.62677866499403,16.413481984555997,38.50084319316411,22.03832830085568,16.095195559181857,43.539539770530354,40.3046103828798,18.805850115258725,30.8312179466337,33.172401593129635,9.046323566101654,21.057694399310833,49.701516244408126,37.49956152257796,28.351663508000428,45.99371262444765,33.27747079754736,8.256714600913622,22.57286761940712,27.817658816486883,1.6239249796524824,7.226895907947075,30.87594518191258,18.150484614362668,11.139541054976338,29.35942720806573,11.982140668868224,-20.634505018647573,-8.718952436508372,3.6874804277960553,-9.822981553963206,6.351437291715007,32.536745564600885,14.785931771659694,2.584354379826624,22.579871455248707,14.794130063164676,-5.631360981035829,14.107688105683811,26.07341542505194,4.164792159531366,7.707341730683133,22.963954983336727,-0.015688224774045523,-12.069353676274195,10.418322847092005,1.9191084844059683,-26.58584467239499,-18.085226128684262,-11.893475913869866,-29.518923908552058,-12.500513618077107,18.0064678822188,2.3138237553350223,-11.063015820623628,8.229421970351877,-1.4549446505133892,-28.496013148090828,-17.592218344574423,-12.561173477129856,-36.037138487251084,-25.29465816794407,2.1311829610381032,-13.126979919277534,-23.850447573484267,-0.6124632643637664,-5.681252823955668,-29.655203106387923,-18.894047661599828,-15.588589208529205,-40.24367334327882,-28.271425211810598,4.405921516243186,-5.284938569764343,-17.430554760118433,-3.709098989088682,-19.32699828062882,-46.14191829192323,-26.93832772701625,-9.446452330878781,-25.04932626416422,-16.60519984901713,3.1067137087316032,-15.874927727897663,-23.47084311723586,5.782601127257399,5.479206460998895,-17.060595165900214,-8.000717894170677,-7.566844210174121,-35.5908721208887,-28.39683851112913,-0.15805673747125049,-9.463052062485769,-15.047819234889598,7.756256524659859,-2.3201877603954832,-33.32992542063961,-27.912302633367347,-24.361740916697737,-45.750445508864,-33.384359094087344,-2.1440578070885667,-10.384856713985045,-18.46990046504942,-0.626390830552424,-13.553846024210952,-41.71182277938937,-27.89650812981523,-14.598015081625235,-29.836417192501337,-16.48472165635517,11.660056830168665,-1.1778780260897452,-10.928778018164484,9.793497198469229,0.4731762793656129,-25.843195097672275,-11.022534731911193,1.568877043968074,-17.493169773528308,-9.744714040927379,13.16863268162881,-3.943175011177704,-17.280336728618103,3.161479580236792,-0.9432293804056018,-20.816717098658692,-2.1842989515322273,11.522159800310442,-10.622549640868424,-8.70018289148444,11.016974983371691,-5.312169824136822,-15.573501651063157,8.37725993876007,5.409173756725843,-16.56272795969878,-2.1547314153580643,6.850713426566768,-17.481257418785535,-13.441558970549968,11.97866826440119,2.591362932276869,-3.268562749020205,20.75827874137572,15.101328080596671,-10.294464179876638,2.3742426731925086,12.66691881390482,-9.69000404653407,-5.530533561402655,18.615265256961013,7.989690255106148,1.140460811752749,23.114003781393187,12.916473175967779,-18.397922049993067,-8.893800141244313,4.452470127949621,-10.076814519241061,1.425103997474765,26.936236096227375,9.418562869668538,-7.46206080658198,9.877866596635013,3.522374644120182,-18.12138476717688,2.00999965822321,21.964277070367576,7.676909237276605,14.066928206369539,32.88579577351936,11.219276510005407,-6.537398038196294,12.149077144860035,7.682244242063922,-16.369656324824405,-5.954475600905933,1.4909497559310947,-20.158582818354898,-10.897971766214543,19.057776676537344,8.701778125910689,-4.418680454428283,11.087576636036689,0.14131005800918306,-25.70485947591593,-8.91404649147108,