5.428887879549293,28.79402948634347,66.92642008435861,96.09859275195609,106.62865011259248,100.96948244599513,76.4071643151089,52.00677001013773,53.0576847374234,61.166700585349616,53.389160024169314,46.69511746047499,47.08698099536923,37.45071867660171,28.86220761927514,34.0829873052095,31.538546512895714,18.785325694939427,19.552623785185986,23.53486296930362,12.34704872305862,5.284408533492742,9.190607644680158,3.551565070907025,-4.229256186268187,-0.3277153744225827,-3.9595610857691828,-17.86540985648205,-18.594362903407685,-14.277726709853356,-21.769541009923383,-24.003154579248548,-17.75340240600916,-23.9730358113705,-31.56928615839229,-23.396814674017186,-19.628280551460545,-26.336035761540128,-22.503131378317892,-16.4915534409359,-23.871491204094056,-26.662827934604977,-21.34792562619313,-29.005542129274186,-39.215402039069524,-34.42109618146433,-33.37084856416206,-41.87328145130539,-39.60045530759462,-35.130271816433414,-42.87398457031134,-43.32087843707795,-33.43599418477169,-36.26425477178118,-43.036710559720355,-37.04883032268801,-35.99447892516471,-43.2161462605101,-37.72502124259859,-29.813230401261855,-35.761098549957424,-36.886345131065724,-29.37146066530403,-34.29117566760834,-41.46304405355863,-34.21297483843644,-31.476387072187624,-37.93241920240702,-32.61332972717895,-25.212441504313635,-31.729435041971218,-32.550310617439976,-23.091037741304056,-25.4251642361312,-30.74569973259404,-22.718458525920674,-20.18276760416606,-27.38131992261937,-21.824420110037657,-12.03548294530459,-15.360102256016555,-14.378208670498624,-4.944046366456446,-8.388158391745073,-15.24205111950131,-8.66180512267154,-7.338698298052428,-16.03495599218845,-12.749901520143723,-5.555270959566102,-10.667317360168871,-9.970704012404344,0.022143170688916136,-3.497018367341303,-11.486838454931052,-6.266189065922066,-5.723873324059571,-13.940577926728391,-8.998348585073916,-0.5966629120119071,-6.105817795388972,-6.6891151583220445,2.545026740252368,-0.4516073983839237,-7.0205347130665015,-0.21571100561626633,1.7104098457541803,-5.898581866376702,-1.6783258699916022,5.023928633779452,-2.880592150379165,-6.4729850364711945,0.2413449498602498,-4.145675012087519,-11.825335247911994,-6.328144130218341,-5.26692269704076,-12.390609527166223,-5.523298643294507,5.999441215117716,3.284679779149048,2.5972759610868508,8.974032364497347,2.7130190874533477,-6.136455033312886,-0.4657854989279313,0.9091032974407693,-7.780168561738628,-4.8607467019029285,1.8555496427778455,-4.548819674161133,-6.384788990116705,0.8792764096595755,-4.4913159515469445,-12.910536507767281,-6.217429660459994,-3.0872970543667737,-9.713481289772051,-4.749028873834179,3.322643712499912,-2.657155932566488,-4.059226786180705,4.835168668241068,1.9927148266063535,-4.667336828568176,2.412397293251529,5.40742398286249,-1.3820100658451788,3.356429283177744,11.122976003456412,4.558998767358823,1.9130084934074483,9.132444478523484,5.323563734978499,-1.0573818856370973,6.930073525078601,11.091322586475641,5.667113130328385,11.610579425974798,20.165080416931943,13.995654542343544,11.755876750853712,19.686875398588025,16.29297161396122,9.62333909494871,16.98229416993585,20.300165072813876,13.795559541885765,18.590166878152054,26.08230514154087,19.118257584295158,16.083648931969996,22.598627762254615,17.343669130287626,8.954126792479734,14.913674037464181,17.258764087319477,10.003587961716343,13.64117056019715,19.26058347052424,10.420080590460547,7.276321676085441,16.160396660772236,13.984630779403133,7.782188502875882,14.85692770112084,17.14829881492863,9.54132771983282,14.479422867857156,23.839407304063972,19.55997362077493,18.895688940530277,27.135534492306004,22.42767385838605,13.074909660305476,18.308737249080682,22.32997036658761,19.31155880517825,28.73623793892589,40.35563793744921,35.12701390858522,30.954650698376028,36.007564472973,31.45194972621445,25.607258569366316,33.813446676243025,35.97813774174533,26.337962683310053,28.929167373367264,38.0085497101402,35.11383325927987,34.98389765246451,41.61197118447747,34.354241979844716,23.989043015012353,29.750378256976767,32.294589735593014,23.449799649933873,24.852420284225573,30.69242861490262,24.672738828943643,23.258487951036827,30.316963253637216,23.92538441084656,13.12585693164165,17.059119848194975,18.536315340928486,10.593157181704065,14.091481509214983,21.99072700510093,17.147394877691355,16.817125738894326,26.25337397538969,23.067937406016448,15.302856167502519,21.74946242289034,19.54383696868665,-11.990626467387187,-51.81634497523461,-81.26248600395398,-101.57951322721192,-99.56671910749193,-68.09362032344178,-43.79597646060955,-50.804917733074646,-58.44691924168018,-50.34276584935639,-47.10383415233754,-44.55351082435695,-30.223378560187026,-25.14625957155566,-32.75927091540133,-26.86646659101845,-15.52200415623703,-19.32791511947561,-19.880629101735117,-8.341163234124943,-6.461836125945339,-9.230356782068233,-0.7552960639843813,1.5432543691136906,-7.420179630385635,-5.011664329356532,2.74545105884503,-0.5966902336869673,1.7676691840812122,13.317128894701742,10.205286432411702,0.8849783432134255,6.3616942109060926,5.423520871577132,-28.213591450584953,-85.45246453649683,-142.31509000705225,-177.82969220076242,-176.55999451886044,-138.97650779970095,-96.9734690953909,-89.42185083473369,-103.7215095519534,-97.98855355404315,-76.53334060248815,-64.83711168458379,-54.74968210030285,-43.066630440870085,-45.07326197073054,-45.321403436451654,-26.884212850384884,-14.900260409150468,-17.970648894778165,-8.835680618345798,8.473220784553243,11.812843007433885,14.293835028446173,23.926357602533596,22.584463457476673,18.49104074274861,28.73266468350157,34.92437111345789,30.179222456830992,36.816448172408364,48.51861740897375,47.19280261615487,49.61111232564331,61.42478012154006,59.56895144323674,51.08193147022723,56.309616728541755,59.96783618904046,55.001232555163625,61.49269689349693,71.18270060028415,65.55851802727518,62.60461325971119,70.52105217392872,68.39150347269893,62.40823031796977,69.82699934424706,73.08388730283674,65.22132676625677,68.42803449710819,76.27045681941091,70.08692480498361,66.97011890551762,74.37304834595173,70.55270994945116,61.884749028846905,66.49557266359456,67.04876091277217,56.90217390758771,58.86129154432301,66.45071769128599,60.13755653425409,56.296457317743595,62.93475526751587,59.46132772439824,52.35170984168685,59.02553173983448,61.34686518625057,51.3611160619282,51.342275973237925,56.17288968524609,47.61077410048373,42.187696628677145,47.63227870570905,42.72734498325024,33.73110185783348,39.02254310392193,41.38522644715208,32.93588379758251,35.46057095823239,42.512732494415005,34.730534791404,29.08797222165803,33.77045016547865,27.509055825313006,17.492044536780707,22.863200921735874,25.904391535476787,18.070376929161093,20.544735855068275,26.85665561875024,18.6155578520252,13.197421893318346,18.26659721896919,11.79997554158217,0.15520186415891413,2.8172048478002796,3.7004067778115664,-4.716235092354266,-1.3018639449612048,7.124343543424356,1.3746704998262413,-2.269662125985973,3.9720105495620284,-0.8380364324991421,-10.069947069264671,-4.671461907159596,-1.7585371343701035,-10.702989315991456,-10.770543555909502,-6.541301305437514,-14.79352425522382,-18.334639682698537,-9.961405452374112,-12.660315210625715,-21.90865478164251,-18.764152842902174,-18.314401134528797,-27.672995085746287,-25.61648363565643,-18.265799338254563,-24.383221537197414,-27.498805319205335,-11.490387958981163,24.307279148532363,94.10332100277827,190.54986756726277,261.00901235502573,270.83125637309143,237.84071317026965,190.97026380497408,153.31799979510814,146.47594108571192,155.14609206026444,140.31218863988593,109.14007225008994,91.97878106323046,80.65360413904446,65.28152941755374,59.22596770752462,52.75382052846983,31.088971702558005,15.390856966853605,12.991801664563477,-0.605288708609673,-19.89382476266007,-23.879771636782447,-28.268997774830193,-43.16836100971911,-48.924866688135054,-50.07142012706586,-63.206916163153195,-71.710171326457,-68.96003366223056,-77.41090964210787,-91.41515355052867,-92.19219799793701,-95.96697268334275,-110.39082898655758,-113.96683938319357,-112.24185399079727,-123.58530757265098,-130.95991376765795,-126.16113802313167,-131.9020073062234,-143.49065827438824,-141.5532369501227,-141.68184500399752,-151.35680035122635,-148.58331262891562,-139.6269630309026,-144.65822077629514,-147.4589335971158,-139.57519798435345,-143.08903742437806,-152.616990334861,-148.35509879343232,-145.98776831312225,-153.55384411441008,-149.14918227079232,-138.5575811764093,-142.2282085433133,-144.71058257571457,-137.11980551182467,-140.4171973396113,-148.9239616010563,-142.6464271727424,-136.96492103729227,-141.09623343174027,-134.87370861003632,-123.70539551602957,-126.16086060309175,-125.94580482958551,-114.74001308344144,-114.39967561451448,-120.20874759019229,-113.13496728791858,-108.23805379365515,-113.01297326946536,-106.36337196952526,-94.2422488940541,-96.06610692189635,-96.15747868279813,-86.49692189202352,-88.7934806246272,-97.31787620973424,-91.56138910133406,-86.62052830879016,-91.27918991412324,-84.4793469489013,-71.54126796529978,-71.84379493586933,-69.21792986692223,-55.39330619082232,-53.28078167928123,-58.39052587110812,-50.42105668365048,-44.184728514514006,-48.155831110660074,-41.508496150083616,-30.00146056991944,-32.71382839815607,-33.317708517760806,-23.630408072135097,-25.782166720430414,-34.400180936011914,-28.758402729167134,-23.124194062777644,-25.935243321519373,-17.502159458098237,-4.967695611295865,-7.614090626466407,-7.473567222709137,5.695426379234816,9.512026805898028,6.460762437015279,14.135252520489779,16.99972523386846,8.44272193651815,12.519692339524726,25.079329458740183,25.353302980234925,27.144514086198683,37.56954066397026,34.68939176162388,24.77875618322011,29.46722832756829,34.73470501470491,31.6651474542481,39.46599177037844,51.000076241511096,46.515273670504016,43.3410659418242,52.407647045618944,52.6533604867582,47.44368609630992,54.687077464227166,58.11882483851411,49.40815106412872,51.38048311537506,60.48785815140892,57.61177297563809,58.162754660384856,70.3050999863193,71.11115964251255,64.1078025201902,68.90497044630585,70.74278153867256,61.21408315617771,62.21833264197953,69.63883908936039,64.18930011626544,61.36372457558596,69.79293424060522,67.52386253494939,59.42599021365895,65.95286016137989,71.7288818399591,66.78535557875942,71.21818534747882,79.34636793227867,72.20351155751476,67.50361373117315,75.44681378228175,74.04310568353138,67.01983382165015,72.78680283899722,75.06250223843055,65.7180713863942,67.49461260942967,75.90547850579276,70.84992035207296,67.203371277752,73.51814106628225,68.73985421447011,58.350125776900796,62.63287903402603,66.48846480075935,60.24839755534573,64.39534273645609,74.01577227502035,68.92954226278682,64.53937716714852,71.22104560903038,68.33376060380229,60.250149495587664,66.33654294169293,70.43079778087761,62.66923346460982,64.59739679208737,72.041836007149,65.28570678960608,59.92537905169673,65.60908884715728,61.03679226282955,50.77226059484867,54.417367518899,55.9709196271774,46.26240896590487,47.41498418447569,54.98909906585932,48.94688215787174,44.440680031517644,50.13882295962607,44.84600811357199,34.349495267979144,38.87501859892386,42.08020259984829,33.44777613211217,33.98203672158401,39.94334318751846,32.66742676042411,28.053649072310314,34.58464197415798,29.761422773364075,18.298017977209085,20.806270678938617,22.258332814581802,13.21227450826915,14.514928094333186,21.48711196312914,14.993372734803408,10.927227691325289,17.82131800910023,13.385433632819783,2.746028084791432,6.59877007489005,9.341573862799518,1.500578114543913,4.5781391144281605,13.594263686970695,8.369768308572713,4.624614011495558,11.795294366906209,8.260215786593054,-1.1130917820552164,3.9940978172108665,7.5203054538404395,-1.1768130238662726,-1.0672386533472369,4.437014350293054,-2.936507606737033,-7.099800387546348,0.8480989954062315,-1.3788488612006078,-10.399477355668859,-7.181614601338535,-6.326499448135998,-15.547195206932923,-13.004212632305608,-3.873119085112882,-9.023600312447158,-13.843154232868928,-8.420951410990394,-12.485419552368986,-20.601955529824984,-13.663261757320216,-8.790792079132194,-16.78941207293202,-15.96554710532066,-8.907962786963855,-14.36811404569295,-17.297077132115092,-9.033692121464663,-11.911974495262216,-21.90275412444277,-18.28115739764231,-15.228064706772994,-21.83550902859259,-17.28628362484999,-6.968482701022696,-11.827500127152316,-16.871750801000097,-11.759190876734742,-16.586881945873817,-26.090383091084885,-20.105866966671748,-14.854065893297477,-21.61800962367505,-19.388780662968273,-10.972458766162411,-15.799907417325777,-19.317092838731494,-12.124456146411942,-15.75792721279515,-25.52334852103748,-19.680253304372474,-13.281206002364573,-18.41216986542169,-15.515446673214225,-8.241499526920151,-15.340203236019782,-21.238312829923693,-16.45068650826774,-22.19475912862078,-33.58331900672776,-29.301256664462365,-24.289184356636916,-30.16598275709641,-27.014806068400716,-18.452044479554015,-23.65071776320901,-26.98464319159822,-18.947156380513903,-21.831380497949688,-31.538800502518935,-26.75703806550915,-22.211471128203666,-28.658469556234497,-25.466975646788356,-16.308671436267716,-20.812476594767915,-24.02250149347105,-16.19351105247504,-18.852978992883532,-28.67557398936278,-25.354786062871796,-22.664198733889634,-30.09607958727215,-26.72671048005015,-16.57229562622469,-20.77271700076822,-25.56254817840484,-19.689117587669656,-22.101126129343985,-28.843558522708424,-21.63769973470921,-17.713055161423586,-27.14379852014416,-24.74521792865675,-10.78058255835785,-6.40534464308745,-1.0635406720763996,10.312738912337316,5.064072330888542,-9.35662717781443,-8.638810397543693,-7.239849675015449,-17.20878550225761,-17.87587945964735,-11.530135823226477,-16.98403939767066,-19.183577027468445,-9.617056888289712,-11.875679804223665,-22.330505881769145,-18.205411061412782,-12.661198686862413,-17.23026928655325,-13.213230542141133,-5.2313319893652475,-12.460678150241604,-17.82268851707302,-9.390445792339406,-9.35009770935212,-16.38332605262941,-10.607518581282687,-6.087768183222683,-13.13288824912203,-10.40005641252353,-1.175473422807579,-5.8500212118439165,-8.907394891980228,0.9227483304509922,1.724743136755486,-4.522961751272446,1.8484538464948859,6.344784037279656,-0.8802242417162738,2.0864925338071787,12.391889298057219,9.51271525459305,7.033114816810939,14.533209361608144,11.636144304448845,3.143255032935705,9.232981904931691,13.71652948675182,4.733325247133653,3.124604768137808,7.265824569952635,-0.06561274365503333,-2.8363934080928805,7.769883886980194,8.333766743450408,2.0448017689463573,11.653141227774684,25.692814152549534,34.49206224191361,56.422244816928384,84.12410743622011,94.69326004558468,101.93386419006373,116.60185651570855,117.87711591306253,107.74201340336101,105.54047457962976,99.62414874323474,83.38256203594091,78.57161672005657,80.59713015261576,67.45810836794476,52.29684619216806,46.7163980188094,33.14725526373522,16.886550153395525,17.802279125022167,20.379554437957346,11.91448243379017,10.771355554504613,13.546818835227155,1.2363426935057227,-10.748434857474445,-10.134251836394693,-16.74483472701561,-28.798172136352942,-27.37770357354082,-26.68027650361258,-37.585277075198896,-39.95641216554629,-36.54185344643976,-46.79592703382381,-56.6395788860211,-56.00149581434096,-65.07388901065075,-79.69985515653345,-79.48537756858394,-78.5652343518847,-87.28194054225364,-85.93366423614928,-78.63922959004204,-84.80764060132918,-89.60116686143353,-83.27251471363365,-86.93618891072242,-96.78717200693104,-92.244368752555,-87.52794581640204,-93.07028249951591,-88.49512944145596,-77.9670518344656,-82.29290361812522,-86.45403979026563,-78.65114077386417,-79.37300265483658,-85.73805826072349,-77.86758494556182,-70.8531662492829,-75.88635127230009,-71.38261102741798,-59.10692681822816,-59.42567124996212,-59.29617637772322,-48.820903126580305,-48.90650131779489,-55.978221351368354,-48.36200595040659,-39.19618837660436,-39.88152435752744,-31.41847271427288,-18.185953241604317,-20.65219403970529,-23.393692553425655,-14.154317100521194,-13.326490238675143,-18.844144250385703,-11.607076964005383,-6.10892736888894,-12.345941018033871,-8.446951150450943,3.4970367838993286,3.068816995828115,3.2360710175737615,13.893620418024216,14.284069323643958,7.470613577288505,14.457846257937538,22.173158445672193,19.65717861511357,26.420024336656795,38.32566328837956,34.135064773001744,27.971672569885477,32.225899055754994,28.690047090885557,21.687341593008405,30.80591026782583,39.89087651247337,36.24461793338975,40.231147891615926,49.59083785341142,44.18783181304738,38.37939570078168,43.78338281569251,40.540563596838595,32.51371577531878,40.28521150485727,47.98814866035268,42.42608207928102,43.98612198442323,51.38874520918423,45.66643322060779,41.11235546416967,48.43988213902904,46.59585470919748,37.49001021938763,41.36274753815901,45.13695003487514,37.74745589281393,39.150267077083754,47.24425625085207,42.48488701826762,39.01595713513693,47.65728469637271,46.535549649068834,37.11958484435351,39.944663477319004,41.804817876985716,32.9554545969624,35.32936581177855,45.66679700262317,41.88868679413673,37.9604782355407,45.84595891171847,44.28844284962998,35.32560211543628,39.6373021053499,42.470213794479314,32.3836154760922,32.34658705611057,41.625134878910934,38.73640972470397,36.07551641105585,44.03128884337488,41.25088067558133,30.47984133521927,33.48248723788763,36.95474418456992,28.933533101044176,29.476424606029166,36.20707923079448,29.004927714665158,22.40154702708788,27.985730538280617,24.882574680271418,14.77237080915623,17.04908142456194,17.97949962548531,7.287436930144028,6.093007575494048,12.653082073946358,7.111191534505513,2.780024176908409,10.026109064019318,7.8221917421720555,-1.6838231577510911,1.7910393198821128,4.993580827334469,-2.9286949228853447,-2.5175854933545234,3.0411542753197853,-5.372345971861375,-11.994802681915521,-4.603935665431479,-4.706805184287165,-12.439487941505224,-9.198541150896816,-7.974308568498845,-17.938932054045857,-17.351369932539626,-8.772116232959764,-14.281253908880782,-21.210062847223664,-16.72349885346452,-19.669424233332204,-27.79269238582924,-21.619244321850807,-16.679476551804413,-25.641421468299463,-26.924681371530884,-20.990600979766185,-27.593249429703,-32.94323973718397,-25.957590870987186,-27.80473266545829,-36.52596726893948,-31.231538662335232,-25.260423748506525,-30.734553092625404,-27.85452067761213,-18.533943074583494,-22.853390388200985,-26.412357020302544,-16.665505301946258,-14.197231422489322,-17.83872471823328,-8.226773691843864,0.07819926589925053,-4.280411621475192,-0.21384131763703973,10.124644599212385,6.228002876674717,2.4289557218850626,10.754754479686433,10.495592898019515,3.598336447778006,10.138597644316611,15.346041662716376,7.165472969103877,7.209312573291321,14.863638358334677,10.029236901325639,6.3327486162302975,15.420643299826292,16.20080442427012,9.605656920907588,15.587900172960024,20.483375625448865,12.50817898501006,12.989281305119178,21.907420794101295,19.11360457900291,16.722887431637993,25.747748335849604,25.77877312213073,18.4350468471226,24.105098422014127,28.798506783226287,20.402750037504838,20.382481125842823,28.103072465142738,23.576386138910983,20.237901640311474,28.434307627634833,26.366591157484308,16.399195624719987,19.892472479739677,22.798353610400852,12.873552823839345,11.473807902195846,17.538971616617314,10.375458869426309,4.082951010080424,11.061774263941762,9.810096067737003,1.2902526435157156,6.549952842255339,11.988852608871891,4.950508379355543,6.26414506196291,15.129128238235532,10.622053633615401,5.656973312209009,12.369736962733645,9.961852979374573,-0.38667425329012284,2.7219956060654957,6.364509050222511,-2.0798427437166738,-2.0903169609843384,5.464784804567653,-0.34736950685537016,-6.761664851010675,-1.7298056547222695,-5.654554394007546,-16.52476737623223,-12.62523796742965,-7.274095276396895,-13.622487854132093,-12.006968633412942,-4.052155994593582,-10.200637485931399,-16.41154084626864,-10.178860844584756,-12.475284493466372,-22.145820301464,-18.210306498942415,-14.048597271757144,-22.01806980603323,-21.518607607299984,-13.796044756106351,-19.509326253401706,-25.268874807853972,-18.678883599849403,-19.770944073809602,-27.34468034292238,-21.698245797608514,-16.771524272277045,-24.63910376336129,-24.124062627658155,-15.164397776216624,-17.649303310159212,-19.5300186938536,-10.951311501864758,-13.099065514177907,-22.701892928025938,-17.07964327049291,-10.005492256071808,-15.616170434680319,-14.964403617976085,-9.358337959383118,-17.341802444776437,-23.34198170106645,-15.56298001292817,-16.33843149270238,-25.096613510982127,-20.769068590298033,-16.161471107244168,-23.732482630170004,-23.54936457963981,-16.25588314569328,-21.33610302226671,-25.332655778432652,-16.56445253452253,-16.371558274935477,-24.459612121046423,-19.656695049379636,-13.611289522777973,-18.55897526991055,-15.738901423966006,-7.324509092475218,-13.788399555866027,-21.256787831963127,-16.195016892613584,-18.464303222523842,-27.9764787938693,-23.779257244492122,-16.908793843705922,-19.811857065819858,-14.31444795295871,-3.426161536509754,-9.398189367014846,-17.76637339902431,-11.719392168235668,-10.156240243823015,-15.329150710592014,-9.485204994314966,-5.681195217569247,-15.187334056811368,-16.217978927209867,-8.41671862635634,-12.82766524017825,-17.722016030968643,-10.718891979146234,-11.860161217259403,-21.169707713164627,-18.145229737251405,-14.097230924384938,-20.549727295959414,-18.031557770303728,-8.47784020278691,-13.257318191542938,-19.306168551162823,-12.892017763501656,-13.540062320712794,-21.01167057981198,-15.293591714623549,-9.536034811598206,-16.523199899053555,-15.907640470896926,-7.922570038420158,-13.018605257375036,-18.417286015955252,-11.60588117313808,-12.740754071557891,-20.649431027640816,-13.864062493373403,-5.097758179086662,-8.344157849239384,-5.078318032106538,3.6442582752573043,-2.342315685060385,-9.51041176741154,-4.216495287590199,-6.0523699190054625,-14.345357304341196,-8.043733714088521,-0.10623806853105355,-4.7713817531279155,-3.0798332472186183,4.931040385246101,-0.06125945052986115,-4.714298162726845,3.09359344509051,2.381455277544138,-6.164533651580713,-0.8329569924382545,6.464657852177445,2.254623752254357,4.536358327424294,12.072155429392975,6.006442000379657,1.0903086180541657,10.270915809552587,11.686003279076328,3.9738823664571425,7.629888244971113,11.138828275978112,3.0333227692430844,4.156400583535315,13.826468257397803,10.710705040932499,7.290966172985623,15.88969272423549,15.15719977313417,5.528075205680886,9.52912031891137,15.645356898448624,10.538983558755959,13.198990167388231,21.766928196616767,14.814439105073173,6.290423278156528,10.87903838192407,8.927328951505391,0.4669411167014945,6.390735846613721,14.314340769194823,10.16458236445907,12.616377421267133,21.341017846301664,15.985590100791931,10.033112790636102,17.603336041368483,17.460505935807827,7.728895348201278,9.751600826350726,13.41205184806285,7.109873495557956,10.455869230298452,21.42869422942241,17.580113774852492,11.349816398065808,17.043199422419704,15.49794378571628,6.44970993050088,10.285920229533954,15.314362412151837,9.19162504548058,11.904994820461289,22.943487256869545,20.640207431988923,16.477805407142203,23.05642128519367,20.11605272084256,8.269169440685108,10.154824573803522,15.055701709524087,9.469120369225745,11.425946510847337,19.02114397535051,11.44249208206083,3.365900099263818,9.889659117259077,10.593797652695166,4.047151468985028,10.010013067274153,16.391151540782747,11.354144193359092,14.900992352249668,25.469883720975588,21.159765430838007,14.697319907668682,20.979201921840357,21.30684287704027,14.828723183205136,20.735967566607044,25.990280524661856,17.364840075152074,15.512223452728055,21.49720713265416,14.54656462261721,6.7923747272353605,12.078589677432607,10.943289987054612,3.2818013337103458,9.580716409176265,16.58832964295057,9.695765299524323,8.498996727977868,13.919079508177289,6.079848006033967,-1.5073737200988964,5.1661822573037055,5.331569638570115,-1.900386460945271,4.563068812697422,12.196784242523371,6.31760773194417,6.247950930940903,12.956430376528376,6.161494388664903,-1.5817915694036235,3.229055270237683,-0.16392918653992528,-11.976610007912942,-9.103546342416369,-1.8002897566898524,-4.694207278674532,-0.9771435671958653,7.892691126106377,1.2212101959003432,-7.2741943171438015,-1.734762719505329,-1.1337103017412105,-7.535485489652281,-1.5900752368079019,4.786109832932327,-2.043480941148746,-2.461249214812214,5.171403017781772,0.8764841835904211,-3.9508873572420775,3.4899146576122786,2.84345975686171,-6.943612683667396,-4.643174963703968,-0.968229790591213,-8.688594615038507,-8.276569206351173,0.2882161695274412,-4.164677964356892,-10.027326413162484,-3.9436601530462427,-5.447917421702519,-14.439217416955133,-9.3558964708649,-1.8952071478705714,-6.342387095381548,-4.248292800595513,3.9619886869041125,-2.710748300805617,-11.385668024969402,-6.538532881222417,-6.444492086855467,-11.949085401086517,-2.2308867036454028,12.623190857189758,19.314157641073216,35.73716436813895,61.61361179345052,74.32752647253184,82.73260018106212,99.641915555045,105.17505850762731,97.09554381174696,95.76842210937947,91.84619398631088,75.10052712234727,66.71407720614577,66.6032377965686,52.457456799378136,35.964284128793764,32.260427297381,23.12392979869359,8.283955069266595,7.678820361249329,8.05752033466765,-4.848434291234098,-10.44156117287918,-7.067298988877892,-16.770634438470374,-28.89222277017436,-28.659237607196104,-34.94618709797722,-48.684334286488266,-48.920404905058284,-47.76379158424924,-59.454011888076714,-63.5155139819051,-58.31024557029383,-65.78550870003708,-75.44220718161085,-72.96801394292811,-76.99633319951496,-87.72851759138382,-83.59256095568655,-76.5501894007059,-82.02650350297647,-80.98610456109651,-71.7236821763014,-75.262857714614,-80.22617125887984,-71.99780366941195,-70.14958679522009,-76.25185418219465,-69.5578041030662,-61.89967601421151,-67.35080409785168,-65.86856726357206,-55.90552065040707,-58.19611754456662,-61.28790585818355,-51.78779292825996,-49.99767803409888,-56.9860580499538,-50.7152881661638,-41.57515696785483,-43.58885017363525,-38.16582268033282,-25.5632242249836,-27.848554570945502,-32.97874587383798,-24.880336391067097,-21.978694701616813,-26.40102583313083,-18.63258419834751,-10.705809275193545,-16.660591432768918,-15.776433459681769,-5.412990052156731,-7.518469779413825,-12.381168113251746,-5.209128457892781,-3.6259632826151935,-8.083707957413298,1.8921658731520674,13.404267847155559,10.34804840296183,11.83324871834998,20.900483090697666,17.820195342750747,13.550067879978114,21.64474830975953,22.15815547689076,13.47914505539665,17.3820697521209,23.72660145288806,18.612086760388493,20.69104041947661,29.662008204383934,23.50165069495064,14.446125152884289,18.499096414782265,17.25984156482374,9.453715563261063,15.526162577783689,22.98397942830005,16.67202832399621,16.554917481050285,24.631667074005563,19.735733715445203,13.722335162951174,21.19272827490634,21.09390314440035,10.682072527858313,11.940077075316776,15.040945729209223,6.363705694455905,6.033468995989915,15.446469465922034,11.9744540681358,5.667389956252842,10.967463586855525,8.681719064994256,-2.0101728178916844,1.4633460716353515,8.602476423970904,3.817607851411386,4.888775488764604,13.080077624560857,7.804870915785599,1.1164199248099318,8.66884562888011,10.881920163183965,4.428636722761858,9.351753842393983,14.91626703919442,7.468821640378389,7.277100870301732,16.79226472027063,14.323791213897103,9.053762605937749,14.344652851056676,11.29069044885977,-0.7022719317406994,0.9709799091971476,6.556454522556236,0.8970522331099122,1.5077721792180299,9.137036841511094,2.7174027586940217,-5.792102876220518,-0.338060258850879,0.47305807315690374,-5.581313126822303,1.919349880500412,11.267423979628129,7.157350781065388,8.780629077698489,18.07405432923051,13.911354849269621,8.062373827654508,16.111501649690048,18.108646517170378,10.973831152284866,15.513566726699228,20.84541386263981,12.750137163570894,11.609813991429075,19.85902397315403,15.821969502885672,10.577170815137261,19.931865018240593,24.457307739854393,20.602680435064052,28.178042006645377,35.736770496166244,28.743741523622642,28.083459708181053,37.39496011834556,34.78073933054709,29.655241496836307,36.866904260376295,37.382746331802245,29.135400955151134,33.822721506507634,40.42130063791281,33.021527808427614,31.043625618327457,37.87836765524809,32.74196488885234,26.171940601073402,33.313913015009916,34.812234930503834,27.29916030633163,31.447679772460035,37.09412816052488,29.626732887667828,29.01625871998438,38.58968138391387,36.01148507090599,29.6266526306715,34.092117586869236,31.372458149614307,20.39691090168229,23.955067521779927,31.462255577007998,25.409714038757894,23.692282656937582,29.91332386679425,23.66598837133572,15.989080938860429,22.64473177208238,23.708022668632466,15.419736663574637,19.280093287406135,25.345038882285383,17.986356108988463,15.947868272515716,22.09433381170261,15.482109905555028,6.879506278435506,11.792855870197743,11.003279857148064,1.542648255631934,4.97496009136778,11.477299103692799,5.579201072895916,6.083739400917349,15.355572628038422,10.887980020963191,2.4962947446534196,5.914330461399334,2.2412688890807035,-10.248997849930824,-8.485599930332143,-2.5458503329354927,-9.087444188732043,-10.293804147089018,-3.5476170118304777,-9.28914974808414,-16.46017298908746,-10.120915972488042,-10.349855588328454,-20.140671671656442,-16.678389694736552,-8.390318296338208,-11.326476707904384,-9.346773959424606,-1.5556565881497395,-8.934557847533222,-19.10393319280109,-14.586761925482175,-14.583362977622494,-23.51000833396126,-20.312710988136924,-14.244515421925255,-20.24994940539727,-19.447825265920905,-9.502664794703012,-12.775408113551668,-19.384302171752392,-13.351670297235188,-13.776186713840492,-24.044255373272694,-21.940983835358512,-16.51273874693441,-23.561069304841954,-24.358098451493188,-15.799187327069957,-20.282914339094365,-28.42882763265022,-23.72373024998266,-24.22246358374434,-32.92078499412986,-27.954208436816515,-19.023412076606206,-22.991198863346327,-22.223738967060854,-13.494225574592189,-18.30102274069125,-26.6212385426687,-21.461970296934155,-21.106716285909215,-29.758000124083843,-26.664009544200965,-21.630558832971573,-29.773192185922095,-30.694379646533058,-20.290197661747285,-21.81062263264395,-28.10282074585401,-23.862561044981042,-25.967111304118877,-35.956424285330016,-31.799810100740256,-23.535409508028202,-28.318459782778028,-28.464723064182607,-19.865550447106898,-23.04994137237482,-29.188293720888584,-23.94681311082054,-25.65741327942657,-36.12326438296454,-32.76849905220869,-24.63648384050078,-28.39691055892132,-27.324158617919924,-18.563686830389262,-22.378504275980045,-27.65671850555873,-18.331936594319615,-14.497996095165819,-21.025127103786165,-16.661276754405716,-10.578922194414861,-18.18378747242272,-20.21989270618365,-12.720842999796147,-16.99300294765016,-23.13608726190715,-15.112589358483815,-12.548904188792442,-20.370569052748525,-17.091553931721975,-11.00785437706608,-17.523159554308304,-17.80332730477813,-7.7105691111096695,-9.611561683471662,-15.587158871506919,-9.418201803036606,-8.698558096821358,-16.840113437836447,-12.069743530865576,-3.5666807617233878,-8.192914507001621,-8.33296941566007,-0.0025827658667187947,-4.197678638251167,-11.81328280497976,-6.609725975805588,-6.2388732822287984,-14.358358482079803,-9.495419259349074,-0.7519941658177594,-5.478555832367935,-6.391865439366791,1.361310594738928,-2.410532158942642,-8.185043854316664,0.3700817505719147,4.280133722118437,-1.8859231917987382,2.792902054710892,9.786164239793717,3.254654268519964,1.7568171583446195,9.867890444931382,6.651496174170926,0.8406791964445266,7.313898458332995,6.684048463740797,-4.583881899459463,-3.122665303922322,3.6578174078938726,-0.8878689469256993,0.10416396959206198,10.10900518773882,7.673674663238648,2.576837677711503,11.981030684642327,15.910951707783386,7.6947711496397915,9.496411902248372,14.74647344351176,8.244790650475121,8.614529867576596,19.48834829074845,17.114057847694024,8.9349344136827,12.774974771608559,12.291046084499051,3.491907124842328,7.7285966616817054,15.684709984675532,9.507956011519411,7.0839934155859385,14.27794062001152,10.334712361453331,3.6445203553230368,10.77788230047459,13.392515861787832,6.0224057308191945,9.929418607744822,17.170184364524978,11.462330339487842,11.09946500240975,20.90275820097528,18.278734934469146,10.110611441283869,13.034981856014847,10.765691718890135,0.3142182249659138,3.8795175870772765,12.936134786212122,9.688802431420509,10.320619953295804,18.873061919585584,14.338850169448452,5.789395200613415,11.117963561732813,13.488514071433496,7.651485139111473,13.897512726261727,23.222596326571804,18.529298756108236,17.730979917487137,25.673165495811837,20.435533533944795,10.916672223670723,15.338358107835447,16.064111713209414,7.6400763389831985,11.485633333712219,19.204263615488596,13.577272675472827,12.562840807363884,21.059491061407066,16.881551273868673,8.370937424016345,13.571872461807446,14.988330548457277,6.577097188599023,9.527211629341197,16.47870591318922,10.80686234290432,10.19333757227605,19.425173700792023,16.05834722907303,7.7700280939176904,12.423852591174073,13.756099562586893,8.051890257557282,17.82779356938394,35.48830884806872,43.40040894117862,57.14779166542037,80.34467605525658,91.00974688313246,94.86971863452146,106.42280919339112,108.19405412424123,95.70673000757472,91.76735491392932,91.19449583219172,77.75847246786392,67.69028858857094,66.02712463609303,52.72176143797647,37.265354577999474,37.13927070585287,33.38256323264571,18.989899024968945,15.619805772538639,16.448634211264622,4.036490218860704,-4.500939610796491,-3.446568579836326,-14.132078125599048,-27.98455649329134,-26.39789008409631,-27.203130661672823,-38.30897365692335,-39.425750315703404,-36.84738964541171,-46.74172388002769,-51.95780749880903,-47.080863254098716,-53.737226256209766,-64.48060232497923,-61.3814972620396,-61.10455344704672,-69.59592049631331,-66.33919135352768,-59.71639784849433,-67.38339796587742,-71.47452789725173,-65.4996067588259,-70.49416820320941,-78.7329908331779,-73.01208739438893,-71.11209249864373,-78.75058593210295,-73.73342146348116,-63.531763000971225,-67.0380261060805,-67.95912114742305,-59.65627696375958,-62.12608653579456,-67.0972984001206,-57.51359603790298,-52.60436366001653,-59.67373235664897,-56.132666758873825,-47.82246849726156,-52.04723426614717,-51.79358217029092,-41.511307904760685,-42.633855231083025,-47.1832241141305,-38.08373349525374,-33.707795630763464,-39.82139588079498,-34.07889120046428,-23.609273695177755,-26.36628581237997,-25.797711478849326,-16.15380686435713,-18.545270321429186,-25.010325320612605,-17.53656184598521,-14.128011429710117,-21.56045791665698,-17.65145741506161,-9.220176219653927,-13.839027176889607,-13.552390411456292,-2.306350153765773,-2.952316826487308,-9.037474844598336,-2.5756208786286594,-0.19594753785952035,-7.686465084757929,-3.5727722835028013,4.252330528728571,-2.1832516652356766,-4.298127953339958,5.4857239993054865,5.346469232181244,1.3036599755323866,9.89374621313976,13.575497714185298,7.081809788737004,12.449101691322644,21.74119173271832,16.583623180073584,14.138286518145833,21.11334835150822,16.706129299864166,8.283646374441766,13.634691200407259,15.908944803443832,8.894519455983806,13.561814259711666,21.7625790309653,14.782368256061146,10.043364885709508,15.966324997963127,13.048597691903511,7.635431190709555,15.157373815026233,17.478269889077133,8.889343279211678,12.27213305450104,21.938529260328288,19.23217742426726,18.398202295511737,24.86167299566498,18.743787510079134,8.923414493970963,14.014445641799503,16.164365799479746,7.926323544196197,11.303836280410986,20.66870417354914,18.24708536088978,19.465646101734166,29.10170245992343,25.371122118220626,16.502325095234426,21.928485280670706,24.743246681613915,17.6369908336737,22.166233973644662,31.893474063367133,28.248392561880756,27.068466602942713,34.167312856225095,28.268625396774876,18.065885668866592,23.45605114150074,27.05173401925211,19.66631483624682,21.245655317264628,26.10333885877285,18.016267431470894,15.056582262467266,23.830123543013073,20.808668997291385,10.982711272345377,13.469982595366808,14.01908612737558,7.247653616785539,13.658138390031562,24.1389506415936,18.57423068095156,14.11995355811219,20.227909179295075,17.604300033327444,12.890223366471826,23.24206125904134,30.457202561546673,25.8974976349368,30.435568114367925,38.43182870976755,32.57393479047688,29.940695527114322,37.80482666771781,34.38903703986011,25.358682934643326,29.253197197382523,30.49431632488171,22.281811632184823,25.736056572161438,34.46760602185947,30.15908308405379,29.01447398298258,37.37640057346118,33.19025309066471,23.662523893454075,29.042159970592948,33.520141378240794,28.92089309860377,34.55403222017571,42.264722570877396,34.052236904519596,28.566927809929414,34.61381244995511,30.923912469814915,22.616400336418472,26.477297621773165,25.59639095141855,14.10548005001942,15.167824777193267,23.277207373535592,19.113299589309158,17.032860109216337,23.311771351542934,18.174536363712924,9.935370316355144,17.116650876943186,21.372074567909312,13.09547403774948,13.304860713852301,17.969357085881192,10.83225854356443,8.593535419427692,17.24570776246594,14.125501580761032,5.667135501106608,11.151596049876613,13.67925023665202,4.691242476458374,5.136277160812139,9.555313435660763,0.672353570642346,-4.461518856155835,1.1314146997337784,-4.493983443421907,-14.804389351933155,-10.382199672094636,-7.559427626559969,-14.543351166507785,-10.574788211190468,-1.8416365506445858,-6.909419228072828,-9.518076356476701,-2.403605018795705,-7.02336692813871,-16.45336233128381,-11.318910658930982,-8.810409250987473,-17.512348243489782,-15.86660088916009,-9.475755233516594,-16.81042322320463,-21.169390186138095,-14.952870891592974,-20.075235339330348,-30.339654751565906,-26.113139672518198,-23.786557530466464,-31.9879706814872,-29.410255295368486,-21.6353782349046,-27.487921086528544,-30.42051738420504,-22.331573071787226,-25.257192344103988,-33.996757933512946,-29.18241369098154,-26.14676251852331,-32.70775549673072,-28.448090193517842,-20.140322417513076,-26.692824588836594,-31.291641538636895,-24.987484965944276,-28.465823175263658,-36.54183051399133,-31.02936149527429,-28.082818752308143,-35.682102089393936,-32.54247640519106,-24.299862299563852,-29.60846393933465,-31.609767776262473,-22.01413586468789,-22.95100477888973,-29.355313947673714,-22.411269643884125,-18.551879554208064,-25.912088512756597,-22.61174304521025,-14.184961270357778,-20.176863044102934,-24.67599287770289,-19.098252306286355,-24.01558377960828,-33.202046077342466,-27.565591505477016,-23.854434600108025,-31.372685271805853,-28.725748841829613,-20.069167605181665,-23.696777405839818,-23.9057328998133,-13.279510101602604,-14.138856570871527,-21.16218320577941,-14.398498748571946,-9.697017376600797,-16.53170182046418,-13.974993744478676,-6.518466943087953,-12.399466435797692,-15.234220673942145,-7.0902997138636925,-10.544407523833735,-20.71320674908159,-17.271027497726877,-14.62007312887308,-21.27698374338074,-17.0798087475782,-7.871384341393139,-12.781811259970958,-15.529401906177366,-7.408005463942877,-10.083367265489454,-18.0970792521448,-11.379462688349033,-5.699468400996105,-10.699398037646445,-6.425191030755785,1.4840087500413182,-5.154885387506774,-8.958480287479606,-0.8853648282942901,-2.926659206833917,-10.865241092364663,-5.816186318774545,-3.192265037677689,-11.616589175798556,-10.367867538774,-4.347157045776337,-11.734302330501697,-15.471053964129904,-6.073606226806283,-5.612728721800833,-10.766634135120588,-3.368586483706898,0.43433213881837934,-7.565221165232367,-4.56599724788731,5.405231414721594,2.3344222353030673,0.7396142146832115,8.93168165887,5.352094644102174,-4.655902792057335,-0.4048509331687873,2.579291730899272,-5.530250126086818,-3.7159463231040863,3.281796407558736,-3.984043960128207,-9.607103566924547,-3.555797684635528,-5.911089418359673,-11.976055939893277,-3.422073733841101,2.82449201285089,-3.482435984356746,-0.7897268475004764,7.824545348216496,3.4589438585629813,1.1327367429975859,9.904919070117366,8.65842318761112,1.7395384558735407,8.349769796820231,12.50447317574074,4.30884008444161,5.257708707962668,12.089937839391004,5.96962580640116,2.0827549447781566,9.270924469436409,6.03933191710499,-2.8755483865915465,2.879403324825874,8.480822019923115,4.471458672385557,10.768211660767381,21.275346523092914,16.072501832304653,11.257317698307043,17.005305809921975,13.386216456900591,5.66691065714803,12.9118373050995,18.8194878938447,13.041741100019417,15.936978350631051,23.512014414143447,17.349109280664877,13.268906865395564,20.234659386055878,16.47459140309828,6.056346288601331,8.968127417247835,10.862450524308375,2.816993229780169,5.732838094500776,15.198310081540491,11.554081461302712,9.361845129549089,17.29459708517426,14.382746996852877,5.915233370044755,12.508522276586785,18.949802546625758,14.38982940504367,18.220991946539947,25.486668804309907,17.133795192727675,10.048507234585928,15.18085084511389,11.191131862993856,1.5859096488784328,6.183241827909756,9.99505030739532,2.969776302871673,5.793642548796189,14.39624024020869,8.797002104043528,4.139859258336415,11.300536181817453,9.702563918557896,2.4594939651804304,8.750355208311163,13.662207317170004,7.325331087083731,10.628843045334568,19.852527844410403,15.099868944010979,10.920278063515276,17.3833433804404,14.07938775083451,4.99591790674166,9.410996903287481,11.693069621603986,1.9386086132169855,2.0592351442349397,9.197234475598853,4.070345949747815,1.3636553301569743,9.63344748916515,7.134690814278204,-1.67220914506164,3.2852175536303054,7.048671739662076,-0.2887182922886069,2.006229253251895,10.538984359180215,5.958450048335288,2.740318395570627,10.510116445985583,8.17431078307992,-0.4480704843808212,5.252343207767792,11.139616585369707,7.45917307671243,16.502617722665427,37.32372092757367,50.98555654300328,69.50862691650678,98.76867064823819,114.02184568790614,116.02423432549199,124.44954222572817,127.05661457322798,115.28372382568858,109.30649397843405,105.97201112918908,87.46617529201862,70.16952954375235,66.25962206887093,56.49637009814262,43.23780096069219,43.326347170150896,40.12034086646329,23.590698846396663,16.172402808008282,16.56830770321337,5.753868574889385,-3.0260496174644205,-0.9836187735332285,-9.407182892316998,-24.840830299305225,-25.7969209417613,-25.279921722469812,-35.299019885615934,-37.28564402386219,-34.50578673229283,-46.091962844261246,-55.699516394825835,-51.372725292459165,-55.62203688786295,-67.57016529405836,-66.76151644006656,-66.07116891880173,-75.67166571162987,-75.38042486288563,-69.57107891403197,-79.15009682093793,-87.74158748867924,-82.31267912904421,-84.61940330658483,-93.60605110945264,-89.32205231809792,-85.20679216952672,-90.93061550501174,-85.72356999247738,-74.22153088458117,-78.07580073743291,-82.56307418219428,-75.1532386030568,-75.45497252216487,-81.39858866982371,-74.0417971008213,-67.39096042207282,-72.10786308118485,-68.01193152871647,-57.64030533555818,-60.863990895543374,-63.54803727493737,-53.80247455288239,-51.84989612917046,-56.65360597604607,-49.69097388319772,-45.27380131500957,-53.33858196717931,-51.141501914460726,-39.591850310429514,-39.0052588336982,-37.389979230455445,-25.762787521489706,-25.07333607138449,-32.435096795390194,-26.38495690852074,-19.013166218077075,-21.692276324135694,-15.525049204039094,-3.454399240914789,-5.750845915994709,-9.06236035400535,-1.8185968022112982,-3.6360112321637432,-12.30803402480695,-7.520612971226811,-2.347342993589141,-8.114012860570513,-5.258191177124684,3.2148466520533296,-2.297603217752641,-6.528539774657516,2.4018054494847707,3.892025464704176,-0.9035926498088518,6.013160628501465,10.430505240847461,2.804900217225723,4.500431907148155,13.396644004762965,9.551701276450514,6.2876453002415245,14.018010917766992,11.676911877405445,1.4336906928464304,4.245258564412326,7.214609687196721,-1.0267745061759843,-0.9120194641208028,5.113028790260315,-2.213519661749446,-7.615304453640689,1.3567279959435536,3.3510573634762455,-2.037371420139601,4.047448368896008,8.97208224458428,2.790390050843916,6.2406010373506255,17.32767829992193,15.353152221906136,12.978974890324313,21.70042223749843,21.04799743207876,12.193576729757687,15.705115671885507,18.824718014270886,10.518659574373908,12.0731845708824,22.02351045477002,19.35730325256622,17.0466895591308,26.818326177684572,27.849379643830108,21.04176197500282,26.694276785692537,31.390926777301935,23.232192413468912,23.5583743005944,31.782456062669187,27.392938869317312,23.687177937342867,32.29431974820296,31.86700404816672,23.527254181410726,28.202727230833865,32.75794989565623,24.916285626854158,25.08270684469919,32.27189657447092,26.75441979560035,23.404527612961466,34.76866134502367,38.23110380751281,32.43808556850233,37.06670306272718,40.135919753074454,31.92776961174894,33.99672519337496,44.05449020781586,40.24623255205786,36.210609329317066,45.770247861510164,49.35453141163659,46.97657699347847,56.780184095624655,63.573000792914335,54.90424779252755,52.56283507107945,56.84958850365827,48.10755231946878,40.647484499086744,47.853753947072164,49.45558447635416,45.01299832470211,52.886608634874705,58.606518024964984,49.77382458672386,48.123863746234825,54.777957636763574,49.912841558383995,45.74748717515445,53.50558908174203,52.234206534302565,42.97442971254438,46.73723672188757,50.36827595183182,40.72431900953091,38.080376579960415,42.808978497827596,35.28462940412497,28.409954316185363,34.205727274209494,31.778023188934803,21.695707257756283,25.47444417838522,31.017364196186826,25.055640583051343,26.571195814540687,34.400830330858106,27.86401423006224,20.18862366302509,24.834264646592448,22.1612248081872,13.186730579727016,18.559443245498503,24.37721363514771,16.6817173279952,15.213965221271101,19.82888681290373,11.207526256419666,3.7264232856314474,10.563493060794775,10.245451641538839,1.2065108141139333,3.3061417782251494,4.9533917312792255,-5.096556414619247,-5.957738050352089,1.8662517900277198,-2.9623294195615504,-8.336164374420143,-1.5573852846566005,-2.7642355181110903,-11.777595759385216,-8.21734920152566,-4.408204780091206,-12.402282404839237,-12.13964040346858,-4.909740356806613,-11.984874150494072,-20.196906962022737,-15.552640063725097,-17.794908800542075,-26.98720899970341,-22.535547407106456,-17.062254779400646,-23.815515798892807,-22.75438620160665,-14.185769418188432,-19.56753042865099,-26.454499281511097,-20.684953508517296,-22.140151168590247,-31.489029350230226,-27.442955292906625,-21.485026657394666,-27.02825979341013,-24.993114028869307,-16.616447497202948,-23.77511717147061,-33.5514753335833,-30.740584435411836,-33.8691300081596,-42.98888632712772,-38.096349082760185,-32.21212467677905,-38.87753205729571,-38.03523915640731,-29.240562699804634,-33.277891545012565,-38.108386235599376,-30.52059277955233,-30.52682416769996,-38.26009847890695,-32.5964368237416,-26.275655948670227,-33.857050348970105,-35.2502226614647,-28.695991417517227,-33.838062905212674,-38.20902349291798,-29.5929024164447,-29.971267831454504,-40.28464948533891,-37.91442582318962,-32.88441332327439,-38.59092193297828,-36.71238979677823,-28.008197554224267,-33.3877825142409,-39.972200939773224,-33.13289371051574,-32.55811758485207,-39.457146689124016,-32.96975816834443,-24.759954630332302,-29.163701252312965,-27.660375384451555,-20.123138186529644,-26.6996335406451,-33.928352598457465,-26.97251175925899,-26.460763793315024,-34.87343476476471,-31.276186754796225,-26.285109636139694,-33.04686186678162,-32.102251626101065,-23.49010869970241,-28.319855675811116,-34.003622490915966,-26.066136658014994,-24.48954974536118,-31.125515385750766,-25.241512897347548,-17.36012120082714,-20.731153721774373,-16.64965502679812,-5.246031458802007,-7.759252896985791,-12.236561893600406,-4.3488507685672735,-4.278082028608417,-13.878402953038128,-11.564201248821034,-7.3126954974565646,-14.107459937787436,-12.493181404247974,-2.5265763746344367,-6.280803900833843,-11.823348731219331,-4.091719990245119,-2.9818804724346113,-10.453550724108096,-5.132717200571067,2.421208494555347,-1.4719733911971766,3.1425812241022997,16.91514454667695,16.32738599768888,11.460204834983251,17.289822934031104,14.51306063216673,2.041546705503122,2.1800703444156877,4.193682261899669,-6.108750858083437,-8.404274057711044,-0.8688442590342729,-5.290712168222585,-10.554346201815312,-2.2030816585690176,-0.5900261922361607,-8.059457633931054,-3.713637519679318,1.1966262250868247,-7.002383583143653,-7.374292298491307,1.6935829176463066,-2.480653348480531,-9.138484264682788,-2.9215272412888575,-2.6499936958851884,-9.915616040881634,-4.3371457330567305,1.7938704879185308,-5.988551813970254,-6.567920338890973,3.0513047140930345,1.0526920857041144,-2.959012191252064,4.824012246948162,5.205440070904563,-2.8758371014930226,2.2867686943369203,9.49075478285777,3.3732987557021805,2.9601628074430195,10.632037965932598,5.990161596678797,0.42224945371425116,8.688677684833948,11.032024017136006,4.3317256696549595,8.788356105828285,13.846956433306193,5.647116044101582,3.857302832126573,10.444160490030193,4.36361290104065,-2.9057598858033833,4.153141546250149,6.451440150546688,1.0843368316622772,7.78261472511579,14.836576443169555,7.8384338389303485,7.468938231508023,16.489439705810483,12.93850768400446,6.837981694384304,12.902746256858066,12.217846726419413,3.1543508184245876,7.425401276916649,14.772613664048171,10.09368337399121,11.900587581970093,21.76521403612379,17.517612063568045,9.481800417322072,13.807921471229758,12.649675456072078,4.2874285651886455,10.05815358716313,18.400943380804232,12.632859992269054,11.654382245667396,19.112392714839974,14.664427656160171,9.190498054978555,17.458305695545874,18.86439517342808,10.076425914998428,13.452338671960042,20.09387369966671,14.822439561270073,14.968539816658176,21.872234114317735,15.217091820183972,7.063104791897906,12.93541225826442,13.341657084462145,5.216324841158651,9.314846764997327,15.920516185438087,10.845877884205038,12.177229054016431,20.964124543398523,16.203815872293458,9.65337770502591,17.128582790585593,18.988948243636433,11.868361682319211,16.921095778984938,23.73739721848135,16.43936593875631,13.343689792742115,17.484257966924293,9.441438773027496,1.7332214037497895,10.07578380656061,13.483207804648035,6.701260646826627,9.925996240027196,13.86426975129851,5.139337609763561,3.5222639291085063,11.478155508457547,7.677676448724345,2.141969198450677,9.452451256671166,10.287764452939081,2.1977098973600775,7.202441208453195,15.526331598438952,11.157967772750446,12.024326291230505,20.4946503605588,15.13807383131417,6.189042365910018,9.460460520599012,6.731431459994946,-3.3753603467814695,3.2623912559388484,18.092533123296967,23.824508914225326,36.38998242295842,56.807090998115996,63.580943125765074,68.53989277927943,88.12919851702301,101.15193903995646,100.27906363213998,103.62730251744223,102.04475281804615,84.4481629853432,74.0034908555508,75.74736022928695,66.98121587073678,54.161580236288664,51.42242587716832,41.32618072418781,22.029174849446346,15.819324046943986,13.518748359793367,-1.0308231205396234,-8.991152049781146,-5.581077906527577,-12.095689524089936,-20.67622866301568,-16.88543967438302,-20.127637054005795,-34.27697103034538,-36.445633747573254,-34.53903160544897,-44.685998407133546,-48.30498718750079,-41.33778145371265,-45.85326669473202,-53.61288870833475,-49.8629595204052,-53.50208883356049,-66.73696403037592,-65.99616229754774,-59.87676413941768,-65.67634052082016,-67.01239802139865,-61.039573337234536,-67.99430458822377,-76.56936253168317,-69.8028410204231,-66.46453851021617,-71.45444697515669,-64.67335721011345,-56.035378184080656,-61.78913182093616,-63.20598078886281,-55.242054406588096,-58.21181859826243,-62.87124292704814,-54.06746888322559,-51.30497283465102,-58.58958453887749,-53.49333222236977,-44.02349365326991,-46.40839023425171,-44.21189291070623,-35.170538156206426,-40.09835643902302,-47.77024686476096,-40.28603456427265,-35.95352626356754,-40.57620654589277,-34.46305650874437,-26.370798093441383,-31.30860603039598,-30.63210796110213,-20.290812430207318,-21.800171636138835,-26.196339190190432,-16.997704892512267,-13.127267025538536,-20.116947505861333,-16.78473984186619,-10.795202707552395,-16.683847978744268,-15.256348807132879,-3.3136064160878616,-4.425098170942023,-10.625233982378615,-4.9154622481326316,-4.518969340652424,-13.0691044883683,-9.216785369755273,-2.171550340011659,-7.797865098813551,-6.925717625616421,4.6867426204813505,4.3595942455459324,-0.5689711462095786,5.574995117775886,5.427662457935821,-3.678221521756087,0.6720062064796766,9.66611332230375,6.299256205770621,7.845446310956652,18.02527483069831,15.105399889562218,7.990616623691217,13.9218032234819,15.011937498786175,6.404166306004034,9.799422697113549,16.898954000609304,11.098544208380464,10.417621005081841,19.20442215791034,15.748643971272603,9.039317217890424,16.421694859746818,19.58919031557693,12.652580098094091,16.25696229979053,22.00747012610205,14.298063265513086,12.649955119664266,22.37967332076813,21.064537779023254,15.597521848873605,21.710509156785264,21.589279143439942,11.612040478051213,14.588262039416396,22.285312312549056,16.621838367471966,13.97790747453839,19.183901822651702,12.38063350376639,3.192686589362028,8.714036064634671,10.790764161829413,3.2784720505220837,6.853619230609111,14.006109658005098,8.6473652306339,8.45109745035441,17.852398663625028,15.12474047724076,8.344709091557016,14.277529638653485,15.602069385574904,7.734860086830043,12.043747848833831,19.904303648781273,13.985152757916111,12.44394936411902,21.025924806411023,18.530949382556663,12.79161413768021,19.440650345515884,19.62439439152525,9.059338519441173,11.322503795199996,19.49453343020828,15.699447475772216,15.896723588688358,24.40831780766076,20.27936164798403,12.978242585900784,20.652374874183227,25.233937195531304,20.035342939660747,25.710605552538897,34.44794278555371,29.18453666521099,27.66688589606438,36.065551847280915,33.21367495475485,26.446600200971574,32.93592701828,35.15069121279759,26.662217985962975,28.55942282063811,34.10981936296439,27.008554600292896,25.129910995090746,34.321139410405245,32.56933002304844,26.46975074136492,33.1984396801016,35.41682909972332,26.85809804952308,29.05994092186062,35.33656138311564,28.82517128314081,27.119075950896594,35.62888998979071,31.810738505938154,22.91077165343048,27.274485382265716,28.351654883394243,19.980916740812077,22.672334525043734,28.944571642103327,21.779711170911952,18.118448998468327,23.575906962140788,17.136216446622463,7.073526081268564,12.044331749252411,15.215810355129443,9.426050023875593,13.94651377301677,20.25019468968704,11.777743941427062,7.784072867267991,15.548687101346268,13.35436507530126,7.112063184459584,12.932654335423546,12.944206813560903,1.40315393230255,1.0167210002630247,6.103728040674581,-0.5380407900503168,-2.4843002027806813,5.807748201305656,2.4280420072017908,-6.0272075580950855,-1.7399277995505091,-1.0832671144731512,-10.012764829035124,-6.892063371804481,1.4481235362085756,-3.255348956894282,-4.765665472136138,2.8279481558783774,-1.6847173505615096,-10.459821807112517,-5.438778573872381,-4.47147120713294,-14.923136987430407,-15.031858949059366,-10.137014283795093,-17.112276018282426,-19.150845706302714,-10.410629507248892,-13.725676585449618,-22.880109920827685,-18.57411969204855,-16.672314935316713,-24.664321442297396,-22.149891214043386,-15.594444425737132,-22.05656696245105,-24.019643024645475,-14.729393930442155,-16.587796835160926,-24.338603658980066,-20.08671034420388,-18.885341807351743,-26.19487909997144,-21.558183760203804,-13.23755795365862,-20.046787949266058,-24.79437571453178,-18.834828332212453,-21.98972451238909,-28.059250894372948,-20.43749143030592,-17.469253305035714,-27.064010212803705,-26.868135792074707,-21.425815406218593,-28.059238999676154,-29.673238722415253,-19.010605537309868,-18.917400595705235,-24.7025613936357,-18.21578626625786,-15.797371119914747,-24.557303276582026,-22.28787902870082,-14.292222818448131,-19.195652330145634,-21.15735903497614,-12.605982086321003,-14.954879864671039,-23.139999019527057,-19.18681688716432,-19.003142309826956,-29.24932451132537,-27.341963317129377,-18.557627482798104,-22.13695092541608,-23.195537286800214,-15.482245070340344,-20.287270018610588,-29.87012301668684,-24.169845409098333,-19.531380185304133,-24.494786559044393,-19.03463208155938,-10.125181847450268,-16.12302334105598,-19.315482580443067,-11.45553317710046,-14.793331458092927,-23.653651862172218,-18.553431634206078,-15.225453171727361,-21.204249347795695,-15.901491076050617,-6.932479270707721,-13.471185294388158,-17.509063074316206,-9.567937278023226,-10.899795707450014,-16.4757382515525,-8.74497784677389,-4.914082455317495,-12.782917341885243,-10.350816059293368,-2.8244388806888643,-8.302671614711494,-9.860007496483004,0.045813730717660484,-1.1798389627902068,-8.792654882121253,-4.254599734049501,-2.678862694069108,-10.48767548112766,-6.286263679631818,3.122444484317216,-2.0019980704010703,-5.7157941210620535,0.5557577250793315,-3.3275194480379806,-11.074455916076127,-4.5133154612177835,-1.0914318296564067,-9.763647999321753,-8.72941228439221,-1.9452547490997705,-7.0765794419809005,-8.192566555948655,1.6416436296097814,0.11509247258710387,-7.605245953358585,-2.447204753170286,0.3468540623399163,-7.102482469419753,-4.20870769361739,3.597489696989201,-1.8551285691572144,-4.262575670646417,4.797953939663843,3.9288426518194814,-2.385023898899351,4.02682414774329,7.166092797771021,-0.7770084807620825,2.3887129449034084,11.683088159007543,6.979045822056228,3.068992100388859,8.323726566668654,2.2856503174707967,-8.172529412836647,-2.6331567174755466,2.73617378467162,-2.0427748492341413,2.9733608804078444,12.281942192705909,7.231350850260915,4.032910188876457,11.124388288562633,7.361573185508434,-1.6073789765858315,3.584249621352866,7.224347620167148,0.5686542391878078,3.9481876467021197,11.827917271471179,5.812842749957697,2.2449732596011143,9.634180456045469,6.683069784328226,-1.35976908029307,4.837723380352629,9.472625409393235,3.651150273223532,8.165698909558332,17.569362095307046,12.663916627379617,9.651159845805594,17.3973534081998,14.205626951860804,4.992663363917863,9.352989791579375,11.933669347623741,4.526652808201952,8.516286787926239,18.32590328989163,13.78045836817618,10.149920244550371,16.523333787150268,12.076800037658124,2.435821084499721,7.975241672985839,13.229499762738914,8.098662074126283,12.333616450144154,20.51149457419533,13.557764085020713,8.085024870000492,14.6051804611796,12.562371301190055,5.6140576876197885,12.369933711155909,17.556766728557985,11.439636369137016,14.194391849019196,21.10090536183761,12.713127326604543,4.954160901380277,8.625715345225178,4.187398247109206,-3.713614913424059,3.2856004884009273,8.76553637291591,2.5330531144968833,5.017017533971227,12.484369614076572,6.849208609861016,3.816501093999385,12.306638347107008,10.897168983595076,3.557544863142559,9.557189912437613,13.972004770213909,7.582319660196349,10.763633795835982,18.672358161994346,12.004580021426534,6.1609334796017015,10.788992550487114,5.617837161272831,-4.78129383789461,-1.091158802499069,1.6678208436665107,-6.190407225092853,-3.929478995934877,5.014039393308092,1.590968200623148,0.3735791578961276,9.89129531969007,8.273812536619102,-0.20411435560676372,5.019823637367244,9.245006050569732,2.3306518148803104,4.924464648266693,13.591547623298839,10.053754347775065,10.808165174847018,26.402427308862194,36.1750624921024,43.55775051605794,66.266855318322,87.28548459384326,95.13932457213107,108.79293686425109,122.68920716206277,116.15713192938424,104.55943193270562,100.14796968880499,85.30414044414441,66.2867905411639,62.774034217375295,57.871130232760066,40.61722582924189,33.26335874559869,33.527210883581496,21.37626574078923,11.171429779560022,12.85657212621514,4.642557761269809,-10.515205890711176,-12.784372446443667,-17.312611890192226,-33.757013788706914,-39.53210174515629,-37.66358450850953,-48.684912324553395,-57.76316338756365,-54.34014762427414,-59.45996019701618,-69.57558632916698,-64.84909749873827,-60.45765671242483,-67.35682542736349,-65.24613630039171,-57.4171095053003,-63.44782922224692,-68.26704243320538,-60.99067529499705,-62.859110760449894,-71.48000995127818,-67.00230922330488,-63.44846556270623,-71.09158981725676,-69.31677969221163,-60.918450790820934,-64.98958430257255,-66.91253321024382,-57.02615179501262,-57.087539626107116,-64.51630150243413,-59.24505341122879,-54.79721373999443,-60.96934661375407,-57.23341905811097,-46.941009991520644,-50.12966821332446,-52.69101270173691,-43.98335053644845,-44.16126320397703,-49.571429729675344,-39.920178815556476,-30.40445400868193,-33.661005583596314,-30.30200601132494,-22.438385372462918,-27.80427556796323,-30.496496418901422,-20.22366204265642,-19.76040014750864,-28.180930948361308,-24.77217808021988,-20.73877603661834,-25.443452029018125,-19.748603957284793,-8.133220201578334,-11.187907730281859,-14.32878531169931,-5.57711928017874,-5.094771859538667,-10.939679683873075,-3.4006043829692265,3.9958184098069016,0.014987219732075285,3.59723272658197,11.313558915910793,4.416273037124558,-0.8466958698705516,7.437250622539713,7.391914451294724,-0.982155436546639,1.3850202359554755,2.3473063878018854,-6.731951636540432,-4.24299787347972,7.430796904470439,6.92552894201442,6.131467085665272,15.3608215123846,14.249668667072502,5.348786499987623,9.845308536779479,14.995825022799691,9.071846404853137,11.561046093115463,20.592016070662645,17.129325846723923,15.207443847102098,25.133640126202973,25.20198836191825,16.75176133264158,19.838331172875975,21.785910642023147,12.647650978672605,13.04127019961105,20.23144442097547,14.076912117440456,8.701941145731876,15.197099162456716,12.911266167458574,4.330730814166269,9.58769457592277,14.436851713313509,7.7431601293306,10.756103735423203,21.241688251003545,17.620450936669158,12.357658671944066,17.01702272149543,12.744341064846134,3.6278672622917787,10.620775883989674,18.259306188342574,12.185893193655184,11.395429575571292,14.981609945960741,5.05703002973552,-3.0262037046725663,2.885187159436885,1.9435331438599879,-5.104176018811446,1.5862134560568975,8.508675057769924,3.339406494471297,6.070533085929746,15.519593064822336,11.518052928628606,7.690693942997483,16.764790912426868,18.36404095298089,12.873469850400369,19.961331044669038,26.319986820687127,20.147537069309532,21.24752723946897,27.99940620488024,21.124302192575158,14.941038727952211,22.11723752726537,23.140981074543806,18.712453598638206,27.45264605679393,35.508645484184186,30.98714314674718,34.08102290940381,43.869831014258395,40.731353673235404,38.08122774190184,47.13342035439521,46.65897546412735,37.913949576496094,42.08607631340239,47.068801399332685,40.92471957872617,42.47676038163913,49.32198664414476,41.83571201783893,34.89574707132611,41.17110571394931,39.597913510100035,30.618198574330425,34.73553245077667,39.31210102071365,32.32580647260141,33.35728659538786,40.547315611938764,33.953315783236064,27.90210258468587,34.61422916168823,33.01498659332499,24.05665863718814,28.331845548002278,32.72983114667743,24.594724501477277,23.30009657420844,28.036042655528426,19.87854566398005,13.043661244788138,19.357558970876347,16.8481517568383,5.914131816515992,8.59233551944627,13.272289166219768,7.259814485992216,9.466596705186339,17.900884489298246,11.683584198958707,4.852763576693846,11.415514304598272,11.019713367150171,3.4051405269358552,8.744640907937464,13.795097982407984,5.629767367793185,4.956554791563644,12.188811012913536,6.8334423162046125,0.6708569485685834,5.66130594828037,1.6187380444548851,-10.554087050944405,-8.89547520744733,-4.810120450226927,-11.43426095744423,-9.888305714181485,-1.1945201885946877,-5.941118169054796,-11.304395511332247,-4.465663033327725,-5.538460053453992,-14.234346507261593,-10.113427218898158,-5.7376647017371685,-13.54189527473517,-13.228803166163736,-5.412353360273057,-10.790188165107253,-16.19827624386665,-9.110262106513318,-10.982280691670187,-22.024083701788214,-20.673543295422718,-18.05650392728157,-26.21562002234716,-25.29561588559909,-16.430148183320053,-21.057935435267876,-26.3377323608323,-18.71926330520143,-18.687271372132617,-27.01428761867859,-23.150174172876827,-18.474989018879164,-24.831482273974384,-22.467181619234616,-12.996236646858023,-18.09563574275821,-24.98796977094663,-20.06213177654798,-22.916725499430317,-33.01313419921727,-29.523040775379506,-24.752992569678796,-31.311212346917095,-29.296749815294312,-19.887006192236825,-24.83857827925654,-31.49374066626118,-25.7222319735842,-26.756283426308084,-34.00037286258408,-26.70043429290348,-18.425390729779867,-23.523845546910408,-22.147819852070935,-14.002855023771822,-19.771684015961924,-26.930842339215893,-21.933210565847602,-24.456575722434224,-33.93963014255693,-28.681553285330274,-21.31980083929046,-26.858719415067227,-26.32137929519203,-18.888714135050115,-24.399657962693716,-29.832670612915,-21.61961409956622,-20.554554679758617,-27.429099370046647,-20.969691286391523,-13.431386170231967,-19.07261403973426,-18.38501205864376,-10.28939365838248,-14.492642099633361,-18.703661296493397,-10.639459361336495,-11.291803817678275,-20.84981958043784,-17.389777888853672,-11.9507684248746,-17.947497048299176,-16.678833499674198,-8.439926814603941,-13.090804224838578,-17.623402736337887,-9.596309662974443,-10.24903094082748,-19.82285547527409,-16.608662974469276,-11.885291769953383,-18.158174116905734,-15.4615681370807,-4.746540237637938,-7.518371342483118,-11.041864512505343,-1.9433716112242054,-1.004325036904756,-9.151050413051353,-5.548610212955665,-1.8154190065901836,-10.308172651600328,-9.938340741611146,-0.005099341457588835,-2.1158284483849816,-5.057448681024449,4.109408371685951,4.933055168966005,-3.4742372985856815,-0.29079609078089863,3.0188669732806863,-5.3556772760697156,-3.8437424742683604,7.698262686964565,5.969344860659965,0.6334758101498235,5.28898286160869,2.423356772132572,-6.501727396078163,-0.47436610267187174,7.180371646633994,0.862665691695657,0.07025878791681572,7.382622754575202,2.8316721003472987,-2.3101906929035594,5.389064092781994,5.710394275804045,-2.5358257976543115,1.9950800124985872,7.535312386523062,-0.2956468253697393,-1.4951665733428519,5.4276202540271905,-0.6654655783106529,-8.182456694140305,-2.607231021765228,-3.0009291102807953,-10.121406342001771,-3.0266425138576207,6.107390689654996,1.9588524553050273,2.9360836160718575,10.352852151958848,4.616653237146171,-1.819000254099805,5.0351755757104275,5.303208679456439,-2.516075079056892,2.0957747920694207,7.731741229443607,0.7859866084013509,0.5912618128436256,7.931441655654192,2.201124673276957,-4.4394483608416255,2.704639651625475,4.0280001859547285,-2.5630909885486513,3.4796563808052348,10.949910853906923,5.84978028264276,7.595974702548369,17.039706128091368,12.741955925719324,6.233770164072827,12.33174077409169,11.842579206205585,3.185904268563851,6.9941538027235435,11.905824670616202,4.698739130669241,5.874318505861715,16.057944507663887,12.888116005464978,7.574431077740751,14.642648573146204,14.477213571191633,5.8857740730282835,10.134226410180382,15.320512413601834,6.927126065462185,5.512517963966278,13.391626474580058,9.311905483685983,4.174168870070982,11.947357989920105,12.482741148491973,3.686505790662496,6.80120213529741,11.446414485604219,3.7857708454747985,3.4164211605693082,12.04152439357069,8.106977218958104,1.8539658696991945,7.36265339371568,5.975491095661788,-2.64507937971495,3.018502507771625,11.237822009704256,6.491094742186958,7.1283235483165015,14.91493184488847,9.650987800285804,2.6677992020808,8.328648942520392,7.18062397447507,-2.4093605655439805,2.005058195504448,11.132345726285967,10.36271266415615,18.099069498546093,35.82854778688546,42.40395068729948,48.669053404810604,68.7924225683173,82.9624313409389,88.10608115790326,102.98256274054563,115.24720323630973,110.02449452201748,106.11012421802475,106.02158756897674,91.0297615810006,73.57724862619486,68.23704252385865,56.6391744819867,38.641998983945186,34.96406694726506,32.75080148548618,16.882751283407657,7.656261390816702,7.968192589005267,-2.5719151401022664,-13.41347640019376,-11.793034838237105,-17.947245390866318,-32.3386133144118,-32.00493911010058,-28.074513370919828,-37.2512905920174,-41.018963052655934,-36.368704624949665,-44.08995729544004,-53.53789066089538,-49.68397475323985,-51.97961968329958,-62.705892317618485,-59.95643854511833,-54.10601989384503,-60.22193604316247,-59.20421386498468,-49.11141304295023,-51.417315697562195,-56.18086027761886,-49.40054620197414,-50.07596339820924,-59.77421469309264,-56.24691675866395,-48.50539404020118,-51.175683627548935,-46.65344295503821,-34.76545650487635,-38.047699473272004,-44.967405659071474,-38.32697291952135,-36.36327746123069,-42.598380171280816,-37.78895954701596,-32.80093864857831,-40.78045061931045,-40.55415927661058,-29.290750533696617,-29.638001015150337,-32.55771442559214,-23.339301518209965,-21.074321473598104,-28.129846041470728,-23.09923906424579,-16.602140720597994,-23.487452103053087,-23.35174976473273,-13.008700654266894,-14.992963747293702,-20.303844365212093,-13.715521369431864,-13.714131119593953,-22.31397581099013,-17.4096495840963,-9.619269956830408,-15.677826836135846,-16.755747287172273,-8.294347958831947,-10.16687252378794,-12.862919044964078,-2.8172452247822584,-0.2668959155766282,-8.357936347101948,-4.762211977898115,2.02826762543582,-3.154609161650225,-2.5297451737552965,6.493354241489053,3.4031597446500044,-1.1575180544158548,7.784676892108083,10.162140581577859,2.4096055878444895,6.314126078820165,12.523523668219836,5.848024967595595,5.075247311084924,12.970225420702876,8.14746320911865,1.3501844916957766,9.1290962608454,12.361229257331047,6.773892273434628,13.127120266351165,21.108355884051544,14.822129687775448,13.68213617337722,21.655869385598947,17.749150152328625,11.921711489260062,19.259667609216912,20.527091589032665,12.818418949857687,17.833233144730897,25.882411646164904,20.634708240456646,19.38252632205292,25.19419581141188,18.27450620447088,10.140841682376296,17.02633339819153,18.98327802833315,10.658081414639994,12.862551388376195,17.521544425144974,10.219266777612887,9.304537281630902,17.43657096850744,12.652919690382205,4.651703425029677,10.081279560676572,10.664582539262542,2.4043531593450522,6.169490198414978,12.259802030173404,4.832671317057459,2.6912187945318005,9.82442543173534,5.253399591451198,-1.4826314593849097,4.858501980742319,5.018394136236166,-4.227025098054346,-0.5120333274441604,7.148631485965592,2.3542661829372244,2.744330006735973,11.854605395501105,8.829486628516335,2.960547432430363,9.302207735713221,8.586825818934708,-2.2559747597017124,0.45100184987826175,8.86153786329796,5.513993388370676,6.077749408915503,12.835302646331343,4.954492007414821,-5.936710406320707,-1.2902354275308596,0.7944842978562692,-5.152462399981762,0.6812628927029656,8.12567288890011,0.7735369550227094,-2.2078731525617132,4.390640526974931,-0.06168487241921339,-6.184454793896218,1.7920370426223124,4.67107324089225,-2.051689013789691,2.5818644842162417,9.067304602199446,1.699037070024156,-0.3698802978464091,7.4831649205206,4.272818955626983,-1.4029938831804993,5.693406192757131,7.402038606797785,0.5162041555496173,6.4723911115239625,15.622410515614842,11.275184373993481,11.454165912008746,20.34793690964568,16.970525857601373,10.30661167348561,16.251834691128458,16.970166646161072,9.363943843061193,15.375470297811598,25.46786030606168,22.083544703326996,22.855666173192553,32.08031968492325,28.491071882949797,21.43261253375973,27.578434691347983,28.966154700156007,21.919608629824502,27.73867223333632,36.300659594112574,30.40700730830071,28.675995473381064,35.9579101720412,31.403400447328536,24.71861399987325,31.893927073178638,33.33709638294737,24.378169511224662,26.95652683031211,32.553200006194636,25.289211718423594,24.277794622044045,33.57882699511842,29.948518648120945,21.66444414488472,26.705585477183025,27.932880318141194,20.396391794496964,24.37791365292837,30.11173230407644,20.952590374056243,16.15602578237739,21.668096548574965,16.404884066664273,8.221977392926396,13.040031343178484,12.712524743154434,2.1223866484024727,2.4395515507485346,6.442061968942956,-0.8561683307566961,-1.4402887167323661,7.87732754631387,4.047878904399057,-4.457945868848276,1.0276645185287223,3.8065080364092467,-2.675382786151774,0.6391457044067268,5.354282149393424,-3.3816950044033374,-5.696797102826536,3.5231967034030416,0.8806815207493659,-7.251571233763594,-4.148555529237106,-6.450169004534744,-17.935472108692327,-16.888049269702456,-11.838057851918665,-19.426548551068766,-21.558998869468144,-13.857523944649369,-18.02844383472874,-24.983186648901274,-17.65497033550949,-14.623437055577595,-21.434009913916118,-16.840236753500445,-9.249397929409831,-15.609330836616792,-17.68979121667832,-10.197578363506842,-14.927887831224957,-23.628360552184063,-19.14751308586544,-19.139942240665114,-28.084574393861406,-24.231769799962205,-16.143295922725763,-21.466167804325362,-23.319738065907757,-16.82365758843621,-22.729707738816373,-32.18585275520439,-28.042595139825504,-27.92204775036312,-36.620874896003066,-32.7483361505212,-24.743165572252586,-29.550866779402465,-29.52184864585574,-19.88620056645778,-22.17060754500051,-28.420677538109732,-22.117256247892303,-20.54911632461155,-27.869236302406264,-22.741447690312715,-14.290860758125522,-20.31269012125025,-23.25681670805787,-17.605283375785937,-23.89289071648011,-32.846028080856385,-27.217482798717093,-25.373440554895076,-32.89218357100644,-28.227421055985907,-19.448898719263305,-23.946311418002914,-23.864555030964684,-13.507086378259487,-14.852719383638865,-20.341830710889855,-12.71933900612245,-9.862484952117184,-16.964261204006224,-12.132186125709588,-4.074403321775064,-10.897245108867455,-14.632301878978483,-8.844126278891476,-13.837120476097406,-21.156887343698763,-14.847703883910771,-13.936619651139264,-23.146407191625535,-19.091100756716674,-8.576924178391275,-9.540740221226782,-6.931585489793468,2.3895773817357386,-2.593852177837466,-11.737120968489013,-6.316735458840904,-3.78472315468978,-10.665855874914033,-6.584016472432096,1.0065634625470063,-3.934864615638741,-3.6456552129728212,6.3263747465996065,3.6234772864482734,-3.9535003830344317,1.2701414553668071,2.2417489098044765,-6.495435043797677,-3.7940239854729807,2.3994628024337477,-5.206223365554873,-8.799117262133837,-1.908768361663225,-5.24223917835903,-10.958139358509058,-2.306683819623455,1.5853676165620032,-6.405770187170486,-4.024271517898423,2.736200284375582,-3.2220851523804686,-4.903560020395052,2.8546928716473126,-1.7456811248659454,-9.911430536420829,-2.8953246026238846,1.1190920955785215,-5.282272385265287,-0.9921383277680036,7.147716285988895,2.5142997129143976,2.8126936221159884,13.03188830844957,10.531457988355989,2.61563895924246,7.174283794014244,7.736646976862949,-0.7377946220766152,3.1918649568430406,11.71097759574942,6.6802281968153965,4.402892136938255,10.740819966338607,5.666461013694023,-1.6989544814809063,6.781275041611866,12.78162799712284,7.853544303751302,11.207389639013078,15.798741701240568,6.559992107151819,2.962434303147433,11.53316523570429,9.08305973810101,0.65760708482693,4.230013816457211,4.998016312905312,-2.1605612183009,3.104472606731739,11.996185607362118,6.107451620982526,3.5843559528787785,12.156555024643994,10.202862434991346,3.4787621243298177,8.913907728766349,10.141795517250094,2.3614946078463106,6.987546175528106,15.453111752273434,9.281616398366852,5.630599213685993,11.411074985594308,7.204292509071363,1.7328124791286692,11.993400830560665,19.308545341783777,15.723804093325128,20.718681244547586,26.585194184535915,16.96110914815009,10.524462218769138,14.199088000057564,7.202673282374146,-2.4407962899515465,2.7213776784045507,4.486708152762363,-3.7180523296141343,-0.10675268010546324,8.299470231669847,3.5774953190357754,2.632214230573935,11.358120301323526,8.003567732693414,0.3386970557916027,6.797163125382474,9.623553006292608,1.3594710440764004,3.2392267740161085,9.340608206805518,3.0374602225098135,1.0451130017044545,8.584036696542762,3.381821521728836,-7.375415551702672,-3.977022441441781,-1.3814251528789467,-6.586722848498063,-0.5610938533555694,8.151670269305388,1.751004699881198,-1.2460496403985546,7.0418527312494446,4.929134547181391,-1.6639225000318212,4.441953018969981,6.3688254894606136,-1.536492294736878,2.6565313371496027,11.657710741446563,6.6570204447444965,3.906828780306298,10.410248412191672,6.013470489265224,-1.7762898546346535,4.593788865362926,7.647697262367943,0.45874844544598403,4.13717140458066,11.771464305320682,5.64632011511928,2.662851303997556,9.551440294898134,5.841897537618856,-1.2472150028331703,4.984343060145152,6.69922245206549,-2.111557128940441,0.6874944161859253,8.700391092951552,4.074528627425915,2.457769117951371,9.289268696330444,3.8033888520747836,-6.405892195711669,-3.1768869822683907,-2.4739744571783184,-10.32587015143461,-6.084602474162235,2.6003053027104226,-2.586391495571904,-4.740392798367871,3.399866084702696,1.3431063886193708,-3.890181117611987,4.4106773819369005,7.848898247123185,-0.3574729654813522,1.9414247804981666,8.646602725395315,2.241947570311634,-0.28449953477662226,7.658011491624142,4.97619400554535,-1.454291911991812,5.295472259826667,7.3035085099783785,-2.4148079137985476,-2.1476370937551286,2.8274293698631263,-4.2614046711809,-6.7555223432180265,2.162350533945248,1.3555795512891322,-3.432671649934612,4.306313967371382,6.93691864043058,-1.5622585988021815,2.6348667387764126,15.729503048281346,20.14969200899219,29.295622117129554,46.61026041839589,51.19882414263233,52.00846368399651,67.87665737404845,80.05602987184857,78.00504306732151,80.72245406039858,82.49590665908134,68.29817663115888,56.837718332308995,54.48862978127369,40.28519103910453,23.85266586161012,25.252873094651353,26.29779943046693,17.004720413769835,16.03865972167503,15.942198773179992,0.37577456257695285,-11.030730596298527,-10.35297382884724,-20.07433583164784,-33.886292193475086,-32.671850881777566,-33.416735925218205,-44.14800415335287,-43.61530597521923,-38.431565148797276,-47.538224686983575,-54.12267944880797,-49.85616730594001,-55.57075674163491,-65.5002119044803,-61.63537359709464,-59.93996694048803,-67.04687901085586,-61.21650439217623,-48.298838359842904,-47.44262373541427,-44.640895838206774,-34.53197519483447,-37.93884390373699,-46.62408543773219,-40.82142292921098,-37.083374167315114,-43.77072464544964,-40.81501589563581,-34.42714778324275,-41.09416119050391,-42.68075419596692,-32.424077200660655,-33.09189201343179,-39.18351757039402,-32.8649033924256,-30.585535127349452,-38.648410376804144,-35.0219148179053,-25.346396771267507,-27.464915509225555,-25.90183888959036,-15.414984784248096,-18.32798048380056,-27.247668033343764,-21.619025683167102,-17.01087349065844,-21.492268232888673,-15.342419383086433,-6.262236416814385,-12.546710129382056,-15.87766640436066,-7.303390572989975,-8.625438835988335,-15.0621090333687,-8.48965872725481,-4.818320847050596,-10.80751862057098,-4.90560397684106,5.658013673328776,0.6303714121644903,-3.676930362456349,2.433975646475453,-0.7816294622087687,-8.319112669400367,-2.9424167230955485,-0.5641355022253429,-7.492927849538877,-1.6074908070254135,10.110316954453817,6.706936536802528,3.687876214909343,10.456252676417662,8.13910631861716,3.098925991824384,11.278041852095315,13.728146211962308,3.407316764985892,4.449523115121368,12.943116490300786,9.704526373993842,8.812983689527632,16.416984061242978,11.438873082107124,1.3791683667838006,6.584091802822908,11.331216494973066,6.829562801830361,12.890212860545205,22.807917016892024,17.46844397772331,13.735132699500848,21.109405652986545,19.02842269034258,12.248733958553409,18.089375515448317,20.054633188515194,11.041039832266721,13.07052193904917,20.108509535961613,12.663513776356265,7.4633525839967785,13.956689369024568,11.57419498240567,5.172954525174885,10.961395647428734,11.147731359703384,0.34540015986680217,3.5647531714686296,15.094735991775813,13.168480850782526,11.500410493396844,17.686172540674146,11.850982025586909,1.828803680846713,7.194870784644404,10.177255735581106,1.5977856201596605,4.214171734513847,13.655594941914606,9.766563348262316,6.8606554818097845,12.777351509132997,6.876555320866817,-4.259328750053666,-0.17561190714060038,3.6592755833166755,-2.33257692895289,1.9625436417854947,11.40221209607669,7.14615345992281,4.623919630623896,11.984276728146433,8.367782800420429,-0.3344991099219423,5.575847867708196,10.416760899633935,4.839357050811179,8.827016484581002,16.89616921492036,10.845270458035083,7.262337188296099,14.48821949052544,11.077730487001375,2.2396334016200314,7.218331826771397,10.71568476147773,3.8962435124466968,6.861590863347712,14.674255004871105,9.201633146280777,6.718702270743604,16.208368953700578,15.659310528431554,8.437892772681067,13.903669016080135,17.841852723153636,12.12877908189311,17.73078785349154,28.65119577077885,24.082702656175066,19.33177504196249,24.381627262834204,19.484487292112426,9.809530319835918,13.630903366539954,15.086432760214258,6.103778544885448,8.088312053844417,16.472595688819727,12.469711418320783,10.602964462295343,18.037053577115213,14.2374495200454,5.929066651755035,12.554228196483715,17.853762932741986,12.477754582591452,16.39743079944584,24.141850574499408,17.679766967724447,13.916191682789792,21.498791872838535,18.87460445024367,11.220327990285142,17.595996240164155,21.611267428334298,13.833572595825125,15.233322959428182,21.660916673629256,15.13140543028382,11.720278351561515,19.3878621641019,16.064548360133198,6.924159513676133,11.696358965972514,14.840653555080156,7.720489821348837,11.056702588738611,19.20030367207392,13.24392511561409,9.477994479554788,16.58556499388097,13.368213677421632,5.093906963445313,10.490883784478758,13.168876612475783,4.883745584819889,7.51045945658188,16.292784301649615,12.244667365487127,10.290972799988104,17.4226340883177,11.604003533364303,-1.2486634930180358,0.004332159861082818,0.8236826861326971,-7.56770247226588,-4.343782971446899,4.430565829319684,-1.5250154855576281,-5.82101601116774,1.5215489396541635,-0.7874643424487346,-8.80479263898002,-3.8085194797539987,-1.2902742367546067,-10.110801761809855,-8.91270349033879,-1.8631018060823141,-8.28925073897533,-12.907349744052105,-6.075203219496023,-8.293285253440985,-15.348613077462137,-9.027779425183496,-5.735149086728997,-14.707608219324406,-14.165769310104888,-7.63795825582247,-13.90860777015812,-18.058913948473705,-11.69627607593797,-15.776216516232525,-25.055628993533713,-19.642646872114977,-14.928382902212238,-20.885957144947355,-17.582107582659987,-9.66954099562323,-15.671080929922548,-19.68123034623289,-12.563001718306314,-15.228213428754726,-22.914303112581784,-16.789247027103325,-13.141657130469461,-21.47138115016253,-20.64210384596841,-14.462874585641304,-20.990444656523,-24.613160123200565,-17.306339083031403,-20.87590241085695,-30.581906408124222,-26.219555319203447,-22.357470889535893,-28.420400183776675,-23.982886393830075,-13.753211876192024,-17.225660842415365,-18.690211432525174,-8.676058576057676,-8.982661891222376,-15.87212085594838,-10.083328985754896,-6.780872385010231,-14.831121435560688,-13.043256055393767,-5.877248786006545,-12.678160173749506,-17.760801151780264,-11.094345573763714,-13.58274288999951,-21.71989107025582,-16.77243406815272,-13.795807729994031,-21.381155782850655,-18.03771246394126,-8.501157187578084,-13.084325912308438,-16.939762313824264,-10.533940355188017,-14.423228920898236,-23.59908713366631,-18.088805277390485,-13.22222259713448,-18.9008129847266,-14.622543887488945,-4.8752370623406875,-9.209320424550704,-12.289011717112933,-4.536572247699448,-7.527922026160088,-17.193477619894935,-13.1836654880541,-10.258855469415264,-17.626410533691512,-13.973906533014823,-3.9036468147261023,-6.981311365231672,-7.936464173765531,1.5348171862257756,-0.4095620052502289,-8.850280424007789,-3.490611989592079,0.9373186921268167,-4.710781938349033,0.16223699424486204,10.332398245800894,5.624660218233732,1.22508296522691,6.856782868105331,1.9407939486768861,-8.50840736996743,-4.363550987995382,-1.1318077206683785,-9.437270809395553,-8.760754140423861,-2.087460108222321,-7.783473422027041,-10.70269188578149,-1.5360503089478867,-2.1569874193356213,-9.54437761382082,-3.384980624215637,2.4595642324573346,-2.1783994873932255,2.76480142026122,12.741991471567571,7.469174249469472,2.5857360471851996,9.196761674014496,6.507637782091788,-1.780821353316087,3.618347344587076,6.672668411020099,-2.4841167168884146,-1.5512621271374196,6.52678936753591,1.9180308529400736,-0.9627915199249216,7.174469302416645,5.039197318899147,-3.3137123030151714,2.163756914000228,6.450621807496995,-0.7849016982165544,0.8853644393022497,7.975710773522503,2.1344249490203806,-0.7985442741971435,8.633527700992463,8.297367720221436,0.46213330811720965,4.156811182440119,6.724555983319176,1.292293845651853,8.143560412192599,20.16187401614837,15.143201591371366,7.713663120651329,10.063556921995316,4.232688662080099,-5.4176963296269935,-0.6027687773672166,2.748734966092248,-5.07679401775486,-2.3307848147560093,7.061488426525724,1.85405014277105,-3.633349168639695,1.9368154671046969,-1.1518152118360288,-9.476297466919158,-4.084503007635873,-0.5455861769235771,-9.184732449103905,-7.927656543323829,1.3269736684088782,-1.4614462083314153,-3.729104311893104,3.340189017790939,-0.2919202041504012,-9.790907611095854,-4.4568602914494235,1.5348325781518755,-2.6710744365354713,2.045064907658873,11.656489338685406,7.3674237678505765,4.050097031839508,11.28996173818036,8.651133843290577,0.3006912495318712,6.467061467554875,12.650007241008316,7.584629702645727,10.449808365703104,17.474495537258168,10.442141949706802,6.5601083297147955,17.208747944297457,20.383079558930728,17.676110051974042,27.618978953873103,35.36224244126189,31.99171989667463,39.837328603685705,55.48350543192427,57.64840899612723,59.72714551405265,71.56054466689847,71.8182734349913,63.79863112936057,68.03125954686759,69.98945289673645,59.39607950808163,58.08582235527333,63.63289235983524,56.009631278277496,48.884150055696026,52.24056782048685,46.27544049689339,34.88413764695301,37.283851755528126,38.58048178112625,27.93684287113863,25.156406107206273,27.711133611125835,17.196849125269598,7.996162338322676,10.545331635633884,4.893314028627325,-6.564547281564629,-5.21927816768053,-5.209899090707011,-16.33524259132277,-17.300208197203535,-10.852166536926642,-18.264777587804314,-26.978088543245278,-26.085361261883566,-34.099061856810565,-45.67392696662207,-40.256485787066254,-34.76212562213243,-43.15666698158954,-45.132413177952344,-41.53165545324306,-50.13471354025149,-55.94492633102512,-49.88157566369868,-54.58126087174376,-67.08153754873481,-65.64689501678875,-62.637858053119224,-68.6888840061532,-65.14856587169652,-56.34832061556922,-61.94626022393028,-66.8551558799549,-59.50888492424352,-59.56907432031959,-64.40734717669476,-55.61703962860824,-48.18191547204289,-52.57247179232777,-47.88950448641538,-36.49609813621985,-38.370740821945155,-40.22192129360037,-31.738601452848357,-33.0526638596019,-41.285492038912345,-36.6053295586403,-32.69157278417559,-40.03303862307594,-37.435783107539336,-26.486992325827906,-27.773562046345646,-28.96920627656999,-19.783242961546392,-20.261421610773276,-27.14290158114541,-20.040724422189356,-12.702781014565637,-15.878776188513045,-9.44951596990101,2.948272192052437,-0.30855423225387346,-5.939334614696123,-1.5105952321975393,-5.224292231086929,-13.150233288935851,-5.593976499306759,1.5007238085744454,-4.735328621691144,-3.813132987694193,3.386937005538169,-1.8668338592406246,-5.361349160015859,3.9072731337474136,5.051748783038848,-0.4212440049605717,6.692044178503296,12.42098089178009,6.252442122155307,8.80123026474449,17.7016939946609,13.324631103649203,9.464625819239558,16.97727387568402,15.763515891029838,8.427206023506761,15.051374805814632,21.57782793819608,16.21167475654772,19.155847881508553,28.30185447371916,23.50967524795194,18.906250267824817,26.31368797879911,25.049193783444206,16.990163999639606,22.726395904927628,28.713469144910924,23.362330664298902,26.636566422691637,35.89394426048749,31.131935009908076,26.769333702711137,34.52467915747918,33.53997347510834,24.81655293428694,27.678820933959845,28.887418023375194,19.00792776714863,20.321627847226594,30.83762138680227,29.004208351134594,26.616363797568223,33.60694732208897,29.92448244128679,19.304300003428267,22.851244083537523,26.43654687639183,17.787599552674926,17.14189620654325,23.592030506313968,18.53258145211229,15.713782319253124,24.486524303100946,22.18902197040646,10.749761617258113,12.1073306721298,14.47464796224083,7.372359749239947,10.605866666549021,20.40633443608707,15.192066192013565,8.650393581672187,13.615499532191144,11.686915812633739,5.745849239457044,14.279155546346601,20.350351614904664,10.66190860816379,7.28102703862586,16.658937561361117,31.931405713903832,62.01239599604475,92.45944309523391,94.8145596955488,79.2727709949007,64.04269994597624,49.780538529854,47.60387239823747,56.86828361907527,51.773974229668944,35.702316234503364,32.719019686439395,32.63446112105841,23.506117295317328,21.55216526790383,22.603990659553244,8.832586172335613,-2.7106641483577785,0.10460911565831932,-5.257741698315035,-17.893595990571566,-15.66402130385455,-11.495175513317033,-18.9487661873739,-17.961556582252065,-8.945115005272543,-12.33869646981123,-15.844820933490709,-8.71819140218777,-11.658287784885564,-21.906855571308814,-17.358197707725694,-10.745893352110894,-14.581672891668473,-10.074182944758608,-0.4141266774970127,-6.3883752353494,-13.669337055733044,-9.02767542500547,-11.531706672989532,-19.04844928142495,-11.725342812230044,-4.350198800515705,-10.230734734178254,-8.76790091438146,0.2537177383697311,-2.6356149248445973,-4.6273783346568385,5.0523811235483524,4.930054057467478,-3.6604411490433106,1.228112134898399,7.215447793040175,1.2162912032938058,2.7587562827455328,10.296071754917296,2.7774612641152707,-6.39252561397396,-4.2661682446621425,-10.443125950754741,-22.55692313137072,-18.728355719821113,-11.754970633242749,-14.968197233610042,-9.920841693791637,0.738443942378646,-3.6669094205522423,-8.701767267835903,-1.1029860729879153,-1.5763270702943746,-10.022628533414647,-6.377082578679517,-3.0997449641780443,-10.998148486754772,-8.989545586470944,0.6305626265716064,-4.746324659744886,-12.520836639973473,-9.356344363570923,-14.342688411779733,-25.809151840939457,-23.507457153914817,-21.020901555067894,-30.171032920941393,-29.348714255257526,-18.999366980331207,-20.932918972344538,-24.07079759447346,-16.979095185788374,-19.25567758991062,-28.180211435826607,-21.741434920929215,-13.426412670359321,-17.421282642274733,-14.758357919217769,-6.571702494367595,-12.54774865161917,-18.672064762266057,-12.77540355793409,-17.910096757576127,-38.98842210531627,-57.37385912547524,-78.74992511588434,-105.40314320214837,-109.69089646202342,-91.5661839741826,-80.86378045919713,-75.54692263909155,-64.63040005855873,-63.005109616870556,-65.90373161365007,-53.22490219392751,-41.3623749504036,-45.21295533868384,-43.03853185721851,-32.37937509993142,-32.554371549201946,-32.23651436531953,-21.551418798660087,-21.688272702240273,-30.664966750547247,-26.263635143772248,-20.26744974491255,-24.766593495266733,-20.211819410845283,-8.586754478992953,-11.36359326788131,-15.811579384944944,-8.581751293839776,-8.402295946093735,-13.841854042770427,-5.179267874953353,3.376746779217563,-1.3994688098804606,1.0392157430236608,11.189307304198994,9.208244884679956,7.410173188468097,17.154401959003405,17.405532875619944,9.4971944934199,15.82232760227607,24.01616032022536,19.87899243475671,21.89466938414587,29.194275955549244,22.15450097094084,14.668078087958234,19.869995431662314,17.79027916217002,9.386214535645223,15.552763715394615,23.431085442029755,19.786570066354777,23.491387262858375,32.88953207314507,27.786248183693665,22.230060742375272,29.262418454911305,28.541303455898763,20.991796055534024,27.476269540153776,34.85865186202589,29.823214778145715,31.777258165259155,39.4462433722629,31.922792668733088,23.12183241562939,27.90743223083533,26.819819928088634,19.29118140056562,25.213105133957477,31.36808049102817,24.168733061963575,24.26235923276096,32.64515815527712,28.70264296817122,24.45232914171575,32.19890072873487,30.725360054967666,19.941491326057893,22.040566721818273,26.365417268545535,20.466132105836117,23.262848315252388,32.986981043538236,28.30147771836411,22.29806930631089,28.865476138747443,27.994491047597098,19.026045257080284,21.822159147798637,23.81874198231606,13.923224791117804,14.7908511474416,26.405816450126103,26.663149238869707,26.636980720203688,36.94686318288508,36.665824904116285,28.23398563109067,33.63613843317042,39.07322010937899,30.41230293683312,27.63524030119997,31.26843775011286,21.918650962338873,13.179635308298131,17.891191035702857,15.015399896143997,4.665108208884941,8.296602310852489,13.138766107439025,5.169075365752592,3.98324678069315,9.540391745428135,2.0055529739855915,-4.718193555626357,2.307943093682279,1.7291945880366,-6.8481001999835325,-2.9055574579208985,1.2044633860624083,-6.565711742384397,-5.747109139814949,3.289498404359035,-0.5580766367215322,-5.723030841717955,0.7273701345522237,-0.17977657365847155,-8.263187129013438,-3.430753280676777,1.6242648067631489,-7.102590139281375,-9.842417134705489,-4.653162550686409,-10.934191130984187,-16.62809832439776,-8.882403685650551,-8.477363957535742,-16.496432212047143,-11.955867450661213,-6.703046437081152,-14.029080750251874,-13.314628619553874,-3.3364121090310466,-5.5348449253673575,-9.482090061254937,-2.6282700118303266,-4.977292801717132,-16.337075499587513,-13.846175963103766,-8.049101669646248,-13.254129434987222,-10.933284789023475,-1.0626814181256314,-5.208683572845352,-12.19977149541646,-8.128594389617694,-11.93314644653913,-23.74405264786201,-21.86684495058331,-16.96577619371338,-22.49054798035608,-19.877524763739224,-9.667635637765933,-13.120942182083175,-18.38353865524104,-11.425492896814072,-11.160035586361024,-18.25059529829595,-12.964796641373662,-7.504318773359454,-14.570864868076429,-13.86773105305074,-4.956316053467402,-8.946572893448726,-14.336753755667772,-7.609878460749415,-7.980868354255474,-16.10262300811186,-11.505826050789425,-5.902974428712847,-13.123046464696545,-13.561660887545187,-5.958303328778365,-11.024674036734547,-16.692335940077268,-8.232254551344546,-5.120833898275829,-8.916023091028814,1.1318211881595648,14.758729293649516,21.056964784301208,41.53248371695493,74.98196189943876,94.93914666364014,106.580285871429,119.17228063919481,113.82198964950159,95.23660144140146,89.12670838497723,85.6246337313004,71.48986341451678,65.27108024458236,66.17305292842813,53.39822045716832,39.04725715006186,36.73147251855185,27.28286824570833,10.90176033119929,9.674384443077486,12.58182240301991,4.481957909796214,2.626883736430133,6.995883464191985,-3.0602799657596,-15.32721678588284,-14.581320039653155,-19.43133175764202,-31.274747208147026,-30.04385722743744,-27.729974102968537,-38.15269222252883,-41.752657803332895,-37.82286605331521,-46.81523419486827,-56.580455630837065,-53.55255791373519,-57.19343261186712,-67.9979995921333,-65.0645717553244,-59.49421925982471,-65.21974198318443,-64.37940946641648,-57.399591262313166,-65.09835291624157,-74.9137274862451,-71.34997641223669,-72.33788446308577,-79.11286573681596,-72.68770026469771,-64.89949691488577,-68.84044179581082,-65.82153671190481,-55.972537164415954,-60.20701478391149,-66.40479036069144,-59.32693992815069,-57.825530311957856,-64.57042064363498,-59.98212830960129,-54.65968412358279,-61.4668483822009,-59.68607969259324,-47.492699227614615,-47.7699125523885,-51.04050433835569,-42.44496190316845,-40.35332617296996,-46.50006652208252,-40.22115743043015,-32.328039469828205,-37.439917147041335,-36.55335254784707,-27.08272665640284,-29.5531660202315,-33.88853436647752,-26.278236149657857,-26.00851844369504,-34.867441670158925,-30.97453658604651,-23.28575801621175,-25.802546609879464,-21.476630001007045,-10.631674609801689,-14.629915470718705,-21.5999000515424,-14.849446806219323,-11.686920675379364,-14.659391546478757,-5.192652911867066,4.249256719963649,-0.8564159053500937,-0.21223091794302884,8.798045987085333,4.845568795553287,-1.658539688597328,3.4790523920614644,1.7339501436186158,-6.627154175246669,-0.0390704311317549,9.09634024719395,5.230415663731757,7.158244413438595,16.63071484737898,13.107555335079939,7.849678061670328,15.343715780040881,16.259314841263077,9.391796488446374,16.258100944875668,24.93302164627696,19.92468901505984,20.6937202032009,29.841975448941355,27.304774052952904,23.961471719327843,32.936234340632,34.03326451963501,25.35048191142407,28.152336683658458,32.4537659451887,24.70612287590239,24.74279534340917,34.56127906719816,32.309295874531685,27.761614766450297,34.36500291409755,32.69570386325536,23.101273961637567,28.779961132447507,38.202319240156854,34.52892356385166,34.92342455826331,40.66675193113155,32.2512643318592,22.677284968056593,26.90372121411981,24.712897678705602,13.835227897798875,15.65672331525489,19.490456996500843,10.56894946092363,8.127265205609886,14.889947457096568,10.64299004444962,5.812405463969501,13.183608817176133,12.052902105110201,1.7120404821137427,6.148500801923591,15.197283056171164,11.82372211118069,13.02661174200011,20.814739070887295,16.065995119341316,11.672026372235162,21.70226195549105,24.26041113194124,16.253792250895444,20.143684063499762,27.015002331843398,22.52433684127046,24.468595126719592,33.922828035521334,30.35854059655251,25.039527929853516,32.534545691313376,33.524116856051414,25.357217542449533,28.62556275668385,33.38473665496687,25.421096455953943,23.49322491712309,30.17665412355163,24.87841224838293,17.94203443185102,24.291988777206775,24.44989608082062,14.934087451200242,16.928351934703365,20.972668031720666,12.532877503592868,10.830161642203603,18.42783658514358,13.757425862756328,6.631147197134106,11.955225603246824,11.53962728590635,3.4728064352563486,8.022091447598942,14.215912815448215,7.490086675316113,6.8685985840180495,15.444436867737748,13.780382871047568,12.038854946600999,22.83084031775524,26.001624014315027,19.599256507369716,25.437435520205337,33.931980088547775,30.008267776350152,31.203288399169104,39.517758757487556,34.94681746179896,28.563920875758512,35.10486780702224,35.07867476456584,25.83710769263789,29.40960126098993,36.36677298940896,30.904370908296578,30.796926951470592,38.64183356873439,34.04322693825877,28.35942649818677,37.190265884219755,40.34085132206384,33.708368378272084,38.833763978597155,46.19145294473781,40.057117974463765,38.99080456875426,46.06382342095887,40.330749890496676,32.32543035501998,37.36511821191362,35.9085989417137,24.63601694025238,25.114717675418625,28.281625054907323,19.552056776898265,17.48253476113374,24.302091727499906,18.280340810219684,9.347910671712789,13.416117927647152,12.332114406888575,3.5880264501506876,8.379845167032494,16.04818285144802,10.508780033170375,10.161575701631076,18.03156851416366,12.914705914838452,4.370032583602295,8.106087668690737,6.469954867020031,-3.21941834880159,-0.5169790956126916,3.596258724677168,-7.110355487481489,-13.623801942563446,-10.858247615780371,-17.587662958278692,-23.64292867081468,-15.342913370306409,-12.827710520173156,-19.949173351547874,-16.043499465324533,-10.422635889956235,-17.500470164443797,-18.412014950574488,-10.243724859247203,-14.261359439336017,-21.05851675350954,-15.394320851249315,-15.481090779585971,-24.42399043750932,-21.582653111810124,-17.021524449046698,-26.28594269269509,-30.155538658049338,-24.203538468349645,-29.38086260631355,-37.09947753665999,-32.600041770972545,-33.84016854224651,-43.1900558179964,-39.374990434687405,-32.15360164994109,-37.15268525991673,-36.20009971311396,-26.313027538872444,-28.88293320672324,-34.9142461769863,-29.535279067580316,-30.882145114691333,-40.77170259595688,-37.03463157819752,-29.562138140141656,-34.81878771359067,-35.109487822025756,-27.78331754733278,-34.15540721089918,-43.505286065653664,-38.94219505480615,-39.008886965058934,-47.7524112070515,-44.136879024287694,-37.24117204304027,-42.26355666415579,-40.68797513319906,-29.881696035409796,-32.40773501105024,-38.97952256687915,-32.919186874866895,-32.23587727458361,-40.76321098946742,-37.589903994992845,-31.81956231225479,-38.37631577553994,-38.488230078549265,-29.27939111499154,-33.20550405243663,-41.40773363015294,-37.13843883047568,-37.25969905214691,-44.66627735611992,-38.38081923240405,-28.518277609403448,-32.26826124521542,-32.210981880497435,-23.995544220520024,-27.89533485697193,-34.46847886222352,-27.60842166655436,-25.546945310854614,-32.389382904221826,-26.671854055651927,-17.282159257535685,-21.363929133613013,-22.097033954585438,-15.347086039095469,-21.18616768642332,-29.37584520384084,-22.960846424054424,-20.488969238020008,-27.233034546690526,-22.60834605941166,-15.693737516054668,-22.368052733070385,-23.325541290814105,-13.47822832968172,-14.37500379411472,-17.958253615101185,-9.08452577370663,-6.34002201787644,-13.226490847223445,-8.38487952464704,-1.4837896877020769,-8.64817836318729,-10.696828398682584,-2.034757147564407,-2.999279059231018,-6.024288242168592,2.5798542670048326,4.1784044900013315,-4.261899163364012,-0.8946595421675467,5.5751231795051,-0.892745387090792,-2.1568683941185913,6.817925061096737,5.5354769515080795,1.3760449240513482,8.309965607660587,8.197626560513257,-1.3175098092298416,2.6045869681879146,11.473098648377114,7.890177815133676,8.059172501304372,16.11162646174857,12.828038515538651,8.266817887286598,17.63940641650974,21.080372732965188,13.215243372561607,15.722659652055514,21.574958599375538,15.495883616295721,14.877189585789383,23.00334238687633,18.293223856653157,10.05928523030438,15.514132406600302,16.92960091636763,9.20601486229591,13.065815146752627,20.573222404516745,15.638064873185119,15.109105530105035,22.842650817086987,17.761078481187063,8.737967272336778,13.461546872852722,15.575452790770683,10.098912915164421,16.495135952587567,25.096493139046473,18.66796529324967,14.781532967418526,19.41253891489447,13.332736742323029,5.491599019663604,11.746771247180469,13.941392876074584,6.54052987049567,9.682872825550907,15.947686823084661,10.301481212180647,10.08260942704976,19.270606473253203,16.284737143176155,8.552040835686759,12.782180923384978,13.065128263458494,5.403276610037018,10.00528906314563,17.696278312049873,11.63739809501687,9.84999031633053,17.890761032997236,14.39794911510705,6.819752985915905,11.99709440872895,13.278114517038134,6.1402963631006875,10.940602395622212,18.463357369964918,12.15536218687268,10.376995209559245,18.383653035695666,14.926591387573032,7.488021638881755,12.154036179960638,12.311767719398832,4.024387720943345,7.830528116189565,14.900008765607076,8.663896845431653,6.9995775414861505,15.118640733910999,11.646024246275202,4.1481311027475005,9.085202000986474,9.201188356142534,-0.10046779791391458,2.5652340167594994,9.592008374342747,4.542336037285706,4.512002605415841,13.865672686957634,10.56740446232724,2.269953640812325,6.698753710817165,7.516361071427553,-0.18838951578880092,4.33457376272171,12.506952055282419,6.907010178163631,4.841541951897892,11.705899006386202,6.687512258896247,-1.6603103254534912,4.179775164271715,7.245453496720535,1.6131817031012812,6.55525701062728,13.563501870841787,6.342630796061342,2.6045376924645725,8.681857996631242,4.566360632078329,-2.303906284073749,4.814759492720109,10.17080987880931,10.226003829376562,26.686138599416534,51.180358165368524,65.11272378178465,83.76229071005326,110.55453337053709,122.07557362920906,123.61673096371396,129.6799464180606,122.31921957314317,100.2629333121786,90.59859772217614,87.47815811989217,72.23679944198969,60.197729091119065,55.7667651832805,39.75415784453547,23.461195695903612,23.885225430247754,20.565337346550407,5.943917696876246,1.4545604379831285,1.636508727030951,-8.684743747577725,-13.307649486933254,-9.352220211857512,-19.277306084674056,-34.78108329813708,-36.56938594783815,-39.534123384572936,-49.42906110742894,-47.091315601371356,-40.581945421568136,-46.837451296518196,-49.61948569757214,-44.23270845190503,-52.36667122183564,-65.84866934986141,-64.65613361531398,-63.86860471883597,-70.4975053321049,-66.12353352927349,-59.273638238307825,-65.91478379971683,-67.42018003011086,-58.2566818735414,-61.408923863832904,-70.82242812185244,-67.58588899926797,-65.39701862624402,-69.61829451662575,-61.81792633849284,-51.470511190024325,-56.28434749750746,-58.37401911833943,-50.44333317936864,-53.47138929245048,-60.97387463789622,-55.60393356310696,-53.6258583819689,-60.81241853771319,-56.9073708116381,-49.50250330882699,-54.975735657272814,-55.570083738217775,-45.45789598663758,-46.786841402229285,-53.427562258038044,-47.38867723442624,-43.74917304907687,-47.83378458914299,-39.60911912307032,-27.86813226373826,-31.1774030083565,-32.83572777821911,-25.9308629370369,-30.37001708133266,-38.59888003466532,-33.091767220931374,-29.952447821660343,-35.1103324362641,-28.517531792585068,-18.15243955749673,-22.368360219138527,-25.04187212159131,-18.438203977963443,-21.149829782858628,-25.92247368741478,-16.109359414307583,-9.666998440938993,-14.898997241798838,-10.748128793754915,-1.9349107756873503,-5.325380137082204,-5.3491531835235335,3.284965563023686,-0.4661336924634951,-8.853173079786348,-3.2771080074460146,0.5273403090430553,-3.814841328383473,3.299295768725117,13.74693570804869,9.93179229457613,8.75996394366391,15.940421103497464,10.766579049906,2.1566690873773524,8.164119701198024,11.10860157449134,4.57693129115626,9.391058060754112,17.935990586180964,13.013027511915018,12.320370031095065,22.331267678951956,21.259815815408174,14.844685028144859,19.89107449414748,19.859067913367802,8.946692194534036,9.645444632546214,16.789317085263647,11.786523902143632,9.09153541786485,15.459798889751628,11.520830250528608,4.651204205252849,11.9606996215513,15.223035877791904,6.611308034928314,8.316542568845625,15.874575397642742,12.010992434914042,11.838860666598478,20.333497148266957,16.847143385828595,10.144754010414523,18.667626540781512,24.387764147918347,18.79373093210635,22.397121285987225,30.263898147858697,26.3817094342115,26.939414621066256,37.340739598602525,35.634414143219516,27.992026043165055,32.50213136411355,33.05855224752883,23.10513413061604,24.453060391664614,31.923806977627503,28.21988625566142,28.581443755445232,37.768793659580005,33.74465342420446,23.35572196247615,25.814025327282557,26.090934634096797,17.40572578851502,20.085207040087468,27.43339111318481,21.213638568788554,17.488148795664248,23.296903342743658,18.048068416965258,8.63734411367864,13.148557870244465,14.938562419537549,6.600176208727191,8.815028144589274,15.969283352924272,10.976555127016033,9.897988116411447,19.325400762966243,18.106626669434817,12.3469497901013,20.49130252406471,26.788729433639542,23.71064620846579,31.658962161211697,44.485584246809665,43.44415886721053,43.306196799596435,50.793341775975335,45.79160960117571,36.14270275372756,41.51898997130585,45.787898786679634,40.46051985635419,44.896628128786375,52.14876041448683,44.706947040715185,39.78545961039528,45.02748945951188,39.91108647649402,31.40107552590237,37.85860358361821,41.862046456581695,34.47683807845481,36.61675348426236,43.50136801526337,37.9131059798921,36.44062337488953,45.8354019134175,43.218418285958734,33.656214773293364,36.661451799304515,37.57607085102105,29.003335460903457,31.471431669217175,39.020529782448314,32.88697927718794,28.451454738500292,33.72171348950969,28.791737039612286,19.960949669458564,25.68901467167221,29.743794971436742,23.212034429249186,25.67414560310332,31.844811902963222,24.713284837742588,20.542796016235123,26.766812982437873,22.54641322363519,13.463610104288083,17.653743317352426,19.555485176637287,11.479033030509887,13.350648870044498,19.033150494492993,10.50580040162383,3.6681313807589007,6.433268948043886,-1.003877306407921,-12.13691071198473,-8.305695185849752,-5.648544480145219,-13.108108335282651,-10.86197113126529,-4.493899325335662,-11.406411740474923,-14.730871318359725,-7.095036152672348,-10.515598497805986,-19.79734721498305,-16.46125300021683,-15.767407545646666,-24.485055925669048,-21.74557087012172,-13.960970049577465,-19.897291763286958,-23.835819598950216,-18.145074126566467,-23.489176601564967,-33.55862870400176,-29.26407503265957,-26.774701137284374,-35.13796572817763,-33.98749750939083,-27.924726368792474,-34.30957599807911,-36.88920077568097,-28.021560371450306,-29.925924828243517,-38.43422748092728,-34.56798472513443,-32.84152933959836,-40.80788895427093,-37.622430515635386,-29.1329571066336,-34.72867371538943,-38.7526315436108,-32.3686764734731,-35.59260531925711,-42.73198820504829,-36.02117031117335,-32.80297445585474,-42.03739961166218,-41.75352754842752,-35.08069354030032,-39.64508345677875,-40.71656118922519,-31.582079223418205,-33.59086165572048,-41.142294915062735,-35.12540323687277,-31.010287362311423,-37.785681057075195,-35.54946759407341,-28.790472906587908,-34.743604232464634,-37.59115420347729,-29.421315857685634,-31.326387235810532,-38.73103064179466,-33.379182301335064,-30.876473138316776,-39.36510107059476,-37.451470079291205,-29.687991797057528,-34.74340023473249,-37.2320645808737,-29.043588556565176,-31.44553910801918,-39.68161081391199,-34.868857722467226,-32.24461188132439,-39.72736815012441,-35.36614862226885,-23.937202989046277,-25.716827039267432,-26.511147482817925,-18.32811315383652,-21.84910477251251,-30.798280406542098,-24.786806699203318,-19.0349340360909,-23.591804266642498,-19.368748846299386,-11.75119247397858,-19.16012254123702,-24.413141978242066,-16.69479634599779,-17.217453156058298,-23.472963721330643,-17.71743547099801,-15.130911389279056,-23.85616442433041,-21.899218316314148,-13.006088883868136,-16.617179202567538,-17.802227382154523,-7.429363918661034,-7.202912710511859,-13.991822666672824,-8.810479158971743,-6.054007799233638,-14.410106248769,-13.043123367879927,-6.009277931595955,-11.838632107166383,-14.427520531794446,-4.1670798574457715,-2.9027608845804025,-8.04204972742156,-1.5157991049630262,1.7518451868993348,-6.33070153950603,-4.1984446408389395,4.02984121365405,-0.4832291992051867,-2.320078133993075,7.401063742481336,7.154790796165034,0.5449644428141442,6.508215279015924,9.726558249694044,0.8538874009363493,1.6072466398540541,8.993569987115272,4.343195366340438,2.404489465442583,11.298157384149945,9.151416722685383,-0.07123075134869694,3.495873108456976,6.001061912030846,-1.2962909216894087,1.981678800370274,11.497626996799541,7.83737012614122,4.85681698296223,11.411482590087266,8.300483181887671,1.0145726547979117,8.24099427390959,13.93042879870609,8.279867769607058,11.905312857685036,21.099034641930064,17.35360813990132,15.074732212383221,22.226566172555223,18.59980049444167,10.469796966242958,17.928809956934938,24.87695947638411,20.176782077061382,23.3342171668693,30.41241648217217,23.527662952284075,18.854888736172082,25.83001835778171,23.39950707186854,15.884490428894448,22.4438161326372,27.591878126598182,21.75383039549584,25.268166435423808,33.43998509605014,27.174875272591144,21.981358338270642,27.45300133725265,23.35172299924153,14.604827879147505,20.407458953119423,24.72102475321747,17.08205756111266,18.055310823331723,24.300140300168625,17.202589036822243,11.920816043893543,17.96853003817414,14.387676586271581,4.97694046289483,9.624307453807598,14.0483413428543,8.051989728586125,11.215665193868643,19.349722477187267,13.471630757239325,8.865399126166409,15.439293533689918,12.671630695474775,4.661409997157442,10.820428921680275,16.069231055370157,10.163480968429123,13.113993600066546,21.16741476960582,15.475328803975003,10.816628499473826,16.693018696845602,12.62476849925864,2.575448674940589,6.677078404807639,11.047615139688565,4.52029793576868,5.741065602707243,11.548774236988974,3.965182991753053,-1.4921865074779381,5.696609622274966,4.663065153498929,-2.3736304824271213,3.3187406221943614,7.461211368679996,-0.07731210710038905,1.1889123063758384,8.706205012879591,3.3656021712981508,-0.6077438033400949,6.767333593051992,4.605664941791252,-4.168680235186367,0.25665399432624625,3.9415014085125115,-3.449132033445041,-1.7252110589222172,5.936087031230142,0.07326306789883352,-4.794133549799881,1.519159141318887,-1.729229299109757,-10.939494356621502,-5.98609957852773,-0.9799660490387818,-5.347200575557454,1.912370772366494,17.371399616365498,22.6025389061125,33.93496247635998,61.811233512730766,83.87971443249741,99.27313867479306,122.0030254791641,134.2832563158652,126.04722612102077,120.18774366295801,117.30268808599482,100.77902374651732,85.24855781761923,80.5088681771602,66.76991974950828,48.14618806478324,44.65533317292325,41.99207310469886,28.514978492549496,22.548599973362464,20.88318293816031,5.7311605537175865,-7.263151555282822,-7.277671537025224,-15.124206416482489,-28.27727088258066,-27.014431546841884,-25.885500964578533,-35.86655261943826,-36.32156817031943,-30.2095858357071,-37.34718213563187,-43.21074656153064,-38.196471855530845,-44.352753835535005,-58.33291422220603,-59.027637900340615,-59.30835516737367,-68.32665433028336,-66.36693757591317,-58.489968937350824,-65.0021614813462,-71.47721969300048,-66.90388472711106,-70.20979004354128,-78.29325164343953,-73.66226620709887,-70.95822831792921,-79.08182979042537,-77.42707625766569,-68.5472869601412,-70.81841333953466,-71.40964042123106,-62.059634878979594,-62.35380009419724,-68.06867074359491,-60.61424498202277,-55.15617514577204,-61.84496371707138,-60.34715496961593,-53.35579649511317,-58.82682247168199,-61.80835373284239,-53.27300459438379,-55.24068585866605,-64.82223457006104,-61.0834354060528,-56.966305220337134,-62.470521445280106,-56.85931494001771,-43.24701728175732,-42.73293745973981,-42.701995145630136,-33.07053657657168,-33.85859270579667,-41.3329311831943,-34.756091712850974,-27.70123593347727,-31.09829880356876,-25.456277994840672,-14.170251355165167,-17.068613409530073,-20.11850539794243,-12.304315710078235,-13.247648856036909,-20.123496585526766,-13.675227050637016,-8.14043551020142,-14.172106611036861,-10.501769893433291,1.3997126039936099,0.7712418885320602,-0.6864880901256998,7.311067656799734,5.287747699677192,-3.450856890860916,1.9251091995763212,8.06286622532432,2.975347147712746,6.1926457938007395,15.487271592205236,10.573856475703362,5.405781348720988,12.64589290655622,12.859250246683372,7.380427444201392,14.400144183073458,18.47582777108843,8.31306357007734,7.077427389899617,15.56634822949939,13.415551229840968,12.14473349991803,21.336390851792945,20.139201332753437,12.02631834903129,18.697373203871162,25.942884347835296,20.992232921442394,23.92370295406581,33.23170815128691,29.404322789048983,26.325946657182442,34.38662849595886,31.830334247988148,21.212557946584788,24.652480545925073,29.85920219560923,25.601591545970326,30.835965330416492,40.64529241054619,33.12558816573996,23.09543502961458,24.659844272179065,20.564666188530047,14.048434499550243,22.58606424465307,29.394652085305133,22.066647930321338,21.6265577890595,28.38680499448816,23.804755279265486,19.917021846991602,25.534707427793947,19.778100210314747,6.092809364839196,6.721865523547652,9.873949666555756,3.7918152148081354,6.320572682399316,14.274454688300539,8.289008644920898,2.7022728912933394,9.883035479816101,9.992500750664263,3.6320338363468294,10.041413309577166,16.455777969845137,11.74525891951149,15.680454858851139,26.022504017664442,22.62862238942627,19.19106384657062,27.41403735729762,27.24820508020455,20.381960583358826,26.07864340378157,30.482719015167643,22.590354666127762,22.875570748465197,29.59023336721853,23.034466550896067,16.740187944549902,21.585382890947763,16.70016655749288,4.561080017953621,6.9723578212949,10.857861180960578,3.5436871091560818,4.439881661103214,11.60493124659177,5.391910754886085,0.09709253636692261,7.512109361371276,6.535617556757965,-2.405464725050753,0.8218030181880551,4.0933423379488465,-3.8573454770255498,-3.0905605168451227,5.403812989046287,2.1610322765389007,-0.2177841237149239,8.64100885922338,8.64554734039315,2.2415313431094908,9.429312207604905,16.655447492855807,12.108405243604967,15.187405580454632,25.008034034107656,23.571609119012578,24.22459068028917,36.634163711389164,38.52383884739453,30.428666512202625,33.793700027031136,37.28593234081907,29.427601527430703,30.27540854699517,38.828983450401836,34.92722285898938,31.441178459974253,39.701762065458546,38.62491878686899,29.33552650680832,33.26147641087041,38.40716793258602,32.436495315941514,34.34852313508741,42.492106201836236,36.942682007437675,31.323632265451515,37.798317212736876,35.600008765158584,25.57361887668727,28.98781903701262,33.89378671336569,27.808665990913752,29.566916680091612,37.3135747112555,30.547192800017122,22.640071980378078,26.95159935833214,24.428808157450902,15.754486763659713,20.110451559635194,23.988886003429094,15.246768305096584,14.299973398441672,21.092421890925802,15.764704217195263,10.309774443391841,16.20519203844776,13.94057733972527,5.38632100683574,11.252154168690662,17.890435797067372,11.586181352268104,12.07753629380415,19.315198864679505,13.154908896607166,6.170751269930344,10.815860959823107,7.406390715713767,-3.044312291166656,-0.03240983481271131,3.6715167970421665,-5.215946555348921,-7.436959919741734,-2.620363831914938,-9.928360834456427,-16.362152245130034,-9.040049075977649,-8.33035442744798,-15.86040835719686,-12.977295406227805,-11.467172822218968,-21.70888720251738,-22.11803331858318,-12.762217118530202,-15.400007721647476,-19.830071901535504,-14.431292012321105,-18.131521578369952,-29.40603590049554,-27.144553999809045,-23.27880894154655,-30.65765756649301,-30.26844279015284,-23.363585863654972,-30.46851153544799,-38.04339670930039,-32.53286296288288,-33.79581059747684,-41.98470205903073,-37.47862227485398,-32.56969898958395,-38.69341131759398,-35.685396813156714,-25.03078012598376,-28.808898627946768,-35.687983023005806,-32.25597153775915,-36.10937981059118,-45.34724013553231,-39.507985537682146,-31.773805215514095,-36.1336487383773,-33.954983355420886,-25.61322239084287,-30.858323016417433,-36.94567513810139,-30.95935844592922,-32.21979021348401,-40.70501578600783,-36.771536855305975,-32.44685230823085,-39.62050942828572,-38.268770255916664,-28.99172380787047,-33.247147768560325,-39.45758264530045,-34.13477037596143,-35.44592691315777,-42.52324792136012,-35.9500000996462,-29.510217528892387,-36.68102515579311,-36.739586599377795,-27.616472362413774,-28.88767453943459,-30.110860542272544,-20.8623470854642,-21.63157491631113,-31.587398904607646,-28.60408238480813,-23.042367349735727,-28.39101876939641,-27.689075703342,-21.89113000884205,-30.193783965409423,-38.87744999798883,-33.29889598871712,-32.54195047296593,-38.0733743738824,-30.78929207386763,-22.965892584369346,-27.690099433104763,-25.49810248384067,-16.445701766021813,-21.4157551135149,-27.77705730119525,-21.047687649250356,-20.4119058303417,-26.308546994317222,-18.80028484951264,-11.038636103047184,-16.9697369232904,-16.911767081333597,-10.024369304692726,-16.281529803921867,-23.06922005152122,-16.151677137424983,-14.618339547602016,-19.945656630260473,-13.197517654864814,-6.157912282851265,-11.36718915807315,-9.541646163474915,-0.06625111656272109,-3.417006042802195,-8.731697204635797,-2.254225753840341,-1.7302092945639576,-7.178669656311399,0.5445752992458432,7.698200231540062,0.4846320140191418,-0.17485132271319004,7.81790536188947,4.534071912423769,1.0742083191004692,8.794366473352056,7.09438585002813,-3.0746060407312887,0.45454629045232897,6.086800570043206,0.256945836157112,1.941673276858664,11.38456717830927,8.675794415449108,5.500400929969487,14.077328608763407,14.588049564569111,6.80420458001351,11.382404488714347,16.821344531871397,10.288025726465516,11.66868460275078,21.366913640675847,18.531281179932776,14.518140951273267,21.911387736228463,20.95810260246646,11.939741647144395,16.378151378451765,22.374067014763686,15.670848925464897,