4.986614645144289,27.166554235204437,64.82028144721485,94.69277258678845,105.38621839423828,100.78077258541255,79.88645407712144,58.46457716023974,60.74379660516314,70.59823994835776,62.404751077257764,51.4286701404466,49.27289485559798,40.165144663757935,30.314821740631125,33.58164986272091,31.31636263452008,17.84097685284616,16.58354248619775,21.709684026929565,13.119245622012484,6.3066988963799435,10.82095768583672,6.631278181914304,-2.847643381811702,-1.377558065137657,-3.775232375370583,-15.591680770218797,-15.272484415132759,-8.596193311519782,-14.381857827408725,-17.978345245660662,-12.597922847377655,-18.032175800038043,-26.953148896409566,-21.343904361490203,-18.07795735211168,-25.449262206402196,-23.455613968998044,-16.980547014662687,-22.299716404087096,-24.12447246171786,-17.655134434033307,-24.406002385125284,-36.581172557520944,-34.04230819035625,-31.78235198576963,-38.10208770732418,-35.095720927288774,-29.93526579421446,-38.411960585075846,-42.170397656458725,-33.95682135870249,-35.358255982981504,-41.100465589682585,-34.0303098420109,-29.97433254809508,-35.752081009253075,-31.428118082233215,-23.186043265874368,-27.76751756491911,-28.79241864158729,-20.019266755788117,-22.618956096252006,-30.048061847434717,-24.124721986832864,-21.095727215262148,-28.765007004521657,-27.202370784311647,-21.718848494314173,-27.96430246811194,-29.286190458396266,-20.646397991837098,-24.606854961927716,-34.99915984631869,-32.94310400828285,-32.870817484563595,-40.995171476816886,-38.02878602215837,-31.172058244115895,-36.95421287815347,-38.28284314151873,-28.630093655413482,-29.073654134961536,-33.83352319615373,-26.39633631484635,-23.677236463414786,-31.75454162146467,-28.500418042838547,-19.331552860390673,-21.65913893991333,-20.64348174183411,-12.110103099129407,-17.42052289870424,-28.534603734271546,-26.02866664965645,-24.799794286166655,-31.50999943743311,-26.674622940801434,-17.483566849540928,-21.536190535277946,-22.493998388313408,-13.120551574545402,-13.225716858174302,-16.68439492560079,-8.056769784910239,-5.3553519581221085,-14.677689525295136,-13.32931893306987,-5.642412197278615,-8.050986391901219,-5.9090967319045955,4.316656983322538,0.7085530695158617,-9.138607650775569,-5.977820785035211,-4.719510100245792,-11.227713510170478,-5.569926223676533,3.8522919350337026,-0.8967025237995596,-2.859524592944025,4.432924377693022,1.0993718848556646,-5.105128497364982,2.5860938959805946,7.171399469972545,2.1760640557948445,7.379504435537593,15.410722357997258,9.567001836389416,7.286438719755566,15.133328059257884,12.316201001853091,5.619577430563374,11.696282468868338,13.271153344992422,3.9331192526952767,4.585635407637182,9.635154520260729,3.737247028407323,3.9089783292433484,15.187349934375144,14.953063693252563,8.589241561526338,13.892776251907124,16.4320196391549,11.115648863832767,17.791096277249576,28.183181122679162,24.08116383572739,21.5319222095713,27.311908177540346,22.16248210409578,13.7203082687576,18.9248730823649,20.890328978665877,12.988521435367856,15.180281103422288,20.802080365727313,14.14486480268583,12.584659752101949,21.499067663148985,19.680283441432568,14.038730004408691,20.684657244962224,22.844810293970387,16.047682120268803,21.44304871725345,31.5202856599685,28.8706610523002,28.6339049029491,35.492861528511355,29.93465714786883,20.58389854530884,24.42712138004215,24.55724255882125,15.11149372267501,16.754235513447533,23.095256348033285,17.513545295154984,15.272873895918678,21.14406695898322,15.64795225725694,7.5037398326651505,13.891065379287749,17.668555602086823,12.200539028534656,17.024231733461306,24.83510801131699,19.65693963445434,18.184550854810446,25.419293961168687,21.281347187555994,13.680587060554489,18.90825956128612,20.197630087459533,12.209546003737952,14.740702575900231,20.068345037888008,12.554545077487091,9.878414645038502,17.32915080307699,13.96237190154087,6.967407863131976,12.538101360150948,14.008302014395145,6.859740019533271,11.649848647595983,19.914684549594984,14.835431898440177,13.6938344100141,21.66086619879918,17.465460090356412,8.531129275488361,12.196149183534203,12.65842781507941,5.591650875345435,11.159088756111856,19.613845411567908,13.265308253468906,9.88908852764011,15.4601559099055,9.59339526677824,0.24870381181755397,3.902278959220226,3.7812586974104554,-4.512061179236215,-0.3807432942823037,7.546456179885725,2.3567273787621095,1.5479349660146364,10.872157497115833,9.428169050606051,3.729729826726953,9.358106140312465,9.748060995541008,1.0200008504819271,4.727745702245931,13.231152386145205,9.543425875435883,9.686795128771239,17.718019861772614,13.410126925989738,5.88970048327119,11.910723094158042,14.274310557522126,7.545391113685351,10.887485044026132,16.013079347318733,8.497040916195454,7.100821368484374,15.947530076452242,12.810332888578303,5.192413877622101,9.479623958135301,8.976701391068996,-0.14125432282650063,2.6665444808223704,8.258822313458799,0.28134065270018294,-3.154253973276673,3.0842601749941574,-1.8435267533422266,-9.769198525992971,-4.36086516793078,-3.2902140255819123,-11.609402686480756,-8.529811543563763,-2.322325602513479,-9.353935538196135,-11.849239998985613,-4.840933757642637,-8.952331887903307,-15.781149798102625,-9.539068101180634,-8.247234396908713,-16.34307392289814,-12.514936199129927,-5.049749453843846,-10.838484554301738,-13.239829739363557,-7.891592696833779,-14.280476242812007,-22.12834227635032,-15.134031465756255,-12.23809951618052,-19.15268037252728,-15.81737431815073,-10.232760444354756,-17.200558249785185,-18.90732468582565,-11.663806904789048,-16.418907669770142,-24.02695814117405,-17.773753707252983,-15.207679407161164,-21.053030474755253,-15.056078616617175,-6.43441611495929,-11.844529036406776,-13.64079648157281,-6.802103645152732,-11.335743958826562,-18.274278090789497,-11.826517746714796,-10.410651337168835,-18.98791228936149,-16.684655603704236,-11.18597253309192,-17.5216370559443,-18.253232377661455,-10.056406911454934,-13.496102990859919,-19.38879962578457,-12.440216302011088,-10.688637611192075,-17.85847546326303,-13.67111425001304,-7.130142863845438,-12.892006599378227,-12.992166885487087,-4.707982242024087,-9.021328055956841,-16.508958539825407,-11.59204172697247,-11.949819887196837,-20.690311782042137,-16.946508338244538,-9.83062771940504,-14.696557918133513,-13.804500410029778,-4.332469332264011,-7.555707394791677,-14.08674739237702,-7.63247617404489,-5.555283012724681,-11.693460311440786,-6.0808423373882565,1.4931923366124804,-4.379544564896729,-4.986077455021665,3.344236786377313,-0.561393728624553,-7.712090668843837,-2.9814311928107142,-4.106922655173956,-13.333811136462872,-9.622986165700498,-3.104230695634419,-9.651810042646746,-11.196213350422092,-4.152785419587457,-8.426474417613877,-13.818788668964613,-5.583383612793789,-3.0566424361663564,-9.756706880019062,-4.6987908655467345,2.6386634225958785,-3.0683448159704803,-3.4996143648232296,4.875043264264946,1.979376138821672,-2.056938897621763,7.3092406709458775,10.023670607240001,1.6406301477111946,2.994042969986168,5.671010986522806,-3.8406671439361784,-6.006128690062777,2.0991601889084484,-1.2166122106259918,-7.073443784399522,-0.865960426246497,-0.2782509153663244,-7.125160220174888,-0.7801314127731742,8.25068253181973,3.9127405606472285,3.373989253046351,9.99027786836217,5.260511595473647,-0.00513785911321607,7.861534131880607,8.795644227780407,-0.7690020877933246,0.5213947819908551,5.0714310996378575,-0.1145401722811803,2.579606932795503,13.041085497054,8.947460538334049,1.1482238387020534,5.990737016935505,5.731824869150943,-2.2451947893343105,1.8506354953834347,7.177838967334278,-0.2754051184059376,-0.7886391122052827,7.9919344584465755,4.631668231450389,-1.1636080391588834,5.163420335398784,5.557674322097185,-1.5142674617088399,4.588481250892045,12.544520309814633,6.535794570768424,4.775773196504334,10.331940137821109,4.009070088132297,-3.2736876679677556,2.410641293002984,2.0390976384969575,-6.123588429840879,-0.692952998970644,8.393059248620188,5.799729992073653,8.663162598783897,18.54322870279493,15.299277739780328,10.216286647530218,18.269403661261446,20.466561455249526,14.14440059315574,19.427635329221705,25.51983868021601,17.902122047280287,15.821183563484473,22.777028830261884,19.056557749267714,14.297464279134331,21.540782373158613,21.486150718764875,12.180356132557101,14.569450969197979,18.72656498817228,10.430269205346576,8.018905588800012,13.77366165139193,8.035772750789604,1.4526712039625655,7.792638117463991,8.115610025395819,0.48668022971950986,5.309102036165232,11.835233640489873,5.397764864820085,4.0849932291414,9.656338061816113,2.5984906194818125,-5.346421415858441,0.362552645753762,0.624987275831913,-7.384742183156526,-3.965660749305904,0.9304742335406773,-5.801474611654498,-5.693889124810641,2.1786823587493584,-2.870848061450124,-9.815106279485226,-3.6319714914510284,-2.3083732204804823,-8.327946353233543,-3.0284429641070014,2.57105701326343,-4.238049280051952,-3.938629894598103,4.634478616192353,0.03454407504190904,-8.03096869075372,-5.323372283898859,-8.473298526939113,-17.209753792905328,-11.799100846966377,-5.203501073492128,-12.71132205988254,-14.926345510769721,-8.412109996188224,-12.085035103177747,-15.371600743282173,-6.108523250037782,-4.596106360031861,-12.0813165682561,-6.946757668367086,0.7328301517053712,-3.3629881533619863,-1.8429291028418258,5.714776331453245,-0.8511119718259978,-9.351980609281343,-4.353602195584391,-3.9149491922481805,-10.103028286769073,-4.523811276549304,0.43360618082451174,-8.53052362912755,-10.853132832224798,-3.9646582433892297,-8.159638783176586,-12.785500824567425,-4.592717660657019,-3.2465241941609424,-10.252880062720816,-5.1850330095740835,0.7395646289537783,-6.051127550142082,-6.04473396220958,2.2358869437626185,-1.840523655612746,-7.156616223545918,0.36298575452430004,1.4205002098751098,-6.237174919830615,-2.9995223683287158,0.5173901303198841,-8.092168154155214,-9.261276341477911,-1.9570383198262342,-6.571287543021368,-12.16090472783779,-5.699301520219066,-6.132405312373425,-13.879331879860903,-8.541601730111365,-1.275619020010303,-5.406213629171797,-2.739560836257036,6.516024327228937,2.1876379468474525,-3.441598801576454,3.2375311477289133,2.5787722177803674,-6.32876483869488,-2.717810927605014,2.4799490706199205,-3.9699741244582007,-3.1250006213426547,5.458221746136356,1.1456911235606682,-4.772357292454929,0.78619067270485,-1.5347960377399634,-11.697743139678611,-8.373870003808028,-2.9072935272633855,-8.961725279261556,-7.803537352196953,0.9358146763265109,-2.6267288328907683,-6.416038002749265,2.5102318750798727,4.165245550981795,-2.4517723512083793,2.980581637416431,8.922210813025886,2.0877553158152162,1.766839834723402,8.787691616351195,2.9704421927656632,-4.312772024315881,0.25153863355493344,-2.1327093670306976,-11.921286725904425,-8.62213690337756,-3.3275677812462896,-9.141730284323556,-6.823023158620309,4.242279039742597,3.180906348930633,0.8621368759354804,10.28866221331122,12.28656742705035,6.177456760798296,11.659012328561444,16.778572816890755,8.923438807400807,8.154163115280452,15.402713680457232,10.699067628138057,5.427408482964425,11.649930832634045,10.092667804894376,1.248376186167628,5.208069361081685,10.02024871736823,3.228310445269015,4.042246735228456,11.78479365116205,5.917120053435395,-1.3054675087003484,3.0830486042988303,0.2818470872754726,-8.508081036577074,-2.8812739487414634,4.3022420118041325,-0.61949759287022,1.180967208511033,9.870395538464571,6.125248439302477,2.0650179073754873,9.401532914626964,7.953571261234634,-2.0490709093402057,0.6552677016799153,5.713168551126769,0.5558760402766953,2.260474968407497,9.339638756610826,3.1957992646871762,-3.0674815394657284,1.095901636291484,-6.455554443917958,-23.66246293792328,-22.438125629492667,-8.365423503875038,3.119702682793192,20.23456475032781,30.359753563021474,11.203846051400523,-12.702073272558156,-15.103481222499626,-13.581021393991108,-15.703347631093088,-9.595511960891479,-9.147585992236223,-22.487253648591086,-25.45972556468131,-16.71823554191954,-16.887705709748438,-15.709283826977192,-3.555266945140426,-2.148150956587498,-11.888210039892055,-11.52744928126361,-10.436534947996089,-19.12502286741141,-18.65849579405146,-10.553533502923049,-14.807469440803995,-18.20604200768941,-8.64187872930757,-8.24083176976312,-18.14695041203529,-16.271677554502052,-11.130912606827499,-13.150133873922927,-5.28887067257864,7.4684954409244275,2.756956943398845,-7.047424396394598,-7.18629072350474,-12.756443494626632,-20.86316678598859,-12.717028778919602,-2.6279049550598264,-4.602824870171535,-1.0664899679830109,6.730339820993677,0.5581944141995043,-4.2519888907553,5.9864771252527085,10.428542739306524,7.217694570086169,14.103585603340722,18.035131558229708,9.23159401589129,10.168130576144147,20.42906402661646,18.532309313799537,15.147757047151266,21.461757914188425,19.179546940332862,11.189157881137351,17.612272132625915,24.58438224406859,19.083714815699466,20.27894185400783,27.396215196958465,21.690177089524383,17.065475199486585,25.126782687874343,25.097583999636473,17.975376700247562,24.230208597530734,31.30010642998606,27.031307825580818,30.5275287780198,40.10721518501182,35.397242712046776,29.302611474617024,34.67465399220305,32.242900893866114,22.650136528901015,25.74546781810046,28.89623469120618,20.053060822371116,19.10255140407943,25.36403567346768,19.248578210272452,13.83715963099958,20.7658259365469,19.836579303249987,12.374341714086727,18.231349724583104,23.775667266660435,17.24266280911183,18.75363987620651,26.413025892628877,20.378958123174744,14.549605728002737,20.302783825989724,17.370092427273246,8.266849941925363,13.19671554917217,17.867506603445324,3.661579790309226,-20.07359835467657,-41.15310244030383,-53.77292840334745,-53.21952526508932,-37.782773985326585,-18.678374585269157,-18.88998544709357,-33.635136984584456,-32.21921960247468,-18.39845059313363,-16.426668299859056,-17.143523364346482,-12.057507442452515,-17.87212329015579,-26.189616852163596,-16.689395241053013,-8.154395461312282,-14.609964804579016,-13.835232502059288,-5.966116269905129,-11.519700873344458,-17.41837249978744,-11.32924742378658,-12.414180887132439,-19.42629631017687,-14.143038771402782,-10.055418162793544,-16.803621005082643,-13.77769350049929,-3.900686045614635,-7.550808738000438,-11.312525352059385,-4.332452732478171,-6.5075649839304015,-14.406323372681225,-7.151773685193412,1.1537656132138319,-2.1726818025440506,1.3205838132189955,8.692080714006638,1.4973922101313888,-4.5528822308266825,1.9963855478320864,0.030867417469353953,-9.050605472879758,-5.502147021242786,-2.2513717115409406,-9.425694471914044,-6.722325864739149,2.618718150992589,-1.962517967829839,-6.355445752404366,0.7728973141005451,-1.1404269570521046,-9.487763901195075,-3.960808355161398,1.302086829790495,-5.093021692655199,-3.245950880862011,4.064888529992481,-2.443658162686344,-8.08325870639229,-1.7674080938427856,-4.184597052113177,-13.590867915901523,-10.208810038973033,-6.799479066700833,-13.630043409229456,-10.399962308495564,0.7079255273661942,-0.4873263354055579,-1.8052008813258575,6.116336738753167,3.54415691073112,-4.983390653924415,1.554491094314018,9.449638782886733,6.61969989842302,10.51324047846596,17.771321089943907,11.2520658864659,8.09268475750062,21.94835636667251,32.71818735739422,38.26367492743337,52.48247961205761,58.21371368549593,45.25627104002632,38.558798656080896,40.81041820709644,33.81098146082527,28.86524004203911,33.929563282958306,29.002214784504332,18.045779809076063,20.765082756838822,23.100900101103043,14.415948119684511,14.439720665477177,20.49555906380749,13.50982928968369,7.145405153664424,11.211723619156203,5.757820776756257,-4.984296186858035,-1.0841747314784067,2.052387016239025,-6.833899286356206,-7.185470600484443,-2.0272386477576294,-10.777148693475597,-18.311574751804283,-13.781364947757456,-17.264196951000216,-25.041509684110316,-18.253456340948055,-12.93849170704977,-20.17879825523153,-19.13205705218049,-11.887823004991565,-17.193757160006253,-21.194517411420076,-14.816545670827786,-18.89130375678181,-29.40385581769996,-25.796982818776655,-22.316772668459773,-30.053980706747467,-29.162462972731824,-22.20747343486894,-27.434123991391537,-30.117393971224935,-21.172985888775088,-22.56966456414483,-31.639638337686016,-27.967962085436426,-24.490093759933185,-30.79580047137557,-26.81999510795602,-16.784616914029993,-20.871504475807477,-24.58597095640999,-17.74429518800067,-20.780690699001806,-29.954275608911352,-25.474363885737503,-21.50123733907886,-28.29401333223956,-26.325855881345728,-19.170576537802887,-25.29972211761789,-29.489680552739724,-21.514987949580053,-22.104125850372196,-29.090561918578913,-24.13083693952656,-20.666582096524866,-26.661552322752648,-21.172399090459972,-9.054210547872618,-11.66709653886448,-15.676459271263687,-10.578785943200641,-14.898641026529072,-23.59921390201791,-17.384426014558713,-11.648231090724847,-16.911703620010492,-12.938771050082067,-3.4247578373956977,-8.43337528000204,-13.892748644095619,-8.834391945861668,-12.260193512774128,-20.348578147930326,-14.136135823012006,-8.63629407859897,-14.67151809207857,-12.325764734207665,-3.636967861902483,-5.689565272101595,-3.028995233787749,14.761364235309582,27.895456226594373,39.97431199260702,69.9246817280594,101.50141558652146,120.54373271685792,140.87320685547064,153.6206088819732,140.6565259511811,122.54350403198333,114.43335135851187,99.50028280254209,82.15049841837163,79.01147096993665,74.06700265021962,59.41543891584965,56.778728414781476,61.05624777122219,51.13049905057836,40.58256701604913,38.58770930461378,27.00338402468913,13.365328992027855,16.355709752871757,17.874472970844984,6.215424415723647,1.1175110272341688,1.0172784164504893,-9.09514895123162,-14.302014753665777,-8.289609161529194,-13.927838770223467,-28.091828415835003,-30.716547586456837,-34.56406791513328,-47.61670784300743,-49.443563147493954,-44.468534818410376,-51.18989367768786,-55.354781308294434,-49.62306236988146,-55.21240727481119,-67.64522965253106,-66.54866908543815,-64.55154844386901,-70.53347953078296,-65.84661182223704,-56.327214000185904,-61.82326910646793,-67.55076578805166,-63.12447222512888,-67.40335235666547,-76.22421666041134,-72.25090112291193,-71.15867370268364,-81.11537479314703,-79.78280613089942,-69.5854247825049,-69.67323228746508,-68.10087483224413,-58.38312402378767,-60.52546118572011,-67.80762149350157,-59.673871604565484,-51.42436791654228,-53.733200198992606,-47.30973428012459,-36.04224560196084,-37.53695595852113,-36.76318470739853,-26.23280830327034,-27.51032170132337,-35.65731797431381,-30.440120110014234,-25.63329618592082,-29.72457860215193,-23.05020515673875,-11.815650257863805,-15.67005293266386,-18.704523091874727,-11.275952660639138,-13.4967677471087,-20.453182008887534,-13.701340268126518,-8.049361331076096,-11.922414802169978,-6.139044140503124,4.021540118403565,-0.42960223161841826,-4.901972825579516,1.6469190031074774,1.357306655769683,-2.7366115958318797,5.246230102942418,9.473046351994238,1.5116931819953772,3.0942027220587947,11.799107241410503,8.95780685181284,6.796842571981555,11.984232996228332,5.326039616072953,-6.10989609497209,-2.9410948506388226,-0.914785161108511,-9.670199870576914,-9.940055875573396,-5.929642670501103,-13.687120728873698,-16.972305289424227,-8.33356940989636,-8.787847664622548,-13.836591151430326,-5.826927300294438,-0.3301422880728767,-5.799202070725726,-1.9394407584806368,6.978362795659514,3.391641212001454,2.6276631872308305,12.508642614223016,12.129508615848145,6.4519572835333285,13.959137004754641,18.99870818698556,12.811662381263877,15.925977603536554,24.43065318854735,21.072979630499816,21.39000676491432,33.12330343014796,34.96312565796474,31.095419324124858,39.67407818030094,45.93335402841667,42.04112789260782,48.05864609873327,58.31827106213474,53.7506982336258,49.51089272377743,55.07725140597071,51.605128722677165,44.25262820450303,50.40642306926059,53.946610099624294,46.3766037114322,48.63093830343894,56.32076261637235,50.44594717251338,45.18550776935174,49.14900837576306,43.711890656769995,34.7151307653445,39.43223673783592,41.6534098962106,33.24806681351326,35.03738253293507,42.96531955200335,39.18903918645239,37.7890620914344,45.51028438181005,42.03335219266951,33.024455968497485,36.69343292591662,38.1622642521923,30.555527796590894,34.57322167912592,44.428926127091664,41.23621461717608,39.62512132394616,47.4456237281667,45.54891364866309,39.862469414013205,47.656936522565665,52.86995685947497,47.49781465507021,51.80545403988103,60.699436367250826,56.27683563922193,53.66399256565826,60.29126738202142,56.18856945687658,47.33432925713059,51.61462322570974,53.32008250628039,44.92369485751805,46.836940767012756,53.36018225776296,46.80795597583329,43.86766328417191,52.66803152509928,51.96782385184158,46.21375288675812,52.13736347413776,52.994983167736166,41.81861327456143,40.964302897448306,46.03412516634067,39.338697484274185,36.384843831734244,44.14833836179436,41.260636851120644,32.30444897256253,34.70072502461073,33.14934855925685,20.878224741822166,19.493556853236413,24.785136643125615,19.04452114886535,16.558247766859175,23.354320468436807,18.576924857856937,8.551154981288937,12.399518995844492,14.869868951346811,7.410357307882142,9.345743585767144,15.127039262539267,7.874800187615477,4.117098083947445,10.955434917829303,7.037338979487574,-1.9212933095303337,2.6400964608688935,4.971486221288706,-3.111120633747988,-1.6123181653732508,3.5149874429029846,-5.236010863699734,-10.512086515703485,-4.399756682499529,-8.8351191442222,-18.346842010928114,-14.502279634442697,-13.76792347385386,-23.584566389904502,-22.478116257489106,-16.355844219564396,-23.592255714834792,-27.922720620172477,-21.549948380778005,-24.927684348570555,-31.838186076165428,-24.467026812227687,-19.69987057204093,-25.948103890500242,-23.124560243759802,-16.517367053833297,-22.954296927469727,-26.367612796112713,-19.756017890110737,-23.958136332167054,-33.44647224546311,-29.954733852948905,-28.015464595499473,-34.122661776161515,-28.462113397786645,-18.456019647520847,-23.07845223133717,-26.719074119769786,-21.21335398235242,-25.43423486455742,-33.20290810904273,-28.26777299158003,-27.2520469866241,-36.58678962832141,-34.94909242778991,-28.165811251343932,-34.350627945482934,-38.06109752640822,-32.63608450317073,-38.38269739524451,-48.380886630786364,-44.78727779054754,-43.81988869586488,-52.417512701505494,-50.17327616675414,-43.354064489808785,-49.64120040585495,-53.17597588732271,-46.51691926171992,-49.56582498342278,-56.68518211760692,-50.85143029168311,-47.78779114987518,-54.442203898348325,-50.770096625143324,-42.69399240511075,-47.34986019939738,-49.24396825054707,-42.137950681214306,-46.304893886277675,-54.86782413481305,-49.524869520049094,-45.70410188263634,-50.90563907308144,-46.54382646916831,-39.87641672696451,-47.47926691388366,-51.44030449581599,-43.41706859550003,-43.884694613724406,-48.28372112538856,-41.00508033768339,-38.631605178820756,-46.73571539602033,-42.95546655995486,-32.80419919547158,-34.60015702430459,-33.99322340978665,-25.584428031671827,-29.68342023337101,-38.54672579120268,-33.750601943523314,-31.9199795592186,-40.551107565574675,-38.691691906104296,-31.468227782580332,-35.76025291095868,-36.395848684676835,-28.23443758625784,-32.105614073716396,-40.158708787436154,-33.10433002644504,-27.02802923562708,-30.586628336413632,-24.87648049636142,-15.861379197516001,-19.62480343434234,-19.660893702451745,-10.519214260448786,-14.044047203016806,-23.490786724909807,-19.59313543574978,-16.959940462030985,-22.558739425824683,-17.48379537729904,-9.169190867759152,-14.50424091417301,-16.10472557495988,-7.260364907391674,-9.44164258209969,-16.776000412523608,-11.918786740802872,-10.152006080980074,-16.31939753020151,-9.673359141136569,1.6331177055710038,-0.9915070705496447,-1.756948414712856,5.7205231759757735,2.0118060279400543,-4.717049910288578,2.8303014448151647,7.090209565470257,0.9640072648242315,5.140364864341618,12.858238732935943,6.922881020983129,4.655963458219959,12.573803747557097,9.302261019287787,2.2699575295893104,9.84036002776726,14.751956805542665,9.583974398688955,14.836351641519975,23.415007835489675,17.83164282727284,15.278245227885886,22.957564781596833,20.475855675680016,14.502877514110352,22.045696046912802,25.733605208014357,17.865025472757452,19.118831623729644,24.788310706185236,19.194050733735487,18.645958222172162,28.54219890062315,26.676973994747,18.436724238947242,21.98323001887073,22.93227836660813,15.275549943434473,18.967343696184628,27.20166361422104,22.282576379327715,20.215149843666335,28.233012252575037,26.37845291362205,20.38084716614645,25.99459069146431,26.398784251179123,16.394074932755533,18.30949349841139,26.572333571986277,23.76321247335428,24.26759843300031,31.753086745488446,25.77790935639726,16.578686145268495,23.827969502641206,30.948597304016616,31.049933009044942,43.396579926195116,60.39910543829889,67.29421900614645,82.66003515757424,110.85739404292609,127.44920026844443,135.12173601855469,148.04103271911464,150.18511651592098,137.57614530041644,132.01393431026423,128.31114815521573,111.96236298456927,100.95852192435069,102.16903466356419,94.32642571722401,81.20740343790489,78.32445505510952,71.16255674300264,56.09084932138522,54.559146886981495,58.37892894984945,48.041427601631824,38.99116098631545,38.71328349859259,29.125384270880495,17.80215428510547,20.211120430607416,18.840501379837406,7.5736695657003965,6.777750870941354,9.807856328639032,-0.47090225157462484,-8.640884732677675,-8.342478374047165,-18.299772755364952,-30.991211418515313,-30.248002446822593,-33.0459739261839,-45.244481036595595,-46.15848882460132,-42.57826818640852,-51.54533197962979,-57.189299754288214,-53.51631211156667,-59.83533153414489,-68.61428366546403,-63.582140903382864,-61.935509351806154,-70.08564480743637,-67.85579969534444,-62.37573363158252,-70.65411572194186,-76.04498753701223,-71.98730600823495,-77.62110468783987,-85.33321066918566,-79.85810440913053,-79.00031488356097,-88.04444098676397,-85.62113800857578,-77.38132911228749,-79.39951714103773,-77.13394933261812,-67.07785812767327,-69.67881193545718,-76.31464017312754,-68.68599676635758,-62.89563651100181,-65.98408626515494,-59.66331276102732,-51.70485510753891,-57.9421404165375,-60.88071212759925,-53.750000540422036,-56.568074097931344,-63.123632710086596,-57.19328918917102,-54.7155920680881,-61.21158262249824,-56.16969296524721,-45.88644956368361,-47.400355014493016,-45.55095012479343,-34.760006694203184,-35.00755778148201,-39.203485333834394,-30.515591726312564,-25.25495884560128,-29.484435862810912,-23.700096748403116,-15.33949969132674,-20.68767409224218,-22.91167807833245,-15.649410073429259,-18.66961671892214,-25.209571063132728,-18.659163090463906,-14.89271094700047,-19.609547000264143,-13.172204435877752,-3.637301806826014,-8.44132477892622,-10.239241132059021,-1.3592985191174272,-2.104573944880779,-6.6981635549672305,1.503155328844664,6.510629574338015,2.547096054446473,9.743601955150886,20.072890822207437,15.745554665990529,14.176289324063836,23.13207931351445,22.106906530129674,15.95513653731144,20.3290470753206,20.205081559096683,11.731099404658837,15.903814129345179,24.945979297457484,20.324457315134758,17.21819005683183,22.242714909304127,16.629800475103487,7.988489863222014,13.012704811522575,15.143610864210945,8.385050610664457,12.78898299280989,20.917525139348516,15.989501653935108,14.47182486826763,21.448514946568512,16.20782952329024,6.541937662109348,9.660844358025448,9.573394521017068,1.7000317030815992,6.016792034251092,13.423388176710528,7.05044311161079,4.958580838165597,13.751825918110235,13.475213905451438,10.943436447936207,20.465918210652955,23.254471902331506,14.907837269039204,18.85835331751868,29.03919689881537,27.961346318521883,30.220470275192973,39.39030125932357,35.37108266430125,27.615467456210155,34.32200951679469,38.56990754943872,32.74371466817097,35.66761205242119,40.99397335158301,33.6162791971749,30.246105114246575,36.15735055033676,31.071591474321387,23.062214348384448,29.732193641850866,34.2218527341994,29.750233978421104,35.17172222940601,42.17227102661039,35.16519078278481,32.53058427687924,39.88633034011931,36.452846560916186,30.119618058082857,37.39753245942853,40.28446559814856,32.650072120894386,35.76615479106335,43.38330025487574,39.12510247815441,38.7677758262638,46.617151254917026,41.6010060013509,31.70537597165775,35.74814571885563,38.8278579954509,35.11832857101694,43.47214919102066,54.82779516870271,51.26214487248372,49.12481886589115,55.33397769840263,51.71071029307968,46.44414383374909,55.01680341876488,59.111771635854325,52.78927259910759,57.21413941671913,65.45301649080979,60.515346949563664,58.34914539597105,63.87249210297299,57.27653597287717,47.76405003187223,52.57778280447751,53.77266043916423,45.23012475752994,48.07139883610442,55.364307042476995,50.31719222397349,49.274783492912846,57.11729947272374,52.564348298119455,43.09924699874486,46.88111075094508,48.22792688481891,40.82692266436932,43.89489711763836,49.316617335321396,39.89187494708301,32.73281958905578,35.02196021411886,27.5842281819012,17.38113836883438,19.709885956435386,17.589945716801115,6.267831587420774,6.381504492486218,10.842967945191823,4.131145475235808,2.8705068269384606,10.86818100360951,6.574015043527217,-2.773345026814473,-0.3060218749380841,-1.5856251028959862,-10.91237582115109,-8.116351901608073,-2.0839018150660267,-10.333674263279137,-15.172984015031302,-9.727872816352377,-14.263634346510846,-22.069043263042158,-17.497094092385645,-17.635364245551003,-27.62345080853653,-26.477561792935596,-21.01146255508458,-28.066013142922333,-31.529908177215262,-25.777712411019866,-31.053798572979975,-39.862126380629896,-35.39417307159191,-34.49623018730729,-42.981840549687014,-40.791495939812116,-35.298043242876204,-42.48238531074325,-45.51984461160488,-39.26028201890254,-43.74957641583846,-51.19001613806107,-45.36664309619177,-42.94652918065432,-49.11823941548205,-44.12607763594288,-35.992118256357756,-41.70295434198368,-45.477871196841555,-41.894387572430865,-49.58134378305656,-59.026523756095834,-53.3422677596857,-50.83195878728943,-58.24169771478323,-54.86828794185528,-47.324667738128106,-52.069246632794645,-53.196756791519185,-46.429574364781644,-51.88906608173858,-59.819233305712224,-52.39217370359494,-47.692622455306044,-52.85149111697531,-48.31181287688035,-41.39067743340264,-47.25856548046214,-48.66503060918107,-41.79483733744807,-47.70422793579781,-57.295367975722215,-52.93437328090883,-51.240050728912806,-57.1482141489541,-50.72683636056827,-40.70808150171843,-43.57489341181495,-42.32983661580702,-32.71778692187581,-35.63595453409401,-42.24432123253896,-35.39188328703085,-32.646050564905096,-39.605253651071564,-35.87653081115448,-28.966202991750173,-34.1724496598069,-34.20941064591308,-25.441006534155022,-29.814886382628643,-39.3938288841607,-35.952787181659275,-34.614591891522025,-40.43269730270291,-34.0003669579576,-23.99836525378737,-27.465611854755906,-27.625350925611166,-19.092909651179525,-22.15285636914806,-28.815568802692066,-22.094033853752954,-18.672312934515666,-24.32955334758546,-19.517095688930358,-12.055814632975544,-17.328618038796968,-17.570518516081407,-8.188695440138392,-10.611099087588707,-17.197377853927463,-11.359002720032937,-9.996747927428283,-17.586639697834862,-13.111056572831092,-4.860933743385984,-9.362464407836036,-8.940653719414088,1.1060549335398404,-0.9435128876663836,-7.23711983658774,-0.5316920656323472,2.1903409421955033,-4.394978829913693,0.09506596947120594,7.081678605135059,0.2524190636494965,-1.5167381470646653,7.709875429222545,6.326203200419847,0.9972106886416663,7.4011274733467545,8.732577859165662,1.3606310314632188,6.424847586396649,15.041278929748696,10.006504563171925,8.28393532254177,14.919597588632055,10.188189884629377,3.0934795690280934,9.844915059033266,12.525796470611402,5.597503947064948,8.964927225531769,14.47862891095738,7.009682399469461,5.371916790113127,14.927573598936366,14.166304059528688,10.035797249748839,18.77937833889981,23.536546670261938,18.834597396925346,24.220483763458812,31.157093493219868,23.508840780845823,19.925450101935613,27.552573248526954,26.18571533449943,21.772127626289407,28.794585608145557,30.26318392731647,22.59593040060856,27.04650605593781,35.29000169023781,30.461300690527676,29.326892015689797,37.01330191562613,33.69668562630613,27.127997105775805,32.11141868432805,31.149662240846396,21.22526470298348,24.07948349184537,30.735146974656992,23.893594761889762,20.327404453074866,25.427136650549258,20.46761360952379,14.14057762086,20.892054199752522,21.72757983619377,12.314366598880937,14.880344193184012,21.85738293288781,16.522739140310286,15.607610796340065,23.442712581220064,19.341498224236037,11.706076024626054,16.612323235531683,16.450866108902723,7.194221401030298,10.55289653954113,18.04429284792193,11.986937016955366,8.834970114826833,13.902116904968333,7.837600011202932,-0.5342389163588743,4.510130958151333,4.80087558265982,-4.524649912471075,-2.000302779511912,5.3916888930283315,1.712653533864429,2.9675617348150314,12.12576897872047,7.87716846830422,-0.7377587084309951,3.8603229314298857,4.918984259045618,-2.2035155497843064,2.7696972231928036,10.896155767662274,5.99506781666251,5.463200973960145,12.89563821270632,6.988901354142104,-3.0718485993270863,0.3485828842427088,1.0952815099028317,-4.7674348036072125,2.7205469671736355,13.34966607238308,9.344481159971917,7.859720024398675,14.455931849423802,10.266389590274294,6.163035246708057,20.7068530146782,36.620704693313655,47.432410306432054,72.20126696210762,99.88582148139488,109.19778918563631,114.17338620751799,120.2621438158555,109.5164292241744,93.7705930912594,92.85085356220678,89.67925329856946,76.75981691121926,73.503052583125,72.79583201290997,59.1864762349432,50.23267840388635,51.301464948946936,42.48606961464452,31.735852000286716,33.88895805631055,30.51628143447079,16.742068129803258,13.2734391863813,12.337942907916588,-1.2227638681360844,-9.694747211150162,-8.958384364086522,-19.27636143211234,-31.63545090296597,-30.835667192057286,-35.40528285252139,-49.307268636298176,-50.86611372004652,-48.19161654459387,-57.571193613870115,-61.691587325649905,-56.53264468260112,-63.38344874535572,-73.15575958420578,-68.64577679427772,-67.58842056264605,-75.43447749204225,-72.30067325725571,-67.02070991913939,-75.21364774050953,-78.12669447993352,-70.40078127180739,-73.10465507961332,-79.21343835844527,-73.79524184549558,-74.14726748514332,-83.88454716044606,-81.86335093040609,-76.09920766119181,-82.28348929262798,-83.37094855518,-75.46997145073375,-78.59371621499588,-83.17478274478195,-72.93762341142981,-66.6602835496562,-70.55640527209292,-63.99101092512194,-54.15399501698127,-56.45959506306495,-53.359650996199186,-41.14171509593356,-41.97370318682623,-47.3619546745416,-39.368346057916554,-35.6519975857324,-43.17516920706501,-41.53822959810209,-36.80467568461887,-43.19187327228747,-42.93471011088041,-32.53349593288949,-33.535139195554876,-37.72387956060275,-29.067490993681602,-24.727105894636757,-29.50024870347695,-23.720918040286087,-15.172298929332456,-18.444837461597242,-16.115274703574297,-4.874725517885404,-6.232400490839435,-11.470916359646198,-3.81180843465594,-1.309493904836238,-9.478053283967883,-7.346885911575496,-2.2402155766415768,-9.184165480476814,-9.314328403548743,2.405755424648576,3.415053628224518,-0.31088804377501233,6.900740266815562,8.552615655829912,1.1936055363939948,6.3902428554686015,16.2701929736006,14.191229157425454,16.248085519900837,26.179216852764668,23.590192370545534,17.53509275560698,24.922204754262744,28.984467246680566,24.610975125156838,30.5985503295699,37.72024928776064,31.085902183818618,29.954673468620417,39.16025813750569,36.31529836183159,28.119759729500057,31.18497304245875,30.066187207672794,21.79832015956554,26.98846982596572,35.66440362228559,30.255612712493047,28.064792085897707,34.20469097450653,28.910893509311187,21.37535921738202,27.630389949407046,29.460499707400917,21.248921243222703,22.500189564682245,25.23130712566897,15.510873013500943,12.694300574001751,21.278904105314375,18.826717655512514,12.10714213769725,17.14862511195366,17.890229488572277,11.079804027366833,16.89980363342461,25.53613688037458,19.65342805621019,16.613451098317608,22.545837550237685,18.712450714953828,13.834047784909966,22.37357367513747,25.13375137430799,17.50893105726791,21.245197910508463,29.006641497780944,24.608667502550098,24.515311033406068,32.45590988916644,27.827763318275526,20.48636450123396,27.899740871778558,31.856013753893862,26.3905301564892,31.32004738782931,37.601902454959095,29.669165201797234,26.697435891259904,33.68371770355604,29.22311213736142,21.148657447450802,24.72722866354689,22.343613223761977,11.403222391833296,14.060556504029377,20.80972513809026,13.979500755835401,10.871064827803512,16.504560938920946,11.506473921370883,6.120986614911985,16.348175116711854,22.4073455671314,17.894740692859795,23.24142753143955,31.2472492392665,27.380107871219607,29.397977030543956,40.60938112484237,38.82750995077173,31.630418987283438,35.801729475147994,35.495153721494326,27.011738695805313,30.90716082494306,38.2634210507355,32.06535614230267,29.57933760232336,36.04476128366406,31.561479862638397,25.32083743664787,33.84633178021764,39.01911340829496,34.75090968672708,40.408702902406205,47.828821601526414,41.942108886549505,41.06332351087213,49.81194514436821,46.17513987309327,36.85142929521051,37.7055076449475,33.22135250700246,21.84568757620306,25.047730683823175,32.42609949955447,25.577007408673097,21.155568748628685,24.90573606538596,18.774662260188105,12.82757023318603,21.782645649546854,24.98816587845622,16.171151872553835,16.302426680738563,18.582878890473253,9.082085290950594,6.2534372033296055,13.674603019598058,9.148807986565128,0.35442066091131963,3.984406488514555,3.5984581605800896,-5.02309423453825,-1.3880668040372717,5.960726797056703,0.6685610681529446,-0.0983999042769983,7.626672349335721,2.4928969630859705,-7.31831166258804,-5.350481561802667,-8.25072274451599,-19.570257391606205,-18.195150238096435,-12.388003141771783,-17.910671331337284,-17.56519227753341,-8.370249751662127,-12.234515541554892,-20.52556851679897,-16.37852127152847,-16.68398860635859,-25.4502431043215,-21.73050515541378,-13.979347474230513,-18.427016642653765,-17.658652211225967,-8.026029925661952,-11.64906553374915,-20.370098567839776,-17.37169684212712,-19.48425739563207,-30.698431184854222,-30.200887039107215,-26.144154759503607,-34.05347124107023,-36.15295849741146,-28.373278166719945,-32.55496604470468,-40.98726238930345,-37.12278315330089,-37.347716039796374,-44.959516978895344,-39.217503351441536,-29.789094895584164,-33.74333475897128,-33.91264452799069,-25.9225474293238,-29.972403214684107,-37.04639083556785,-30.788791650425274,-28.161475501423695,-33.75824162077198,-27.943325015157484,-19.525210547428227,-24.831238155203884,-26.769951568449542,-19.992458384324387,-24.166962904737886,-30.993164455472765,-24.64146462894301,-22.852032637614126,-30.241164625647862,-25.72385370191328,-17.450938186212916,-21.69666135189356,-21.647482227940998,-13.810974306344715,-18.636993745750434,-26.18132774214864,-19.842029156442244,-17.797806284598394,-24.846070476650475,-20.572165229374317,-13.75979981161371,-20.28954274955687,-22.676702248728134,-16.642005895664738,-22.23098035533491,-30.48249971563541,-25.770801795301946,-26.033894071013535,-35.584565106474884,-33.3609260437089,-27.15771415414627,-32.59555207216744,-32.59139098930807,-23.24203884167123,-25.466426635826043,-31.550447323127813,-26.278191739622386,-26.9206408996442,-36.614172992427136,-33.16239576769556,-24.346164502120242,-27.110790940421982,-25.86292882889909,-17.5591564227994,-22.58513096290269,-31.090579695114386,-25.709423083012837,-23.318242142122177,-29.261382583132846,-25.17352265753052,-20.60301909786685,-29.749334136152886,-32.18893919863268,-22.18236084365641,-21.531835899862756,-24.6796122625711,-17.76124975881539,-17.171594069318548,-24.442787671879604,-17.813981539313716,-6.795588309340941,-9.206503487634961,-8.971314066685293,-1.6036108471895774,-6.753780133133232,-15.462979131008547,-11.422644596310093,-11.587319666165383,-20.16231985212195,-16.5102847296261,-9.255726084263246,-14.963771081947893,-16.292750981057548,-8.762707133808991,-13.062935571094632,-20.11428399324349,-12.829669486881166,-8.360749019574554,-11.924373091287048,-4.286502963850978,4.619164398189385,-1.857996836402291,-5.125966115509427,1.0250424439991548,-3.023531329919787,-8.752740626960778,-0.7837523836617653,2.7201298202278346,-2.821380642824916,3.1629440316077875,11.812353553019113,6.531129832156949,4.808112794307811,11.734139643150034,7.252911555587128,0.05222043616781624,5.8538000577202896,6.69902379698928,-1.3173467610398388,3.8330052930194682,14.037660575616778,11.54054515919994,12.103780618968646,20.038373361818856,15.483607229599992,8.359872376815709,15.842210632812508,19.492282418634186,12.797203907256355,15.278177692600671,19.25202887114513,10.678930203207047,8.468783589957507,17.318189986657142,15.956037685170305,11.311606756655234,18.053994862859756,19.07595782638424,11.253450017628307,15.217309433409016,22.267686602157873,17.011636922722843,16.530913248919767,24.42478075524229,20.391921333308197,12.98239614109489,17.96901595220101,18.571459738609484,11.052991037182343,15.886015269992678,24.29117299661258,19.531014131985483,18.29534739606017,25.110206880771454,19.79480767187195,11.240553479591256,16.29608449914188,17.764006421369174,10.496781724050535,14.921592693947513,22.797067258489232,17.55524917339629,16.59009853408561,24.951728998852055,21.844856865567568,15.147556475959997,20.8228720278879,21.735654850799015,13.858064972469924,17.908124193879523,25.36693334877819,19.95625588723053,18.54097248910219,25.49183670256257,20.762683865872244,12.60731757061902,16.574426601580328,15.71776747104866,6.167603316374553,8.749175301370821,15.47577164319287,10.149289264692683,9.690145109240447,18.645939570394052,16.589820230668227,12.372137976509418,22.89913511955772,31.07471291170637,32.2321017035729,46.86788800061943,67.02066532630892,77.540525842381,95.70679894627986,123.90862789562121,138.1076150944955,142.56628641858126,150.6303123826792,145.82643060989042,127.1726311702695,118.79368685177639,113.49553238916886,85.71569612148544,36.82483625354278,-15.235392049170363,-54.945359953531636,-70.8455156711961,-57.56477928439705,-29.932257005073993,-22.550947278809794,-40.88618439036455,-50.51454206467547,-43.844291938381126,-44.98261845188294,-49.78516209506782,-45.81285174875187,-49.15060808446785,-58.96861669375955,-53.8450968290403,-47.56683269882078,-58.80375299270041,-65.51218973728372,-59.026094796014235,-62.14486678014291,-69.56517657985009,-64.02440066956383,-61.07710643058935,-66.7642630880603,-62.939288292044246,-57.460375610015326,-64.14089548288716,-64.21631427896574,-53.23866479912163,-53.52370401074874,-58.326822869807245,-51.24863790363122,-48.87187602376726,-54.98979405782468,-48.20080821992466,-37.388609887420664,-39.97694604057754,-38.953981966110106,-29.77545487721124,-32.858445525296545,-38.32944335704263,-29.13112903275354,-24.444175731819488,-30.786994892766884,-27.22108202074939,-21.034331086551163,-28.011327375888325,-30.280980769579262,-22.921472574696363,-26.786846266597056,-32.736441114567846,-23.163253970988844,-16.164811972422896,-18.942647170513524,-12.542221286463851,-5.2716772915634955,-12.220648091833194,-9.447504577328836,26.125661053262572,82.52342888400264,135.79672288355496,166.38654322633903,160.6221176627624,120.01460395727905,76.49737576892129,68.6197015197132,84.23048483542244,82.88042936690469,67.46346539962018,58.68718208376511,48.065173589324715,36.90203497375039,41.39849072718745,44.72239001187221,30.67447829396192,23.748575927949602,31.3511029681022,27.859025285007768,16.967264115781905,16.962861790733516,14.329139686426242,4.083756325824334,5.054728005022573,8.857814694382492,-0.4440382797274669,-4.897558875465698,1.232989516554038,-3.1354076578222707,-11.216506477647181,-7.0457575254148495,-7.612184279565449,-17.256870532640438,-14.451464100001635,-7.816387181567209,-15.316121492268826,-19.07955515170633,-12.183147119661442,-15.181317309653208,-21.584746097969013,-16.620036265891404,-18.326800467136287,-30.426761062940454,-29.670592519621408,-23.16613851110871,-28.51091623172687,-29.370694034755903,-21.155215344293204,-24.95830207011656,-32.566534795653176,-26.994349978549266,-25.133647022217357,-31.848756063866496,-26.577119862167002,-17.527748314592802,-21.32470826061572,-20.75654329884945,-10.645350054716015,-11.775501662774804,-16.89181060759198,-10.276677644060964,-8.84973676406793,-16.21933712192672,-10.357125952621013,0.9246454318253421,0.10517287870600045,2.5476957613354414,11.683644711206167,7.593306242176041,0.9459916491303431,9.454744397288575,14.833846240773788,10.174484405517187,14.606478095836472,20.274985772986923,12.695068642990151,11.208122553218807,21.397679508799918,21.43605583433958,17.375431324077013,24.019900426716504,23.807683317906815,12.704291948855047,13.461188550403582,17.224801239410176,-1.3360797545192469,-31.19086317310594,-59.225477163555226,-92.17180280928464,-110.52201599868786,-93.78163502925413,-70.79280776810687,-64.24481562365185,-57.61867432880797,-50.40772649721369,-52.520187590791615,-46.96725053604571,-32.2008099731365,-31.905370424605515,-37.237269216267485,-28.330061773775626,-21.529741144508307,-24.38556922093579,-18.470252249434285,-11.148371226433152,-16.628145033409375,-16.556345234235042,-6.6439463818368605,-8.408890543435513,-13.497177276610113,-4.56117046340204,1.1128986633540094,-3.014406939122837,2.620836321014318,10.681655839500069,5.746600770013805,5.853615084726089,16.64703851752612,16.71339556409168,12.226326183000978,18.62832546787435,19.1474409959459,10.08973587414749,13.481460361179339,21.92855043619831,18.340724821222192,18.39389818612872,26.227043647195476,21.82292388677193,14.112145778566013,19.99736800904249,22.295979528911367,15.275899547304014,19.146641703818595,26.848219000168037,22.41371375575007,22.006360250826063,29.68872127421539,24.315614353435986,14.056741724920492,17.23731776209509,18.235926478870283,11.53126721867893,16.934748621250286,25.429884894867463,18.792485522525453,14.491666557626246,19.78480367650978,14.785499314695908,7.4042767505575595,14.267876578136638,16.934916642214386,9.076090541326668,12.380649645726708,20.27387415811551,15.943513551057555,15.962165001388685,25.027071263956444,21.700925856216852,14.052797909184992,19.85172614996175,22.344538432650925,15.763280883655323,20.580920453035933,28.907809709605875,23.139931044984166,19.87047232396591,25.88347564854179,21.920152329169973,15.267177780604687,21.802722111902774,23.719869054864777,14.698087310614563,16.55182569459651,23.708317050389418,18.359542899045838,15.127077459222221,19.47294155779935,12.485417268464083,4.057584579818508,11.917401105267297,16.835618935244746,10.31816854051075,12.71803636139471,18.574568246663688,13.068437374015678,12.93838582373705,22.00933118700825,18.356664879719162,9.292983182464978,12.505467327081135,12.204982755214369,2.93180559505199,5.054569106633779,11.234955378315794,4.617941220475593,1.7436483184784881,8.182482811210491,3.3583265445492834,-5.121197603164717,0.2657643482521226,2.7642724739551987,-3.863000479799289,0.992545008403793,9.636348776612898,4.479027676522496,2.697731058795445,10.563339129573322,6.907793225066861,-1.3872684522213126,3.141280738396552,4.255243064010877,-3.7685772982769374,-0.0995885419025555,7.950104069251257,2.527369543225772,-0.343221788500617,5.443931728780703,-0.36398930575285116,-10.440593713156689,-7.142447334970248,-5.9645370074485005,-12.39386957230302,-6.928360943073001,1.8814979265114609,-3.85727453309511,-7.8647957216931905,-3.221446102410906,-8.638497140767637,-16.021522867171818,-9.048540508178299,-6.023658570580133,-13.882887139411059,-11.641862452654554,-5.244947477462723,-10.478817959339892,-10.499576871735032,-0.5298961565602163,-2.1252715299744653,-8.151650976408039,-1.6757726590556836,0.6407896634343254,-6.58253452102875,-2.4018818974554823,6.140974992756597,1.9581296139425974,1.1828721755200207,9.214214380011603,5.087026275839326,-3.957570076358805,-0.06677824198441451,0.6799905989081628,-7.5803794100771515,-3.9359465716243895,4.255283647956875,-1.517778557929136,-5.656707820211205,-1.5990170591628623,-8.616717693454337,-18.54685067325638,-14.310488575196494,-13.408456200405237,-22.41315024597466,-20.537932996367445,-14.22629922493507,-19.948909305532748,-21.106638075893322,-12.570882764943734,-16.02313678736773,-24.458243188264362,-20.106453744141607,-19.400368849028524,-28.232482768037965,-25.172072491291157,-16.93596176369119,-21.091576823750007,-21.076711511487417,-10.816698966253133,-11.946681293848492,-18.552655686527125,-13.423589545820935,-12.276624403324648,-20.441565324063216,-16.900867303119238,-8.665391307253842,-13.525683605409334,-15.728280584702391,-9.155125594152857,-13.573260198485292,-20.83747959199728,-13.119642642679228,-7.852084980617409,-12.991334891715388,-9.128757667376398,-3.4329349991748934,-11.99779409801301,-16.225525515038075,-9.351635070318402,-13.245173386312773,-21.283013295436092,-15.624026230535183,-13.18640389043757,-20.34260957093745,-15.918653873973767,-7.440874370657864,-12.703576997992162,-14.806337931753252,-7.918255230284533,-12.721073007969606,-20.77654303304335,-13.533124659307987,-7.668439302483598,-10.290271725548237,-0.19932569676392653,18.15547530093549,28.982299786908378,47.996557303750166,78.87307762114774,96.70906376886087,104.57614025904228,118.5153997073236,122.06322384744932,108.74810959811529,100.48007240147432,94.64152580969387,78.13756401096225,68.63410393306897,71.34163408098586,63.085337595470975,48.34159452533909,44.86481048233779,38.540788794497765,24.35147306156856,22.43676123024756,24.940793872963233,13.755020161924682,5.127982812978797,5.87304843145408,-4.245853076148656,-17.746866807392855,-16.19347937143442,-16.072413521630505,-25.221064678898863,-25.081966808935306,-23.41798064144917,-36.04147149857169,-44.29204784933141,-41.051380037686556,-47.71816184194394,-58.6674171117403,-56.07871405729561,-54.98926347387561,-62.437257013502744,-59.610163525679226,-53.856877532252426,-61.99393190081132,-66.3260456262874,-59.29033803164238,-62.02454030030313,-69.40581135049061,-64.26959910397676,-61.58398296396696,-67.37187149903971,-61.88621159070617,-52.28161766716501,-56.90917136263802,-60.63940575538162,-56.11580819162499,-62.020623451737436,-70.53550909398143,-63.67952985997973,-58.7207072600563,-64.39236580964624,-60.69366951710663,-52.60655862170735,-56.56706990733443,-56.92985475920858,-47.97506603316755,-50.62627476860349,-57.78615472450876,-50.53308433323788,-44.24806461571522,-47.08819725604202,-41.07375764980102,-33.398748916153494,-40.54424807235781,-44.62398419717914,-37.16107273693957,-38.37857130034705,-43.20156462927564,-35.4059161929433,-31.284861387329077,-37.11257545069269,-31.833720706143303,-21.516947020172925,-23.936145353642022,-23.163914660288505,-12.572081444971197,-13.616614804787309,-20.67394386340978,-15.412554001967415,-12.793740445173492,-19.005776063229455,-12.75492759532563,-0.2457595400506083,-0.2853811696279176,1.8162701457798722,12.18233944778183,10.684931694962918,4.6934325814238615,12.483251461941155,18.001401783281935,13.313764989309593,17.414591575886178,24.243295327291644,18.284010757720246,17.61815217391437,29.152940968706474,29.927305546347885,23.945863252508797,28.895770161289757,30.025625333284047,22.058087386930893,26.59195400612509,35.91686138521853,29.682791122296194,24.100193310256426,28.866560220154298,24.930990550390767,17.60013842873567,22.8719879600054,23.956550322441277,14.268967798522045,14.733840895565065,19.050690952604242,9.442982000305346,2.316396862716328,5.738453525818073,0.5959474063029258,-6.547267615839565,0.647223255281733,4.699635207970989,-1.1909185626881156,4.553071118950386,15.667892753755908,13.502253438460695,13.90637050627812,24.064907206087987,22.717152823768444,15.786141144969719,22.237129457828196,26.307173993311775,19.708789408978653,23.046382988912242,31.09445254034899,26.29899974958302,25.392004595357765,35.92302475924364,35.729024875193176,29.401981117167168,34.67014997797488,35.55359093350636,25.31248756250254,26.285655129464622,34.581537256695974,32.988290721897926,35.95195942596696,47.81786977451351,45.148244366621995,33.635589846812096,33.93279709291434,33.06715571371225,24.793590940180557,28.84041177564864,37.80816111174191,33.237791342917255,31.354114102867747,39.41117008647132,36.58017222496936,29.06095220070266,34.91214861122318,38.320834100914595,32.03779701070381,36.02841641275133,43.69011108043106,37.12402001681613,33.25761814217684,40.47259244505979,37.861816738200964,30.181945046842298,34.73130960051334,36.27357115070723,28.45851537141037,32.105020154227574,41.36892745433275,38.00745593169556,37.34613000063674,46.988246251136005,46.15856842313498,39.33649850095351,44.24228445029881,46.51451120234969,39.98134155413874,45.37585761701589,55.96605074220881,51.809177732896316,47.704325884437736,52.79619800672387,48.58016724023617,40.82413072084035,46.62188350522959,48.90179818889567,38.70583127445744,37.53317677882332,42.76855149491437,38.05293482746461,38.442747883720486,49.19140807201791,47.00103533649602,36.95538212997064,39.29578350837569,40.613418011725535,33.29289407427102,36.02725089071396,41.896124071707604,33.055661264999735,27.052566334774156,33.492702678647476,31.095030443858562,23.1194200837264,26.702146839828675,26.597901637708688,16.098226363359252,16.717439239470274,22.825287777654395,15.25229782161093,9.46045743089961,13.93062195614645,8.536363668916279,-0.9599667117853752,3.7003140188568038,6.183565560552827,-1.8970097348406019,0.5132347133310486,8.045447144666415,1.4565464544741413,-3.5831983282800453,1.5745437779046632,-3.9734957849966017,-14.796492720111425,-11.720220658540061,-10.529671578697489,-19.8415521443649,-18.469047824737977,-10.949168496643965,-16.224662849378493,-19.79745023075759,-14.022113807944383,-19.46447995896714,-29.985591452181193,-25.698234538726553,-21.828504552802272,-27.66032704878505,-23.865548320650056,-16.129640202149403,-22.6743369676333,-27.623386912050172,-22.568336402244,-27.70735792335033,-37.304184145870856,-32.72783949864649,-29.922963869757005,-37.861325960880166,-36.152577080097984,-29.304970408207385,-35.29571484620432,-38.71624390029465,-31.605743934979436,-34.537299112569116,-41.60738551520654,-33.60886772778969,-26.694840437478952,-30.68076556907537,-25.878845212638293,-17.471195391738725,-23.59484044532496,-27.754474015311363,-20.721040099523954,-23.315776989263142,-31.15282451422671,-26.124313928250984,-24.095080252180495,-33.019268239455066,-30.950849241587818,-22.83945509965057,-28.878365235050516,-34.96698217065337,-32.31749716845238,-39.15161451475653,-48.18428934973347,-41.348198978363385,-36.68880121989124,-44.50450132942058,-43.41647144314408,-35.96126390136919,-39.80282369872169,-40.73865749592486,-31.90703159514761,-34.67208134861826,-43.07116428880827,-36.79815538819173,-31.559095641642415,-37.60777415604764,-34.773780404442824,-27.113102056038876,-32.905981970451805,-36.590951545026826,-29.132776803700807,-31.63652890885379,-40.58500732198461,-37.518731499020646,-37.17030818894436,-47.63307926831713,-46.867086355443305,-38.48823883166731,-42.119478960155924,-43.58713568104175,-34.575332088767716,-36.027016010105356,-43.05338591056107,-36.62643656093613,-32.25415303625207,-38.54027310199319,-34.46871942002924,-24.841955316573554,-28.76171925474744,-30.83835255305288,-21.710492874613074,-22.10021638312923,-28.612771321568886,-23.177251144465394,-20.85819801318658,-30.08100571439265,-28.77932394890244,-19.939710942296323,-23.00071016139314,-24.477964529708494,-16.240544028131943,-18.886068675851373,-27.47874805487907,-22.121955348064404,-17.04302887042507,-21.862379173802537,-17.492708103745017,-8.65002043210595,-13.783574833036713,-17.293747859697447,-9.334059675598,-10.153190321052765,-15.880454919909338,-8.663902154092781,-4.785014916853233,-13.517943668557216,-13.150807126683777,-6.483076919988729,-11.560491062622654,-13.609444944384867,-4.728164985058847,-6.389557112408536,-13.978588916958119,-7.88118755145434,-2.9772908160803513,-8.564507884779065,-4.300885753803413,5.4721631676019475,1.8042964636466803,-0.5084028114108144,7.19935096849639,4.252109301680145,-4.459195730970827,0.7321108633024851,5.265487669118015,-0.060604127298819144,4.4119153470888675,13.393047515604867,7.810815615666369,3.5624403200330796,10.928560984354867,9.781205481615274,3.7411664941351086,11.122954641151786,16.519687296638743,9.988216515919664,12.042756663348605,19.0539755908484,12.645825084098734,9.112836634453986,18.052362533112078,17.389160356948214,10.224251523935877,16.045740233521084,21.086184849156506,16.429940015208697,21.04073802473788,29.11993976934589,21.951809624940825,15.891673728592515,21.73897656170822,19.3171507299534,11.077140088045642,15.13282458082139,18.336775137697074,13.22270518658358,20.168164862943943,33.698584042944006,33.47832670068825,35.21805253613448,52.03413301064197,66.51524092577245,82.17937100729462,113.98649101188187,140.42781103904844,147.74755729789,156.3698413600434,162.40998928277133,147.4198945489653,128.95762195558004,119.37470657007995,101.62277976330586,82.58965352802531,79.995321698487,75.50304770806378,59.42208425941671,54.78905804921265,58.83251311318014,50.95616545466552,42.82719477743,41.42414962316097,27.3079387019719,8.574019232365355,7.750078311706966,9.6497082945907,1.5495177688864041,1.928510796127548,6.661519297851164,-3.574439943295827,-13.172011026888118,-11.31419298389951,-18.532725471098367,-31.029504405796924,-28.977894026007746,-26.812465277093875,-34.664492900403616,-32.96095678225836,-26.066112225230803,-33.55157285504543,-40.906358953374564,-37.5727437384746,-42.88518089574974,-53.06715017770104,-48.89709440032153,-45.14740304958798,-52.983168574981335,-52.60675251039402,-46.49614557208158,-53.42791967972924,-58.59661135065097,-50.78172757109605,-50.57928491309572,-56.79049291200617,-51.25053254631845,-48.505172909473224,-58.69191441013446,-59.65672551463393,-52.053089009588405,-55.49268643195698,-58.4508712356,-52.29436332393189,-55.71600253100202,-63.339260658534315,-55.187792493363006,-46.37149294503444,-49.314488893304805,-45.59140563563109,-37.40253352661499,-41.46349106101119,-42.76306963980704,-33.095295835436005,-34.3958864412914,-43.39864751063572,-39.944270145727536,-36.79322174423437,-42.505568944543874,-36.99493129181237,-25.56945347191012,-29.658416787206438,-35.29588609780676,-30.780955742212292,-33.77945365316488,-39.17788555032043,-28.472195419224608,-18.712836675042105,-22.02881737816058,-18.777384141922397,-11.756515578405804,-18.124351113344364,-21.503854364358734,-12.082046769193,-10.766583582948629,-14.84987366768253,-6.935174326256907,-2.453734484547776,-10.672754944314402,-9.832158698602829,-1.61888051261375,-4.603836761586171,-5.4133172785064225,4.223704556047444,2.887684472256256,-5.945386788873204,-1.5049685809830926,3.095168423401906,-2.8999324076230146,0.010070485056954404,9.590092484382401,7.390235095041993,7.03317746515633,17.868742053831745,18.69816755329221,11.502998550132585,16.570562273268372,21.952191323437297,17.472959594073295,21.936011270900128,31.7922769101483,27.472984455683253,23.004690217556984,29.737462856052833,28.40851177830726,21.174444188000596,26.11000500833149,28.968276291777194,19.75240830072538,18.410231881615424,22.324220132635094,13.715302234105511,7.800199712842699,14.949620802634728,14.424148246566826,7.722291433915272,12.875860470824048,16.185001896091027,8.455460407913444,10.027149414876572,17.561488620608436,11.214492779587427,4.819074746900503,9.457796693197878,5.528598262857016,-4.259157470957487,-0.17476951060208723,4.0747507997459,-2.858547858455778,-1.6065238357561125,6.012639834597212,1.892875170870951,-0.15179270204014986,9.145026344157756,8.03261009472435,-1.6014249006037815,1.3255639995082587,5.5844062114586075,1.3799186698722337,7.553223602956232,19.74248580932358,17.708308270057866,15.67718985111321,24.872465074900877,25.125678919311856,18.34006914107561,24.24037794553054,30.008300087903386,24.617224053505943,27.013956282016746,34.65107799586093,28.7456426303307,24.103806173976025,32.54430177294626,33.4548843976585,26.836521445806902,30.611269661758325,32.05063475176705,22.102126678103275,21.691291130640103,28.998767164783736,24.200896303180073,19.515194265605885,25.092328056392176,21.44130225136973,11.011782585366728,13.512111164172428,16.471882804636884,9.578096144420764,12.331630579908424,22.68231346357618,21.384657366671284,20.830331200415024,30.702123333143422,31.1092215380177,24.765472435829835,32.185638115343714,41.07588506236986,39.81116284612842,46.27497868915139,57.47565320829585,53.90856760772019,49.619413328003304,57.16111170519306,57.017515210959765,50.043031234659104,55.738809295826385,61.376327897290544,55.51484047283434,57.56973429814846,65.43956595535208,59.10507057619981,52.0429483177019,56.746047203538154,54.27155882649845,45.94399057093379,50.35188031617965,53.296640930747074,43.2588918656161,41.05208254424452,46.14632292098142,39.376909263760425,33.44115500145837,38.52090552023178,34.79291638896525,24.99994067997269,28.90341365860335,32.63346928883446,23.831715228432508,21.253630014398546,24.213246819481945,15.816024859501907,10.24764417625065,17.550381676353037,16.496202818846445,7.670392357641981,10.107502637516712,11.367261067711963,1.201691388326167,-0.6835394831367358,3.6354742513214173,-4.822235914637339,-11.825990686311536,-5.851039185004251,-7.272660414891476,-15.095872229211421,-10.399231280591966,-6.49039104091302,-13.861917982627878,-12.127388227361894,-3.5604635348375924,-8.87623927949133,-15.428140749985527,-11.54682113457941,-16.238713416000667,-27.142352242212468,-24.06383930279937,-20.17322142095993,-27.597541404640843,-26.982890079348344,-20.125805025145787,-27.124788969373732,-34.67066661173267,-30.482829283854134,-33.7214716556527,-42.434153869187796,-36.48599435488601,-29.136495445955358,-33.13858095453976,-30.024083328188535,-21.89275598201452,-28.665064773731494,-36.68535710372086,-33.2500018064143,-37.651525500616835,-48.216557293838896,-44.557241129640495,-39.83816807392752,-46.59453272546065,-45.251419661590404,-37.218536964310594,-42.6973846383696,-48.36812587041921,-42.021458895226054,-43.30056623522405,-50.63416203256969,-44.102030998582876,-37.14297220359326,-42.96310035467687,-42.79234054348998,-36.145365420902934,-40.725322928083386,-44.00145126066539,-35.85070497142638,-37.34059639822899,-47.5749570756813,-45.14583861438139,-40.395621588008495,-44.6529199288825,-40.52335503968635,-31.217517598906877,-36.62297563306032,-43.24562110879678,-38.46008669910982,-40.74820298401095,-48.16409470191615,-41.08146119538658,-33.600683214858364,-39.40972352026161,-39.24716685682214,-32.2191756382385,-35.20219710383058,-34.19607757196087,-19.583658162256015,-14.636825760454009,-19.90849473439674,-14.684336892212958,-9.628129353337528,-15.396108324992966,-13.522155705918202,-6.7938454221918185,-14.761937300426816,-23.551195164321506,-21.252960264048987,-27.265941315122763,-38.82270133368839,-34.43262944558923,-26.87688977226766,-29.797294659261283,-25.708197306206596,-16.68020541082569,-21.6500185572828,-26.04759797922012,-17.601142838194207,-17.36396100111004,-25.40068586154682,-21.09743371360588,-15.661308013961744,-20.873200820485984,-17.639128452413846,-6.9896090875578745,-9.379326301684218,-13.07868377515785,-6.574625570124458,-9.628311127515243,-19.96004722616417,-15.489580564102603,-8.940109987337491,-14.074031797002478,-12.080571261384463,-3.6588268584458365,-8.563248180635703,-14.03412175318488,-7.749744132337878,-9.34762682951057,-17.5736434502863,-11.309512397365118,-3.302224517785426,-7.595834226441679,-5.154035438481854,4.819967761858046,3.059957784994597,0.9830609751216143,9.45534271970415,8.29440931667445,-1.2102819404468423,2.483189901636399,7.899447118359891,2.638684547986486,6.227867125176727,18.18564160078089,17.23678224866979,14.045400026675612,20.59253567581407,18.486067697678692,10.316563833209973,17.113001827986118,24.733233147241886,17.999807156581817,15.89607783904965,20.419137816153956,14.212806629581072,9.829483788020209,17.90890888163896,17.392819347175035,8.755776847527347,13.46403573949824,20.047325628706552,14.696915990680608,15.35665429093237,22.08219847420997,16.01776976342294,10.436734565643212,18.147241476337584,18.19564248305587,9.551376003974104,13.121809667065023,18.020632405152995,11.860890401959889,13.421470214854109,21.679692040023287,16.219125648455943,9.71426733335159,15.901385365688709,16.156348558564474,10.078848775064287,16.395835361731194,22.368914883320087,15.006539063591678,13.696827265588784,19.28913190212529,12.262677522118384,4.896202395824361,10.749212485707538,10.860237931612797,4.406069331111924,10.216970398179416,15.56627954429034,7.990984823803091,7.9729603752248455,16.386283275769216,13.155269170146191,9.458434038648676,16.818826097786392,16.250326141690067,9.032528230960123,14.745926488188136,20.19870364165526,12.321504928908013,10.844500588064532,17.074592149256276,12.41772120565673,9.51076868240424,21.329188734938153,29.763966421145987,36.9927935029542,63.601178501888796,94.63341295046227,112.47951049925064,132.14188513350405,151.42614835353646,150.46900415201208,142.21306739259012,140.82135454272046,130.14160790068448,113.8651472491162,113.84510756367652,116.25528614833183,103.81546739697768,93.68864474472186,88.22609821435617,70.45813271791314,54.148478861462465,52.006930794893705,41.87569708550073,21.38518158471488,12.374065316598573,5.583379120951894,-11.703614357189773,-20.69834637354941,-21.024061019356697,-33.25024031942814,-45.94638378570872,-45.51740580984915,-50.70141234702615,-62.200185939243894,-60.794438601240316,-59.09564130611896,-70.27277289466363,-74.35697864028845,-69.94613452228965,-76.27432175171158,-81.41059566822534,-73.8213190168018,-74.73785452944746,-85.12251761121209,-84.08812417618226,-82.36415810831599,-92.43345051045128,-94.24754180362622,-86.41311511214127,-89.88678187350108,-94.04723215328914,-85.01323967840422,-82.32832124217285,-88.32017277240573,-82.65649697882974,-76.11701080529963,-82.21627746774922,-81.20371225737608,-71.2049706018932,-72.98766952497971,-76.04870676659836,-66.45032235391004,-62.98955274126783,-67.56972845491867,-60.55763833421554,-52.97682662071145,-57.73926903287098,-55.33571476104282,-45.10924850309712,-48.38089472404441,-53.97859643294164,-46.89171454849711,-44.99669876904257,-49.56487294527325,-41.01415542468153,-31.249635133396986,-33.87747314033458,-29.746397305540647,-18.766547433397065,-21.833059960929788,-26.83927970327694,-19.214177340268773,-17.45210154504461,-23.00141687019991,-16.722925787721998,-10.149337927153157,-15.816439983083066,-13.34490225952078,-1.5981336094995084,-2.5525610027361436,-6.248091367790418,0.9824810417200389,0.3701607267656508,-8.121052938677698,-2.287762934842111,6.727936004979492,3.447706754499924,5.791077956140775,15.623370006176678,13.910865039476292,11.799780129784235,21.789790015915344,23.898027194658088,16.729039696319848,22.197744332887048,31.26772547877733,29.28755116625154,32.35248865777541,41.01359288581864,35.94400450918676,28.783609829258083,33.58129710907756,31.12687768459773,19.667923930608524,21.073041722980854,26.421524814986693,21.42416049122568,22.78176245157934,30.082823692206976,22.49348025446727,12.022544745564163,14.181001561834055,11.408986366811618,2.1023392093073943,5.339149790200718,9.723995399013374,1.550388167896065,0.3695407648610811,8.864631248049196,6.842713736919775,4.211877531687121,12.974652360752705,12.386082970265285,1.0886633949954239,0.8353842489488075,2.667484067684821,-4.860179076539463,-2.850802663942058,7.581791672213226,4.224608335527987,-2.1069228892943785,3.7006089824329207,4.309675897207833,-2.1853844178004405,2.7138088034480226,7.517320803087931,-0.8918944180360322,-2.1260832897039634,7.12087644162121,6.203322374304678,3.6257162585254608,11.922586409255132,12.005088258603203,1.9332458950016531,3.3328170205773677,8.079922482615853,2.7944411511390257,4.853263760142766,14.69494981752481,10.967934939972682,4.738620752724884,12.7432472071474,17.92211024352291,16.861688782902206,27.805050972430003,39.32213814736183,37.078217791363954,40.836681654574924,54.13344321612303,55.89018494328222,54.71892391389892,64.59576325580758,67.39459556977977,61.51945552200313,68.03336676726016,76.05950006800785,70.0454869832953,68.9392722346435,76.79744225376245,74.72270084691229,72.48121199304725,81.69156490264783,81.51428454873404,70.15072242017462,70.39242576713988,74.57697067334055,69.36087261433485,71.70552889828235,81.69614067382052,78.1962861252153,71.11930784139894,74.5347018726959,71.03736343430532,60.503259917836154,64.19968293907351,70.94113212831861,65.02198995781805,63.86697277482972,69.46627407875297,62.35680861179574,53.2315041447155,55.9830741230342,52.06872431652971,39.93227092191204,40.96716241614883,45.39356516831478,38.02723183971196,36.38643905663053,42.901009529623096,37.5611204416108,30.238282252977356,35.1624463590246,34.07818005971371,24.684186785439252,27.224170358264235,31.187829442862814,21.375035395423183,15.845922085274573,17.666986843789317,7.860501714558152,-1.9758154334420701,2.8748850281698752,2.756735208619393,-5.913124690137706,-3.250331230073693,0.8412101882216938,-7.386131452775914,-9.045154340698943,-1.7827326371949144,-6.535906832680726,-13.900468385135634,-9.355751835676163,-10.980056684611819,-21.032075717533118,-17.997009157474004,-10.829654756476067,-15.09267541836247,-14.664799587171956,-8.872216489605929,-18.675837051323672,-32.29371696605129,-31.71663354865462,-33.23121232957649,-40.5757400668777,-36.028820670730916,-31.028687514718648,-39.93262098528168,-42.74235661953842,-35.18585184273604,-38.30111369860485,-43.766819117626596,-37.09509296042266,-36.33493874651977,-44.07648435519003,-39.60356076248809,-33.26775118467562,-40.50180113277155,-42.34067650897227,-35.23174117153104,-40.05528781863154,-47.43534981023643,-42.648028684185014,-43.99806035908127,-54.02644965298643,-52.15545672144945,-47.977142970418186,-55.45793266931327,-55.65192660996742,-45.602452483282974,-46.421110332065545,-49.72612992465957,-41.52455160324671,-39.94720602375316,-47.31595681758237,-42.06671126586789,-33.14469769681726,-36.37208743593773,-34.94118029609861,-26.281994468535114,-30.953338047714684,-38.948412017296015,-34.388614499224005,-35.21663748736548,-45.0133764474708,-43.293401124405776,-38.28176745259144,-43.41290230758937,-41.06975648912646,-30.422680185735544,-33.554250112815126,-41.15725558430803,-37.19878244275023,-37.6879681169311,-44.621106820197475,-38.62859660811349,-30.923821840545315,-37.06494797679129,-40.21343246723999,-37.11894869602183,-38.041252775550134,-28.491587316639695,-9.379361459631399,-5.360111925673475,-12.589509368782466,-18.60154957260582,-28.046426359599344,-30.80531526535078,-19.151522145185165,-15.45465686731862,-24.507212551756435,-24.346986308005096,-19.449207196570676,-22.70340578448516,-19.40174916391524,-9.741449404441937,-14.531099036715593,-23.398815213157985,-20.774511164572356,-24.455761847255825,-36.05974687844413,-32.65810295994058,-19.365704208536012,-5.8618562098959215,16.9710149872505,34.6938853166445,29.83844453175088,19.330030099523682,13.41317489119697,7.920067135792531,12.949467528036514,23.54209690350252,17.60317902196875,5.069804128542279,3.987220540026566,-0.005720013758553355,-10.565904105377838,-9.79301294772661,-9.513753717835751,-29.205905704332267,-52.1507105162112,-68.85580709097525,-91.52044584591395,-103.17790791903678,-86.41149974773165,-69.51362372209418,-68.88313629867548,-64.50752930798434,-57.69289161417723,-59.92382188098019,-55.120545094765234,-42.373279372422694,-43.208525220461475,-47.23766594383363,-37.35279925098888,-32.50015120440516,-39.37189354239145,-37.57786088594575,-32.80736008773616,-38.296881849872804,-36.669985796819304,-25.386615099083564,-26.03971683348746,-29.486682665478522,-18.92425342115704,-12.405172002156482,-16.024887295922994,-9.863722310336962,-1.0565231831343507,-4.622766916542018,-3.156839792798549,7.957059337303894,7.670048961422083,3.274799809625542,10.53988494097316,12.423003446723778,4.934012022579026,9.64565679762586,18.643746470510195,15.011506871563832,15.297988458887023,23.758064040435254,20.17396388586843,14.121435448877786,22.06341290830323,25.16642962559098,18.07496303644666,22.377188707642517,30.572542293232914,26.950106859423407,28.972543156607077,39.381379721347685,35.45424875638949,26.312172900386443,30.524731647316397,32.01253094744844,26.324544268265864,33.01731128462275,41.37286617268996,34.450506093935985,31.81719209697344,39.68296343052748,36.78618183377011,30.921476762992242,38.302668132332705,40.774793571225786,33.29882002157184,37.17629213678209,44.143162335668485,37.89496293218587,36.69315566157654,45.322578658418095,41.908291839153804,34.216455104216465,39.307017277790635,40.48820646658436,32.94895157556634,36.65683708714495,42.60503150515148,34.909538332501924,32.2095523844225,39.77359360910233,36.29932247458139,29.049103553553323,33.94521416256059,34.18848546498396,26.008379744283808,30.452690020484905,38.58921941945762,33.09929615789529,30.77927728109442,36.93607245633149,32.66173514242231,27.11321501199665,35.735657958428,39.89024000489278,33.64578686909572,37.54306679242327,44.44047065985875,38.418330648176216,36.256483479831225,42.34519410014629,36.40827764048689,27.874076913184197,34.31576379392713,38.112387419071766,32.589336408211004,37.57100995150679,46.095044728826764,43.91286133128945,50.463661327043816,71.26668435036459,85.23021639497394,99.87638432141469,128.94632949246926,151.11771148818096,157.7573245391439,166.38323509448398,168.8528667980842,151.8971657028322,136.0486907177414,128.70328970429404,110.18232108954624,88.93932406931653,83.06580966573489,76.02147688304052,61.44119855579175,58.52914830021261,57.86176351892843,41.97368273868881,28.962886308166333,25.8609415795005,13.178542330945975,-1.2529484393037005,-1.7926757340909623,-6.578678580496174,-21.328321094697255,-25.14121871808114,-24.99682394152166,-36.90553775655724,-43.814874761771534,-41.073848285487806,-50.06281083931228,-62.839879375920475,-61.96306728393888,-64.10107990041753,-74.71438649338641,-73.79766962830368,-69.40551432144177,-77.61463445398782,-81.59625609277533,-77.34653840341952,-85.69039846955056,-97.92482724478731,-96.06976154657491,-95.2569807996847,-101.14666821266246,-96.36985588342712,-90.2327497923222,-97.93980738673108,-100.0782406905451,-90.38768055628793,-91.51232418622044,-98.36606316113594,-94.58289583910062,-95.16175208961081,-103.25513409825754,-97.48729236878327,-86.62611884665166,-89.72898683776758,-90.99974656298406,-84.07919210994484,-88.33867135593466,-95.41284239515106,-88.16342794620081,-83.80529831598776,-88.98069684529361,-83.67098224231978,-74.65623863121161,-78.41008768586036,-78.18056062706556,-68.23245673185112,-69.85619147730766,-75.64920669203215,-67.27871272548042,-61.27368802670692,-64.14588297986352,-55.51308489462157,-43.47947012051212,-46.47186041503116,-47.89723509754006,-40.513521052184245,-43.26092456713593,-47.72767571744585,-37.386911313665564,-30.770220992073526,-34.863936208788964,-28.965970257582622,-19.139914682731458,-21.054580389516616,-18.70446660618908,-8.205489183980113,-10.393145101761382,-16.371662820131178,-7.995155266387356,-2.6067284449816617,-7.06767963928736,-0.6483827307239638,9.584764831720555,6.347842872504497,6.074566324475358,14.114707967866137,10.064449381565243,2.722909298607403,10.777172426994849,16.73567299446125,11.323201288766583,14.129373051790875,20.57082116983436,15.740402818723215,16.319000996007787,26.810278846102864,24.997268631140866,17.703878573407962,23.331788317402193,26.939096882993724,22.32538257778792,28.05233519138708,35.68897689758589,28.497776201060987,23.92754715756798,28.615554495239067,22.379004626085575,12.774817735003298,17.82367636551356,20.891908289377152,14.167222310682064,16.85381339371303,21.519616287096543,11.570912045805187,6.403681898730995,14.50383922452627,13.383923727586994,6.878384812879651,11.52914918181036,11.74942771000008,2.6178100967350018,6.04523208219416,15.520110791406088,12.25547069366278,11.115950925293955,19.089750645226246,16.414457599404777,9.826826374012997,17.648445813104512,23.890246883013205,20.46645817562481,26.9059407491038,36.89856628736872,32.79258777342829,30.411095041616733,36.67547738758116,31.44427148124973,22.321875335383567,28.770838938297484,34.80718103094975,31.51419803954356,37.53918300203065,46.07948190008234,39.85117521337793,36.10699045725336,43.32251819931486,41.10079239278426,34.75905976307379,42.0367410659618,47.206459721819115,42.71527376748922,48.901926628078385,59.71745838247206,56.691250106447534,55.3047900783617,63.119150161932346,60.037956572595846,52.44756346122685,58.53499008357705,62.32324901504705,56.26048914285015,60.77728829345442,69.68286803999906,64.70586753497369,61.5951146764051,67.63788712543852,62.86691545690938,54.140821536235165,59.591455859090324,63.14506921619013,56.63836826976417,59.36144344703658,65.49267388110043,58.12621980895484,53.66400678989828,59.47031189971668,54.4618279766198,43.92784798859439,45.91896581231755,45.18195331317773,35.049457102806095,36.47595506705103,43.60861036949115,38.536766968511955,36.9570269115559,45.474824491253486,42.16561537188946,31.994017367070533,33.63174098349033,32.65953075319953,22.79836535161077,25.149308360079253,32.56980637300929,25.10916172561338,19.15771822896158,23.52107658788719,17.42717140667552,6.88273040079002,10.346228733862024,11.196932409419137,1.5566538749272643,2.302128047216719,7.3380813071048445,-1.1467241056329582,-5.885120650229109,1.2394079371489979,-1.4821241214654912,-9.731504697254774,-6.103551048504825,-5.908467486104184,-15.498226193430728,-13.698187155861634,-6.706276598093517,-13.496983163064574,-18.763764399508073,-14.582858676777127,-20.68044143512944,-30.587976848414648,-25.921164531440425,-23.042977742326425,-31.31471624171926,-31.327824970565743,-27.612765709314726,-36.55473042051935,-41.578328454722744,-34.632313172208356,-36.46949041523919,-42.24814821232962,-34.27547261295446,-28.830716673117404,-35.492358431579575,-34.584629833524204,-29.752539494435513,-37.39585752064487,-41.37588702463075,-34.120362157125385,-38.03300220987355,-48.79874975959198,-46.189404575120065,-43.79745878379755,-49.824799787101355,-44.67939668965143,-34.930149191297204,-40.390687832734564,-45.054485061056056,-38.66912928624233,-40.748993191377885,-46.397522487267395,-38.14213771875522,-33.15027656468977,-40.499411701787245,-38.272221745604,-29.774458991740456,-33.462014748741424,-35.05772888284648,-26.992932406448478,-30.13684367882237,-39.315794167307125,-34.81215360390154,-31.447950861512926,-38.743786532284574,-36.53620601821578,-29.141924439512067,-35.46925390915173,-40.156740342473384,-33.21334776842867,-34.55181004133422,-40.54385027020034,-33.732693559553226,-29.394852992604886,-35.5758660255424,-31.208285968029877,-20.925708984615703,-24.66231559945689,-28.62437792736232,-22.923081362107432,-25.593662205336113,-31.69371773834287,-24.23925004994595,-19.99620754946451,-28.04070923982912,-26.75176912383705,-19.365446229179707,-24.48460706209521,-27.5281102872482,-19.820993025111036,-21.854729557117878,-29.377272011052806,-23.943857187066918,-20.183423233273007,-25.97998913040902,-20.55063346261823,-9.038862900269674,-11.880680835912939,-15.421435565012533,-10.119612102554985,-14.883988266805012,-24.28376643332393,-18.555966440789895,-12.204274761494428,-15.113815880643417,-8.240524518191982,3.0145273436901108,-0.6005007501521633,-3.544117496839734,4.1125848955518105,2.2186922252108707,-5.138738980143078,0.9621373499949004,6.124835568326282,1.395602848444379,6.451599768785872,16.055385802569226,10.938366336071635,6.246152103570703,11.69089031492207,7.714104984446502,-0.8770372960895672,4.54972405203795,8.565781852016865,1.5971154749475982,3.9642070916070633,12.020899560938815,6.956091324347526,2.926413208105525,8.943589312750223,4.814951300164141,-5.197199385685108,-1.662274515550199,0.9666693613364048,-6.913643398138238,-4.957880162483874,3.5013725833814284,-0.21922205488290292,-2.3365300643252525,5.484148770766167,3.3133043337866805,-4.361786525583076,0.9890592086641141,5.049322303810491,-0.9053095054771401,2.694953668130448,11.286920517795814,6.322923868122169,2.714623147774745,9.639564812590264,6.465298417874033,-3.46747196330747,-1.4713732259944428,-1.0066843621010568,-9.669455579963685,-6.650367950705784,3.105335005608384,-0.8226478700982223,-4.009637056445775,4.043929922800341,3.465836657059092,-3.1155078756677437,2.0602908287327772,5.200325377683041,-1.443411187201626,3.0262107262226254,14.01019212079241,10.653630736828113,6.161601581020033,10.843873971580768,6.379157763561663,-2.488512537642121,3.0055433150981066,7.774995391350473,1.417726196297055,3.3921559045628884,10.49806207276444,4.993744382653947,1.9374529662102986,10.495126371587654,9.405179176325571,1.4022538423670143,5.654551186451286,9.087632602851258,3.0538541328804736,7.243012287133067,16.89563679037232,12.114635248540734,7.469810007264939,13.599559583100389,10.729758779080576,2.3369091935798956,7.944323253880917,13.68357131457419,10.053147004975031,18.388186464360448,36.14443951718839,43.32721833361156,53.559919821703694,77.20121728237774,93.80078229235136,104.68424974444778,126.03367360126457,140.3618508337652,135.20707346520894,131.12373491437177,127.89199301774423,109.88550904732134,94.32471613286513,92.34981314779078,83.15589289713677,68.30321664486283,65.11558838380915,59.7243730836353,43.7826696303226,38.04871813332168,39.68980948388122,29.198203806862807,19.249585996177636,19.768566762787067,11.508676916227873,-2.6943670508062096,-3.5457894541736144,-3.847095860481161,-14.102593245461046,-16.382769582854888,-14.163018315325177,-25.340071406183647,-34.680081125159774,-31.225882385973453,-36.13073383781034,-49.06606496915284,-51.50519509794656,-55.074141063220196,-67.59237399696704,-69.50177553795432,-65.59004745850174,-75.34883911575048,-83.24650468861603,-76.75689315431154,-75.25845817220527,-78.97992642061801,-72.23826573714297,-68.62553827093743,-76.29263326224968,-73.59042912493999,-62.574366134244976,-64.20512380866268,-66.89094873258438,-60.090351419268345,-62.65075680897211,-71.47641417880838,-66.66624881070105,-61.30515075187368,-66.57044113909885,-63.119515615129934,-53.11794300562312,-56.58571889433444,-60.78213443980475,-54.598356169225546,-57.27495955589811,-65.7006781192825,-59.35627293651656,-51.54218888335046,-54.0269564033084,-48.225945107107734,-36.725010173492784,-38.25651523634994,-39.199015031900196,-29.032265994963232,-27.564330340600144,-32.69806791568567,-24.692945147319435,-16.708671465920112,-20.686627264343468,-17.732850161211523,-9.336165616018919,-13.534237180308546,-16.36540721887474,-7.740671414556525,-8.26346013667032,-15.485409925167813,-8.570682226085564,0.6157852264444665,0.5201373807277001,7.54936686820364,17.186176242430605,11.56335849983669,7.07630046538897,15.863014786476331,17.26158423369068,10.827360881967888,14.300516524691561,16.110922307936125,8.309131062644386,11.492963984966186,22.18701629077606,19.171815123015538,15.161978097671268,21.634147331081017,19.72579370247515,11.705893266945033,16.168882360263957,19.41509962463275,11.072619419130426,11.31836668488334,18.60323513843677,13.865600591007748,10.198596164529313,18.790949684957422,19.86652829131814,13.860327533833498,18.623051452677668,20.63610689356752,9.54785055612378,6.940291578195884,12.941039476657776,7.413438880177665,1.4382893519930882,5.806175905660363,1.7726471632501566,-7.519074018769918,-1.5354284178203597,5.643730151611048,0.7048540764522784,2.1746763291972204,8.595859043974487,1.378126507381701,-5.352346883323504,0.9302296129941889,1.1314298530537903,-3.7902543493368537,4.908827274627567,13.022638439495312,7.9771523803942515,10.18372438526901,19.61067853999753,16.228016251378307,11.596948137942608,17.126985362078717,14.14824660888061,5.184591023607156,11.326578850263527,19.322280798768364,14.11769030786153,13.157508725513916,17.327776578432772,10.086025325782618,5.465210421100437,14.655860286780413,15.900086335908384,8.143128472958384,11.324959066398819,14.75486276180376,8.012973543296525,9.855394888198603,18.15799596400483,13.89067718708934,10.236122018873703,19.250527231281847,21.934581942209057,17.974045526774443,25.74381929140401,33.52959204517002,30.29556368258046,35.13059925945138,46.21318002142144,42.736966253752115,37.17296376060885,43.463291571948005,44.14110938447596,39.13802681528624,45.75590111973386,50.24511640907121,40.92455440795165,39.19074201736071,46.28240096617832,41.67674616737262,36.07103532130148,42.39879473641812,43.18573208330304,38.9804471046372,48.22647693109266,57.118304739914386,51.68571521570135,51.09153646148385,56.763875641341116,50.32650275234485,44.4033995617084,51.53966313962735,52.21379957548083,46.024624795758506,52.02389157200367,57.89942003359457,51.4691170903945,51.71279986366338,58.04970374113968,50.945738545485725,43.23160176241689,47.89854481535835,44.93628102283384,33.49841362503886,33.79181904742673,34.73387017034877,25.13447923829697,25.63900398471826,35.34160198216239,32.21646405888889,27.896752451644513,35.10275948324856,33.88994169587339,24.869759312649826,29.00486960779999,33.62800097564373,25.332858914370828,23.768811268072483,29.037696277090994,21.069435279254925,12.496466236330757,16.828978917972567,14.808164244304315,5.403655357457291,7.727716495724757,9.924009504080324,-0.2622724670338137,-2.282841341588604,5.679826779587813,3.010368411179668,-0.9752024942239397,5.255393970532198,2.5295106914327943,-8.607780873056806,-6.258445872041415,-1.7297783514614444,-9.56916960730042,-10.916128123997321,-4.256645210743882,-9.631089694510493,-16.042801825248148,-10.304011346433622,-11.723732135696274,-21.716733439976263,-19.51903419357199,-15.360191836909923,-22.601580163449043,-21.760358668350406,-10.777963579860074,-10.84274917598881,-14.160628929703522,-9.593539732387242,-14.371084985195338,-25.799229323993032,-21.556201683973605,-13.586411285388095,-18.575611713106344,-20.228858240508487,-16.313468815418986,-23.565699533202043,-29.524486453200964,-22.729797575785952,-24.48574264683771,-36.16862156068768,-36.226242935038684,-34.09788999858991,-42.74672441583959,-44.2089660498949,-37.81561317643296,-43.03847251910589,-48.845161806035534,-42.813443362091064,-44.372902922495186,-54.20789738166129,-50.484711406465635,-42.64353028182238,-45.16924582126047,-41.91697369222183,-33.48183298961445,-39.78311421270331,-48.025561797032694,-43.10114566402875,-43.58375286222936,-51.225150383248625,-45.827518849816016,-38.00085184543952,-42.63565922865224,-43.06000727668,-38.3884076637079,-47.371381016787744,-56.49730499702634,-49.833630032904054,-46.60331198053162,-50.42033882874841,-42.868622209360204,-36.1212953747037,-43.775215735308834,-45.075418745426916,-37.002944971542135,-39.768291923512415,-43.6076919554108,-36.02160428953381,-35.79553393766898,-42.86327408301584,-35.41100002534762,-25.108354318987082,-29.187398984049775,-30.7089296681256,-26.153330199771418,-32.97313786319443,-39.14674193118559,-31.535633189159753,-30.789136225141114,-39.22499953645952,-35.308240651638584,-28.344220533547187,-32.681566163199314,-31.363033905998023,-23.239393519960775,-27.910663712901663,-34.25108122175731,-27.646951013416974,-26.354322334989092,-32.641437247955196,-26.48408710603082,-18.465480550299183,-23.388446390589667,-23.08420360950345,-14.847086302175867,-18.214006250751574,-23.173276267465827,-16.214958422948214,-15.673762730727299,-23.18767330719663,-18.478267747846054,-11.961115986663085,-17.891444774460975,-17.898703960571332,-9.243084746075972,-11.335792641476862,-14.880866261974708,-7.295512758156256,-7.1088938852982775,-15.73459176957443,-11.51425690365479,-3.265675402642895,-5.92067283561063,-2.6939502175922474,7.748924860954563,4.553576016072835,-1.7600456212661344,4.22604894411889,4.44352805125425,-3.5594526807795277,0.6615095616591296,7.091503280278061,1.3869767222482197,1.9180252210844788,10.630718643119533,7.097737160119106,2.062562198496264,10.33104650381904,13.14249342244077,7.190272743413933,12.13425781492852,18.410429845005325,12.481284429001548,12.785656468496242,21.32190493239095,17.377433344405127,11.095610838217683,17.876504819833492,19.705381722520503,12.596301184293669,15.760903677689402,20.413287435795684,13.518745281331238,13.640889234894688,22.989549390176446,19.888129977165427,12.838007467853831,17.43416825470248,17.578406344237763,10.517558235940651,14.944302708678958,20.427848240715857,12.854534702375386,11.701618621694529,21.18312997994064,20.702656992529693,17.7361335471483,25.008112256808804,24.31827119426923,14.405130879301575,17.477228524371736,24.541973621697924,20.04987283440933,20.96074268382295,29.31896613554073,24.407769718604655,16.219330901116642,20.61763823787647,20.81802174878504,14.115641592628432,19.7779400541747,27.0017502175282,20.09426688772396,17.341940243289038,23.276274883645176,18.683973386115397,12.848166660275453,19.680014317818628,20.7778451056408,14.697977254636024,24.571760622363872,42.3397588042247,52.72043177364466,72.54641528438874,103.17464187694183,121.68930751449643,134.55369149489982,153.73693562820353,158.19617416689084,144.62661709234024,138.70361311622142,136.42371628480402,123.39531413723682,116.09124057395023,116.43717101692167,102.64572495234245,84.5592332182943,79.8247616257641,71.56665582401214,55.74543777869611,52.45611229027562,52.20487966381934,38.839924599185764,29.58971019631982,28.97123440818445,17.843922911869548,4.889034403780711,4.516381815220003,-0.9405083767271689,-14.716377565305917,-15.78592096352159,-12.847330693968042,-23.19702103405911,-31.148355331184106,-31.597054321331818,-42.45493302262832,-53.73477468240178,-50.12505259406158,-51.223671155448905,-63.14902514007003,-65.22876642371301,-63.89021490203015,-72.32798630879839,-72.59607958242691,-62.516787770649046,-64.48273018500143,-70.93868092889842,-66.71088097364174,-68.38043730228532,-78.640003609763,-77.03881266841816,-72.12244081211459,-78.73270672818482,-80.27534284892606,-74.19445488034125,-79.83611904142475,-86.57061248789856,-78.47302225720054,-73.74774124444038,-78.44327509615279,-74.80650611300622,-70.8448342494911,-78.32810022906351,-77.16699681418193,-63.85586219941606,-61.75009454036744,-65.01526524363992,-57.93250544234297,-56.43363090977132,-64.10816469478934,-60.20508754894787,-52.76067957013383,-57.73025105785662,-57.58626518577055,-47.092235031447174,-47.106299093615384,-51.048007282817125,-43.800174775908545,-42.304127731492386,-50.19284829482592,-45.45534938830599,-35.020995982995004,-35.32818531820712,-31.738222098217893,-22.072589692464554,-26.656629627012087,-35.669101497542854,-30.710938030123586,-26.80677695510986,-29.591970181189858,-21.54314297959977,-11.403023852661825,-14.687163944229377,-14.744583464144881,-6.796198034020174,-10.585267264966975,-17.960304917214074,-12.014744539452206,-8.611339273987564,-13.21078484353641,-6.8389542179790315,1.944440993753119,-3.4415118351673586,-5.179372857945401,2.8582812163134528,-0.21549026633979818,-6.329825101946928,2.22261957760655,8.157287947996421,5.0048392116290685,12.295004862849002,21.727290125583437,17.1810703732487,16.42790932006204,25.269565953137175,23.464331530292476,17.9036218243766,23.996734826318846,25.24998768561247,17.25053930784844,20.778118080801885,28.811348726190403,24.707077026565614,23.816292317687513,30.48864411740423,24.59123684609316,14.848694204732016,19.081621258568546,20.333842563930858,11.854339927264459,13.142792637609663,16.725417748307297,7.55403613323146,4.658808087119344,13.906146064589992,13.240578882139195,8.27880693590299,14.504841084737595,15.113107751769473,5.5715181335295085,7.706585748217951,14.937646283448933,10.431139257986391,10.824206675868563,21.960701426479876,22.612237251120224,18.68146379848379,26.285158231197943,28.945775976398608,21.890499594176624,26.796299390570276,36.045253818113764,31.082074221863806,27.898011213106237,33.31608149911271,28.8051502996506,22.89907646891787,31.542822570178696,36.024444123615986,29.381230870610384,32.495544846550665,39.53986310374447,34.380920877771494,32.96363068838545,40.28778194990678,35.97749687239829,27.59576330352261,32.11543515229609,33.30301140977345,25.458517055587457,28.18095538630192,33.746004921202015,25.870348711858885,21.654695126118074,27.073599082651466,22.297980840347694,14.929190641026869,21.388402174042678,24.385534065938764,17.519964088367487,20.9676689053988,27.65745988462806,21.58380761000833,20.985842715274263,32.18605353048932,32.82975232225979,27.81214604016869,33.37408852291972,34.18897167702503,26.744187081568402,33.19699981816891,46.33059749049424,46.8763965952878,48.42373061097197,56.54151118530838,52.039656809901544,42.625323572544275,46.55675404863683,48.726223118612964,42.18583138502782,45.83797788155192,52.694770608708964,45.97494590978637,42.35824271190963,49.18825842634069,46.47769143215935,39.36184938527781,43.71583192707465,44.078325735458236,35.481997165616015,39.15724579645034,48.40394621521438,44.950608775669686,43.80480904226982,50.745554366982574,45.64357430472391,36.22098502814912,40.287122465814704,41.17122360885959,32.27214262800544,34.03084435191949,39.13982692343612,29.95850862976509,23.51765347380143,27.15430651457254,20.310413053126375,9.338039590294835,12.34182486781487,13.553372452382963,5.550614300736219,8.731024282372825,17.191247207452506,12.51316606771925,9.621246660805182,15.2838570141031,9.457181669708909,-0.8987945069082399,2.6004816851436257,4.383656055593647,-3.3670788325378394,-2.0085458506645457,2.3560334354988326,-6.138342478075378,-10.5955157812097,-3.5295318472411954,-6.001535786864333,-14.529303026786717,-12.721374740943986,-14.987280016668452,-26.380901194484274,-24.914944370322523,-16.47267916458139,-20.378133800550007,-22.627821653811452,-16.843082687935283,-22.401376981145052,-31.928539717273217,-27.698825719429088,-25.506092644943237,-32.394730441797336,-28.783121156902496,-21.361443629884384,-28.1090859629607,-32.60167083965836,-26.350087561284333,-29.66963466622946,-37.39421843845652,-32.355185088222974,-31.280293030511835,-41.64290985541557,-41.3778236251097,-34.70067441551545,-39.58942813980789,-41.33849252535342,-33.653377631456216,-38.0015043675493,-48.17119691213594,-44.073491253757716,-40.235036049625315,-45.35642733044811,-40.83492236891892,-32.795884015631316,-38.31601178964028,-41.113409772662635,-33.93331168315946,-37.893960391701455,-47.87613857530552,-44.76657004465126,-42.02633363884642,-47.58293761066894,-43.25131127326844,-35.24134346607811,-41.028154885723424,-44.60787024433297,-37.60795815182006,-40.16757187980385,-47.206888099075506,-40.707621964051846,-36.24702871393361,-42.258010688456665,-39.201279915047856,-32.872010306395154,-40.2833287398012,-43.95204781407844,-35.66326912836202,-36.826475008957004,-42.644537660583076,-35.956787066732176,-33.4383609292061,-42.10896637836482,-39.78111591100819,-31.506359181711634,-35.80803569583706,-37.522925576093066,-29.697822045266662,-33.23774752756746,-41.64858836339924,-35.25865713617205,-29.65924008655575,-34.28838152981156,-29.961720107313898,-21.984395118753188,-27.26608431618862,-28.517024038967932,-17.42592403637427,-16.53594468160083,-23.035690646784225,-18.721240411246963,-16.492632953474654,-22.33285640578195,-16.54715108388613,-6.389844165005639,-11.494764024971586,-15.911650935053634,-9.430415717553126,-11.295413595915772,-16.891415153504262,-9.021197852917233,-4.408079178485512,-12.160186265980338,-11.399444741815842,-5.809075971316002,-12.160916174309982,-13.760393747642507,-2.9272502705126593,-2.8139116137939135,-10.137984784468767,-5.516554286509743,-2.15277178922444,-7.071277066950948,-0.3354937122110595,11.713765935686519,9.721349360146624,8.462762727058978,16.411609746441908,13.717961232863313,5.31855789801015,9.885690208021336,13.587929688501214,8.898677643130082,15.235739428108078,26.453290755198136,23.013811386454293,19.140601780574215,24.33571209662928,20.457511639841904,12.623344289968149,18.280706333614376,21.30561063482667,12.253300491362353,12.096159703834738,18.500548933503346,13.975421645327682,12.211514841161291,20.288802828501858,17.28753954634325,7.621370682858998,10.329025596270547,11.640083240574208,3.127059060899564,4.499913480256043,12.297866551724175,9.229207756634347,8.999750848266673,18.429973343198274,16.002530380456847,5.746132439943807,7.812414822316332,9.428418452801349,2.0603536759902212,4.679062632911032,11.938844945326187,5.662830886847838,1.3817507847392667,8.010308501985513,5.164128796557449,-3.2066547163708217,1.7453099137819645,6.394277784034173,1.6575453418494686,6.061520822015831,14.628651526500017,8.983568319901144,4.199598980597121,10.194922315008926,7.768839464968963,1.02161596390986,8.852767675519152,17.998613294207622,19.905343185714784,34.44934274545384,58.152144091229914,72.02424925008114,89.15763779206328,117.68202078547972,134.56012110483303,138.4614939041429,145.30296380378155,141.79605186938167,122.7384579437612,114.87630033084663,119.42417794795334,115.42049264962678,110.54759155205566,110.94593697536783,98.83442451321899,81.34392256750333,78.5852289786106,75.33935453226303,59.90870015994831,50.570224154347294,45.79742542702274,30.856305842541815,19.320878197899734,16.848236894498392,3.3980620523304848,-15.604198933777372,-21.143741326838047,-26.616663577320892,-40.70341589630374,-44.96584053619459,-44.26534370182626,-56.87262994518507,-68.14664190334734,-68.19157346077088,-76.01994824230577,-87.86513982490386,-85.33207311090652,-83.09985867739931,-91.4243765632755,-90.61885767111154,-83.65670393380994,-88.98312009516609,-92.75908544584581,-85.91878456775402,-88.66233571190982,-97.77029035148033,-94.24464301137567,-91.14568599615939,-97.46344941250503,-93.94222656535587,-84.66782139257045,-88.8509084526613,-92.44099809876968,-84.90945755179337,-85.47716662165004,-91.63917848281676,-85.71196603726992,-81.3881494777632,-87.26651003694778,-83.09481562749052,-71.94239537155092,-73.04622713214799,-73.88429027656608,-64.88307244428702,-64.34343377113903,-68.32473990135662,-58.91861760788288,-51.16161764358358,-54.98703988642753,-50.72791186839913,-41.49371637190693,-45.147940031224365,-47.526051202660014,-39.17608616291253,-38.879862918678285,-42.21071559790437,-30.855249783037433,-20.164079315253836,-20.9033171980585,-14.19245815837441,-3.4591518669281704,-6.427832924811804,-8.468746083073183,0.09812488840519773,-0.06855089300089245,-5.59322018339235,1.7068383741987994,7.825394148163408,2.9944294378225615,6.37969940531101,15.262642633375814,11.787339111825553,9.821398433160665,19.4454088595884,20.953989050546625,16.236977315351496,23.43230335784255,29.01842774568781,23.66293661863967,27.663034119710435,37.576003362020444,33.228281939538654,28.571550072008282,35.55762587272479,35.40339450314839,29.93548550889981,36.836227189582864,41.76666007580248,34.9142251922276,37.58888494417896,47.71499081818335,44.709271188373336,40.92183184518605,47.138728893059024,44.53150728173846,36.27685533816188,41.38089084993829,45.11702869057728,36.258595665467084,34.9714003825394,39.413776111724324,31.300120426451528,25.3681497147671,32.06913078846334,30.479356114162464,22.226102484427248,26.131014760273825,29.071303561541644,20.853531331717974,20.72216682415156,26.879994469742652,21.443452959762567,17.811261973633506,26.33358208846006,27.54817042764489,22.457814755468235,28.415427552399688,32.3405511350594,24.075151233259753,22.750102704196514,27.557310087822227,21.683694744389975,18.18931999359444,25.95076024236628,24.50947822616698,15.824664718717482,19.51398763810516,23.95784673739114,18.9184316503015,22.165975281853914,30.477717699244344,25.02948063138725,19.431324360660284,25.113462733344427,22.840279870506674,13.941697314231122,17.55244761699522,21.311048746941974,14.359253863575423,15.641153727360368,22.894706717194964,16.76578836394387,10.915337716356934,17.056280589595342,15.390374915775272,7.3188180806401535,12.475641145970632,18.062128854574652,13.057423151032497,17.00163428731382,27.709672028072085,25.500138024125604,23.6891154268567,33.42985602801758,34.444018267856315,27.758659216007302,32.815839390338404,37.559237251573286,32.13575397367514,36.65849761737074,49.15559775635281,48.92238864132647,46.55256708697695,52.21947812586899,48.01179341779619,37.31335799473756,40.44832859083541,44.830342319318575,37.72452975961086,37.047075178689866,42.39192181019217,36.014141531634394,30.632381108883948,37.091691723001084,36.021600071663855,28.798165060620427,34.727685821661396,40.515491882311615,33.501268586177815,32.447370436725066,36.8590154880211,29.104861021112452,23.1126114265785,29.58289588200582,27.690190392982903,18.346450768152103,21.48207889185914,24.709566385536533,15.914176668741614,14.096728851143393,19.11414124976896,12.649132802007786,7.376033909172399,14.19556335667464,12.597125769052141,3.068759441902743,6.392122827858468,11.736529299647156,6.813258534323477,8.627305862977455,15.159887947432885,7.950354281095456,0.8846839204510311,5.925585533305696,3.0579915329831917,-6.907913141554771,-3.6318263245630513,1.1243756388058026,-4.3420113700151255,-1.8187959221697994,5.928784170050134,-0.6443828932311533,-7.081234366850436,-1.0830659551330983,-3.5390271636616486,-14.491794159643172,-13.701087789571758,-11.980003834916053,-19.599497890255208,-17.356622327994028,-8.107001848561797,-12.943602183256086,-19.116726218923297,-13.724289595744601,-15.150777631202528,-23.125273009910078,-19.565822891469807,-16.612583141805707,-25.12524177861363,-25.402452190168873,-17.662467891535613,-21.72235893269549,-26.908963674354318,-22.41198406062543,-26.295600266186014,-35.49810701416343,-29.21020412640731,-20.812194692099297,-24.973435648112787,-24.279761355718428,-18.82140775880889,-26.3556687644459,-33.22322824907812,-27.622145702557738,-30.187829642281173,-40.63387142204129,-37.588687445720325,-31.785459171638735,-36.24713372460709,-33.53873126068822,-24.612510414758653,-28.984265638117748,-34.4434893475378,-28.49283159265378,-30.316611206959568,-39.62591134681665,-35.76127378415207,-29.776384138911848,-34.454352070960006,-31.542527510430418,-21.701831072214077,-24.9658308242813,-28.920420213297778,-20.709333475082758,-20.394688203257402,-28.689731045699485,-25.333614528120343,-21.233231396353695,-28.063198932355398,-26.62835828557958,-17.703948502972878,-21.620038458478984,-26.711154081909825,-20.55828985017063,-21.836773439692728,-30.505402293762483,-27.343116237914384,-23.75204582431482,-31.2709569714051,-30.604626073487605,-21.94005836929285,-25.190857916043193,-29.035312265009562,-21.9394022657218,-23.73503656966058,-33.94108301527547,-31.33328037092288,-26.678469153101776,-32.14873795854332,-29.223177660667762,-19.374246629705745,-23.152801586742097,-28.39126115060793,-22.22758638619773,-23.585723847770808,-32.39750763988675,-28.456139833823528,-22.75543945021107,-27.99310112663525,-25.995953673645577,-17.090118702951543,-21.164330570508536,-26.568737028929775,-20.617297571267102,-22.022229522633676,-30.513626853583965,-25.88899360790913,-19.66689423146309,-24.7766347702613,-22.736050545502813,-13.85807647213695,-17.944161370723254,-23.046150212313417,-16.50679895421265,-16.96885109664193,-23.980981969419403,-17.634059283483722,-9.939019168199929,-14.314938227717118,-12.528990040639657,-4.287602294822904,-8.630398771512375,-13.483987319236274,-6.6073152768175785,-7.392452739308778,-15.786551690721712,-11.516512869815603,-5.422727742411753,-9.842023794287575,-6.989200398759211,2.3046511252872697,-1.797516717948458,-7.737167527572062,-2.4769280672179135,-4.108346118472314,-12.454929894971087,-7.224713184750589,0.5432080751874095,-2.7748493021872993,0.15618631969364483,9.319908078612869,4.892808483437417,-2.0873305358823533,2.1763057782965265,0.5914165957920456,-6.7515536275923695,0.2875492250449261,9.379642305230423,4.693279148287176,4.207502750293331,10.309311185889747,4.663175633478437,-0.7195215903041059,6.721934066843792,6.813434191215677,-1.6196729219711048,2.055923453048945,7.3322035574139095,1.3639383977955228,3.026227072725538,12.779231120267411,9.655403233408101,3.99705347643302,9.289375055514622,8.092665150266214,0.9815722095405093,8.112630446108637,16.88261607725193,12.255325394044949,12.637756603335498,20.02578396490606,15.15399240614709,9.007101939678652,14.854599060235468,13.842184734867388,4.8360285482259044,8.894296817778006,16.23758298826283,12.810485636941806,15.530371759014788,24.250044977500217,18.844266853795677,11.711069581464578,17.976232583860256,19.339890727641382,13.824632063792613,19.66928388987847,24.66986877908729,16.173126899015507,14.000607207255843,19.95160046694771,15.438949970800232,12.196582030594767,22.030814064690883,24.23190133671715,16.94734172707781,20.525562996137737,25.51796969706337,19.559430010987313,20.210241715143255,27.346209598832946,21.37088701599547,14.687725677600552,22.110720651414542,24.800438547682546,20.524512481266463,30.183057381764215,44.741058433093485,51.565012188829485,70.14401091632429,100.08541845675289,115.63537285198498,123.63030879752105,136.9870973625551,136.65243724347013,122.68103406280696,118.53348089011092,114.78187654893307,97.20737142132722,84.958454827498,80.90070179368948,65.63557891099461,50.34359323434525,49.30128955321072,43.46780874901675,29.91661224462254,28.296338864418534,28.562608668140676,17.314032925377013,13.775640234962664,19.96524915323093,14.502774468162524,6.550697754323558,9.71365680919559,5.488524249719075,-7.995640638983019,-10.018852476293127,-10.062449986643774,-21.581219541526714,-25.767092166771615,-20.632732393964396,-27.327994962590967,-36.80606006909146,-34.887865500772634,-38.74198336903719,-49.86604621808688,-48.067756477064314,-42.685398324219854,-47.744184618758986,-47.34098884179493,-41.054347405218024,-47.94874005378507,-56.69374479450551,-51.99969022975661,-50.79140597062219,-57.31549309124339,-54.950105715124536,-52.678156984563714,-61.09192642431707,-61.40313868203265,-53.46188636060485,-59.25471333673241,-69.45188106073037,-68.23933405474651,-69.91314495358529,-75.45060305305563,-67.62032924359039,-58.59723600637033,-63.12454260847963,-62.78494960328523,-53.40273565428362,-54.32824895528703,-56.84947759386836,-47.25933216099955,-44.035932732127705,-50.39011590400884,-46.041923854840185,-39.85956820464521,-45.67466883539228,-45.71496512526992,-38.002322719574444,-42.642873740800546,-49.660384204593605,-44.82866109583295,-45.55855996005357,-53.44185213438078,-48.63882646552469,-40.88959983324857,-43.91430107886473,-40.40680282946817,-29.287603936756504,-30.90322215509889,-34.78346943413445,-26.056005538011213,-22.575181391504067,-27.17568311983457,-20.666027886507905,-13.353912760288694,-18.978084646143195,-18.277345171700667,-8.612156885404742,-11.897541092082353,-19.691245440359406,-15.87641603574349,-15.373068621947354,-19.6385158840377,-9.832244671070702,1.9742101214185737,-1.4600817071061618,-2.98145956092871,2.9438191367688096,-1.3822531424240063,-6.9014530764993065,0.658416312440147,3.9789458270642486,-0.5464271904150451,5.610237522769602,12.64869467017168,7.15658805792893,7.816819435317108,17.15300328016696,14.318352915789625,7.470478883579939,10.142953628392112,6.048285790468196,-4.912477097516464,-2.144261842275601,3.3016938497167034,-4.710594788988324,-8.276822767126362,-2.623757641359499,-6.05564884007458,-9.202611610902117,0.6204088661366818,3.5262246372930974,-3.4374302822526936,1.6296319760190583,10.644916216707914,8.164028211013008,10.118825862331882,19.073077016240703,16.11314739787368,11.576939243472578,20.010375407666885,22.481841087189306,14.672240346551142,17.125780666974478,22.694140843122593,17.387406512428438,17.56225583076078,25.82793617561184,22.67097190458324,17.055429437543953,23.989256918994574,27.188603076777035,23.436894582877002,31.525393262307272,41.21641132715143,36.39559182637392,34.5092844370226,40.85140911385823,37.1790832398912,32.27251777085612,39.3148396372228,39.438879073097404,30.120605164574233,34.064662695376654,43.11118175037959,39.42796797273225,37.69738063792215,42.199908922646145,35.6596446931096,28.64765283752706,36.07935943029683,39.150405547834424,31.949396786946387,33.67532765176524,37.77477213922892,31.14474649919287,31.488043571493286,42.640050970635556,43.202974879563904,39.042760827921484,43.77813660563108,41.12490125615057,30.39908423466175,34.41485147645743,44.381314484646225,42.80576498465874,44.65301139779659,52.59705917967433,47.33329182042635,39.05877407069242,43.872761464957115,45.18374978964753,39.91468368012501,47.55845150949225,57.65652618406065,53.39216786629524,51.44320388974793,56.753936536271844,51.74418316656016,46.354170590398795,54.8020429583616,57.564787328282925,49.13966788477447,50.31568402338726,54.665881467104235,47.90412842991804,47.00368644163595,54.99557853727391,50.37631191649167,40.95097313060355,42.60730042353069,38.87244822704059,26.419300329267433,26.702546047334234,32.52492907992165,28.104931356113614,28.77350516378258,36.514805460250784,30.613046538902147,20.46502021873078,22.667647555658398,21.0380995858542,11.913871992205006,15.388632385013889,22.989742728625373,18.048148633485276,15.735993904218859,19.80900964629764,11.726274628702942,1.6836934867782078,6.215096831011041,7.532469938368277,-0.8763195880738404,-0.05565212893977822,3.164691991807964,-5.539691564729444,-9.413814031485082,-4.300088888472228,-10.32690792196045,-19.31837858035967,-15.177391801639267,-15.09789270785702,-24.04843015703607,-21.51224078914897,-15.0141445795039,-20.338349034687234,-21.04401407334061,-13.583429357866777,-18.735452501924897,-27.65986567678224,-23.02169408909667,-21.32531922177115,-28.00032551496201,-23.787951365469496,-17.343356269331927,-24.29421462644109,-26.310592186102983,-18.4113027417526,-22.06586273056064,-30.341947707977614,-27.38629190131546,-29.244198767068482,-39.74164652962543,-38.192568563834655,-32.033475733314084,-37.67814142703617,-38.77866977349379,-30.15333853218491,-32.69316288938487,-39.928774137149595,-35.6638617277322,-35.54574378610561,-43.497593323850516,-39.40508930625372,-31.836967179324713,-37.24811260085393,-39.5463153035695,-34.264418815231515,-40.050456424720764,-47.986539618336884,-42.787587080041334,-41.757328923982506,-49.74742439182254,-46.738203597090674,-40.071072864457285,-44.8184895949396,-44.22267481231861,-34.70388238042848,-37.469170425008556,-44.75797931105785,-39.90426806917002,-38.717271293755324,-45.11978553033554,-38.642210242592576,-28.096088722538724,-31.27852143055675,-32.09685654841939,-25.44051810681357,-31.149518570741073,-40.641434261876725,-36.93088133507128,-36.1208589466939,-42.760840010173524,-36.70363401400128,-26.19568746348675,-28.98071081893591,-30.07611015559759,-24.44242114323819,-30.645438559202603,-39.50129523940289,-34.22902438679111,-31.25676250070086,-36.11341144294559,-30.35537989999396,-22.77317050583924,-29.207463641102557,-32.152439886218644,-25.224732783488903,-27.0336824928303,-29.826163794115015,-18.898115655044414,-12.927217089069119,-18.858673474288285,-16.696324337636018,-12.173667988982015,-19.74268090012315,-21.74072095039007,-12.486568820381594,-13.18631810619561,-18.34356188750411,-12.202684181779006,-10.336268964434279,-17.286580018484983,-13.043154024557063,-5.499569231022868,-10.982939071876157,-12.875271749058335,-5.880880169698904,-9.250592827677488,-15.087220762622719,-8.00194693026441,-4.966727275597788,-11.140846579020398,-6.848733364706992,0.24433786980141248,-5.6245016027620585,-7.3415762954687125,0.5399471266470157,-2.1652801344853,-8.259870897303104,-1.7442851469226852,0.6295138370326544,-6.386787299286372,-1.7666675102788196,7.873972148821533,5.3498872322027236,5.7989606998508965,13.776779730599072,9.240465348150254,1.5716771836894505,9.062399050416854,13.830853102839832,7.667106405865712,10.14293573811891,15.744250473354963,10.403619878621829,11.941691576395522,24.408772934793763,23.816983385056133,15.321555394662514,17.30946475625454,16.72554000198077,9.808665674633982,15.76222762005281,24.486526940681415,17.379238624595928,11.807872035698622,16.655873999565575,14.151730782503233,10.235547705984395,18.114710867915203,19.64090332293052,9.861550036626376,10.74642603983802,16.79965779735755,11.597813609130666,10.355734073529806,18.045439033445685,14.798765953896796,8.13351424574844,14.554278061084883,17.3211448060118,10.381848302352715,13.429855850581486,19.115880089550846,11.160846852863994,6.588566431458833,11.629244716545331,6.043145020970147,-2.8427702904063588,2.642290505462959,6.209707621661062,0.9587519232086765,6.319916090542596,14.573964495789989,8.105771245282,3.6022298624851627,8.801349187101371,5.089294625614846,-0.32434791617021763,8.540473922611639,13.498736453571723,6.515219288355393,8.104040380083896,14.167938951492546,9.541504390179076,8.938172026188491,16.197683001530205,10.944316937257579,1.4332835870113216,6.03486265461285,8.558251805627998,1.3191287955223334,3.7519696167202836,10.36993069189581,5.697626187152364,5.777387447878589,14.921192721914746,11.196658827157773,2.292546774534326,7.31312837365944,10.091712628857344,3.142491852187362,6.15183148170151,12.726156838151773,7.231776679138968,6.8227177821427825,16.079604654987296,12.138778745163123,1.0656726820030946,1.3225877949680311,-0.6665480697253386,-8.939459025873743,-3.522634856282803,6.714804819070926,3.126189706841022,1.4060246819189923,8.196736086713887,4.541889584899341,-2.247586861206464,3.6951890957080047,5.419766638885476,-1.7384087024916397,4.980036935582771,19.716515629423633,24.4152189829638,33.523550099852045,51.83385865872883,59.25192515644194,64.42983304573171,85.41972816560687,103.425721499715,107.44706451277128,114.76937113410034,119.37677085487141,107.2363860773729,97.54662169929848,98.27766743296189,88.06827232256106,70.62656933897297,63.15948909859404,53.89410451680145,39.27229468525281,37.73482845973835,40.3336139693223,29.177221393494982,19.751948888059218,19.480158437683556,10.315710778201622,-1.6961644181812305,-1.310008749359843,-4.847341666714692,-18.258813493182195,-20.79862142594674,-18.904979794132412,-29.852784623762613,-36.88579176866268,-34.076906453186254,-42.990374710386575,-55.647915317701596,-53.19008621280574,-52.60577661856036,-61.32085893696047,-59.41569845286237,-53.75121172889496,-60.47086141774949,-62.11026900919856,-53.26525609781267,-56.5508488880214,-65.63141261933646,-61.69552586326982,-60.18413880192412,-68.41422420866941,-66.75939918657862,-61.42831407885164,-68.83257742982897,-71.63128829664183,-62.79564278071703,-64.07290086205671,-70.38391936642965,-64.11745471374337,-60.47282455547526,-66.18038290818325,-61.478147638847595,-52.58037527693209,-56.85954204008335,-59.17247750067231,-53.08678862994835,-57.74845074272445,-64.94086949223133,-56.40261330974968,-49.23076357289805,-52.30879649951771,-46.838236812503474,-38.71655375693222,-43.310756707354635,-43.2309568126333,-32.41626880549108,-32.204360090129136,-35.93808409289062,-26.191689266841706,-19.720216017008877,-23.76159613441975,-18.39243053425394,-9.336912995858697,-12.529946479176765,-11.69749337453592,-0.9759349252160514,-1.7138204741832703,-8.08708710351626,-2.1351409990111376,1.2664694298809525,-3.696955320097681,3.5193062926066023,15.781013399898985,14.208438638538887,13.451865147388908,20.276246686471445,16.120720489529024,8.801368633209716,15.286473519576688,18.679215282186362,11.72476676088182,14.067244279693355,20.107692749607804,14.523970274203128,13.807187795908254,23.827881700681555,23.623073874896157,18.411450262387213,24.517242656535533,26.392824612532046,18.66273046260868,22.930257305412404,32.89254133123923,29.396558088408923,26.918200721290237,32.180263201999324,25.727153077411337,14.934659855655664,17.782211539764155,18.25286515949504,9.174266861587945,10.74929400945846,17.372634743748158,11.854721242386772,9.084226561943284,15.200846830915111,10.414902266001434,1.3440098941882042,5.6395599014064945,8.011982743093622,1.7850082779322363,6.215954229812171,13.601983820705572,6.088324125265466,0.6935402368475184,5.591728253716239,1.3229251759679383,-5.338185949634545,2.8844281593808065,8.909508540108593,4.772136288364608,10.709817944818617,20.131433486909785,14.190389382007824,9.099495442800574,13.877027290077582,9.09868919294845,1.076740026569679,8.19567072242814,13.814674770763535,8.234493991448257,10.55783241543063,15.330394586266419,5.912815325970164,0.06416120270013426,6.2577795736333215,2.918610556784737,-5.541595871116122,-1.7853377584354693,-1.172003879138456,-9.389441569402312,-4.982709230432517,5.310300676674014,2.615709824202433,2.6754465838570103,13.050367436430065,12.851595958581175,6.955871426251077,12.93531184089926,16.301535660622612,11.81332513878358,20.612219395080288,34.94349002369947,33.736666346438824,31.16049595243628,36.166927236805634,31.138592477529528,23.428850403214188,30.93985686195431,37.318722480054724,34.50609236289982,42.098921342365756,52.85000879133293,47.419032206381516,41.944253650782485,46.046103781682504,41.301885177710744,34.14404976120272,41.5507555628443,46.3165551397725,40.04133947323274,42.6216221317889,48.605164541168534,40.97116189544689,36.28999921977611,43.1046505978038,40.885774072630596,33.27295249602695,36.89568185512852,36.98574236945476,27.57792655990844,30.194951045150457,39.036447268768896,34.20040407148522,29.580395886892966,33.7504083806814,28.859016490775687,21.218402059460338,27.518250902495144,30.540818569868158,21.31384602848145,20.965378388377022,26.70402786376697,21.463502474589014,19.332744619795527,26.979268433693132,24.188423265038175,16.57690530526668,21.89048485226529,24.294791647526267,15.72669305256402,16.512170070056655,21.990596881305752,14.5903410122224,8.82246722041352,11.637483051864784,3.8266763065652056,-7.1902916123123415,-1.992500409526512,4.010554065432807,0.8448938958624073,5.825206081484714,12.594437568605883,3.944184815599269,-3.1771507554253535,1.1227934500738757,-2.4272753041765354,-10.195466078717592,-6.532700414743258,-7.015240466246546,-18.171754766628347,-18.431033695969422,-12.028236266049072,-16.71879556676379,-17.968720018011943,-9.464923604806007,-12.188021188068104,-19.984551696401326,-14.374292705498117,-11.247610492287478,-18.362291571884096,-15.306077109182835,-7.9769521898466715,-14.177891527853335,-16.98769059194494,-8.186155326423933,-9.571642741847423,-16.883833034254053,-11.998729931409997,-10.268488890961207,-19.129462894548073,-17.146224626392723,-9.09510631624868,-13.661611468733243,-16.471186011810683,-10.637853744090778,-16.897821454582107,-29.11687823155127,-27.32385409124119,-25.6844703893082,-33.183034708656805,-31.504695790721776,-26.118513706969456,-33.98464255106794,-38.52053873451703,-30.61810921712815,-30.761562042548658,-35.842016214357635,-29.629605752063394,-27.83970542533713,-38.05473056758161,-38.82494274219478,-33.172277972535085,-37.82176688310439,-38.065792143936335,-27.628543430394853,-28.910014253934452,-38.46879036086412,-37.739947109207726,-39.20799279667918,-48.12583827240735,-43.793997346675724,-33.374250007152966,-37.81682702526019,-42.485045904020026,-36.835242919723015,-38.33121712695722,-41.648347627944496,-30.608727911359466,-22.830638051392306,-28.108604673661123,-26.07649707595671,-20.100520223351857,-26.95050386382288,-30.25268537290579,-21.192353448402432,-21.385951111192213,-28.30835514084609,-24.55718030215096,-23.617414017881252,-31.39805482661718,-27.079190821887977,-17.133119142406514,-21.90852803949826,-26.63584390125353,-21.33334639754446,-24.840404980827188,-32.688288650542034,-27.44695912672706,-24.43285035643959,-31.895480203761455,-29.11929692677248,-20.401301940022034,-24.46889522446715,-26.286295793768147,-16.597570727129018,-16.138534194563505,-21.70562327903415,-15.165596866011855,-10.773686218553644,-16.426684151063718,-11.581030884672046,-1.4475442734091426,-5.871890713341813,-9.965119961117793,-3.809795897570244,-7.390952736537436,-16.714825100152073,-13.259840018278837,-11.391440403627133,-18.82308816814287,-14.828291133197357,-4.829543827920159,-8.880103953481587,-12.38469492853041,-5.086483304196691,-5.778013815793571,-10.58514246777428,-2.843881440189914,