2.7245574225472993,14.964800059433028,38.20149560896859,64.42137900509952,84.74582773739718,90.9794463971857,80.62929183482257,65.72258674273637,58.347685706744684,57.13234474185967,57.6419930708187,57.2194804022351,51.8467972807841,43.489593345691084,38.71214855817273,36.03724886564446,31.245541227389374,27.047971617718115,24.094955689336896,18.69389872194124,13.104813219833343,10.255577546581623,6.125088679744481,0.5298135822351879,-1.3797810151791263,-1.7299159196797413,-4.264749023274317,-5.401420298330749,-5.335538296685537,-8.904199733652662,-12.757661247542735,-12.55515567710247,-12.778381410093624,-14.940866476051328,-14.919528827707168,-15.00323667274704,-17.903028045646085,-18.39851994553142,-15.5860900097748,-14.918672369376482,-15.211767168202837,-13.974186044338499,-15.681366736178019,-19.856935272694372,-19.74565024508166,-16.930143050273177,-16.38709968814618,-15.308771134723244,-13.148788233901929,-14.645280101560449,-16.840672214943687,-14.950898082260933,-13.52674620309533,-14.44067092119454,-13.134328825840974,-12.346192711433638,-15.707176728429017,-16.96845296570267,-14.025738963921704,-13.01261404116745,-13.552662600191235,-13.332993430354772,-16.793659018601126,-22.653310307480016,-23.982521686064775,-24.13858267260577,-28.652190203805812,-32.32560634467034,-32.77475876056023,-34.49979488328615,-34.84044001725255,-31.262627074638743,-30.723505888950342,-33.94082637596284,-33.36173133644815,-30.4194846397789,-29.837729530032625,-27.933756365446825,-24.667802621089518,-25.930633797608625,-28.99859062146691,-29.116572431253964,-30.75157403805671,-34.9465959061266,-36.16214467419326,-36.87777989994598,-41.21023153733664,-43.69566139155303,-42.265792618090764,-41.22788565828772,-38.072978175613194,-31.05192530658966,-27.39939366582557,-28.347935350395947,-27.80201842514223,-27.32533803584511,-29.699731496423603,-29.238017605920646,-24.71657022601122,-21.90504888691363,-19.667392489864973,-16.4081465280786,-18.50060633508569,-24.758084627123765,-25.850263606331893,-22.76714892159262,-20.945179872003337,-18.26062150926728,-15.678654958024957,-17.623101623298844,-18.7778079120621,-14.072858660472061,-10.035979644348979,-9.930936079257302,-8.989651183257097,-8.27989345249523,-10.469560940182028,-10.584512711605191,-8.133110335163394,-9.488284167596287,-12.084254454667226,-9.585490815461137,-5.219845084571151,-1.660461917245779,3.0325372287366905,4.041714948748644,-2.220183329429548,-7.770777887494872,-7.847874562439399,-6.596784314044038,-3.6378979889854035,1.8982608023457987,3.5845146121874474,1.5485232719275897,3.1503750685006215,6.160358881445654,5.849381065174155,6.624949935849728,9.070651109910903,7.8956475302723845,5.889175346122579,6.540795088630645,4.632328750378625,0.21177398027029226,0.2684951025895682,3.01240459283382,3.6904549954240715,5.586649556634088,8.558418249130991,7.261344008995517,5.1494780594517255,6.538247025861812,5.588123199882697,1.4276975250414539,1.1698873368749236,3.5666769788117123,4.928595826885921,9.074467847559687,14.328952736877419,13.531636374719174,10.592624082332316,12.289400285547226,14.344610272920743,14.4224401764054,16.624775695913357,17.220891976744436,12.759171582600818,11.118087179493918,13.705672989537895,12.567900385485533,10.000334073783765,11.09537965555645,10.941892838744337,9.780235026906897,13.838384344525732,18.400925835389618,18.503046703331968,20.91334886708853,26.388565279194548,27.012901879190238,24.75379052417549,24.51987389795284,22.198386468482504,19.071368900062662,22.32752352792674,27.342950291513418,27.54554772233791,28.27342118553277,30.43405295160029,27.17470337812645,22.222061551918443,21.744322019256682,20.632075063343297,18.308084322085186,21.538104117395047,25.919052972199147,25.181823745635207,25.728280216870964,28.740693582732987,26.23708293220901,21.25841579513211,19.566927928470665,15.640180889618552,10.485086727798985,13.480339882423678,20.616530852221157,24.093701046331592,28.70229679365847,34.3320908772533,33.06602482527257,30.391640642909913,33.785086083368334,35.119119356558855,30.94167941164922,28.66793481704009,25.993772030031323,19.411245652069386,17.60654013518827,21.50413472399536,21.49795777802321,19.547552029232225,20.66607267240033,18.033899271981305,10.702514773120551,7.1669431416553255,5.433837830913726,1.6566892858709834,3.2843394976886287,9.292416485516688,8.499560785567063,3.854272806779057,3.140997927073006,1.1399152052500416,-2.7886749038083245,-1.2363456993036304,0.35697590628564224,-4.3452601155634065,-5.5040849538539245,0.526140655828526,4.21186417409952,6.381435960383009,11.47426740643332,11.373870327472428,4.762325286158976,1.9469160714406202,1.1262547516069807,-3.654910629954986,-4.469134500558888,1.1194071481388983,3.387184454748076,3.6129190689624022,7.130662090235156,6.923089050114251,2.9851843333922305,6.02505149320019,13.024611016430383,15.906897521499356,19.759593578283337,24.265115870507866,19.85396564385537,12.109004327328613,10.919175773187284,9.812684733741385,6.2433316383525455,7.416172988882624,7.410558809449206,-0.4464754296873821,-5.478252023775621,-4.058991798468886,-6.05559504138848,-8.84993918941202,-5.636824647210278,-3.6107373989141642,-4.2836351027821395,0.3157799176378684,3.9793746709002042,-1.309097897532185,-6.158486653007564,-6.678730261591249,-10.659403092502796,-13.340994080362224,-8.346241494285238,-5.426628125494011,-7.451801392696886,-5.547432535091743,-4.101468508979071,-9.495362352774734,-12.305617806454483,-11.034727189941812,-15.884946175325046,-21.697762353554346,-20.032326542120586,-19.313597476771005,-22.075683869064342,-19.601651934866403,-16.451716916300928,-19.09489229885509,-18.349721284604726,-12.471689464990932,-11.459104371994268,-11.758590440532082,-7.068997944007113,-6.0717376089087205,-10.094972230343238,-8.902072794278993,-6.31154468872851,-9.950758841020159,-12.32425846616581,-11.558881460854817,-15.603730001265221,-18.279727522486635,-12.155889627033316,-7.771566687492503,-9.069291755143784,-6.4170072195209995,-3.1828918525952368,-6.153514809239234,-6.374856831356503,-2.264557034024399,-4.262034347527559,-7.791082655397728,-5.137917432256,-5.092649640060331,-8.802777366341681,-5.498119517893178,-0.29016385373666487,-2.0449990105788873,-2.63519814709489,-0.13254663031568215,-3.602749028367197,-7.1255703019220755,-3.3310007864504105,-3.321967031841643,-10.321197626354325,-12.718018446279395,-11.352329799455688,-10.21544420322154,-0.3100192722377333,15.1816948601932,18.949355068295223,12.28253565975838,6.401605688107324,-1.0645319619959743,-7.8763478967917,-5.016368713966321,-1.9587353874613458,-8.944391038108758,-14.50482950284778,-13.555893388584648,-15.774992655258114,-18.113825060585896,-15.376088730753484,-17.366166693652595,-22.889550294521538,-18.438255990872165,-9.606466698702267,-7.380737792541595,-5.060112311713587,-2.1613749469132344,-8.238267101765194,-15.36937813243813,-14.605901582950818,-17.560454549116656,-26.646739127647166,-28.41329711253049,-25.04332084161506,-22.768066765646413,-12.49852153745714,2.1367366008083613,4.147758719997379,-1.7675811782158934,-3.278551597265696,-5.20367192768858,-6.383532570112752,1.9346283649449658,8.090087898926205,-0.090304823066512,-10.247109269677468,-13.894126678445154,-16.169351234961116,-11.10408112377598,4.25048571966271,12.814719351572961,9.66983821285493,8.644679880268486,9.274057092004941,6.4511868039126705,10.10050872704024,18.406221471942334,16.122749462320243,8.824594987751476,8.799255550903364,8.831289406887414,6.5719739601117935,10.568932773413815,13.007507689062042,6.065690262905561,3.0859875556980385,7.3751409634172935,5.462058672184613,0.6106795708122907,2.285082106805766,3.1929205248192383,2.821348900450576,10.42601720624522,16.33388370760913,10.054852211874273,4.719325760295537,6.356489222168134,4.505456312970342,3.0123924480639537,7.684754683954119,6.097238165485877,-2.222103511934724,-2.195439154982619,1.9326664217592,0.19028796406455384,1.3419408454582205,5.643784604815393,0.4053395078737627,-7.1763318955733,-5.750279129376352,-4.784218127803516,-5.923301635186805,2.1558911211344305,11.736261084209909,11.236700534819324,9.497159081020726,9.021044193551159,0.7930494913468085,-6.151871232987075,-1.8323847121256316,1.1071740500842615,-1.7525540640020092,0.6829022772086812,3.8004819430008694,1.2149914273743838,4.8272374848566475,14.512717101805247,15.146351749759798,10.709476851558966,10.442629863579587,5.860108047243472,-1.835916410905356,1.6781196098450586,10.161640319762821,11.363523475823179,12.972542213012904,15.756793458559535,7.988707933604575,-2.2748309202381836,-2.8050800816997326,-3.7452877352328384,-9.119069327557598,-8.308107673405056,-7.179096115471034,-14.212176763012614,-17.24797471676245,-13.03911305070723,-13.679925294346162,-14.453897788364397,-7.601752684275926,-4.7452680263482385,-8.25987221732501,-6.083994743530047,-3.047571746946665,-7.258535532436733,-8.641566648063797,-5.932030675317783,-10.320622339856808,-15.519971064891768,-12.685893480777949,-12.521472914023173,-17.882725985144447,-17.588219706097654,-16.05956562090436,-20.660184465812556,-21.094487765647877,-16.548934496602712,-19.388520356831286,-23.990213814205283,-20.354088182025173,-16.960424619336262,-15.86258517032503,-7.689633097353272,-0.7060561178921263,-5.706090378385702,-10.541282095653969,-8.023455383390479,-6.554299544852648,-1.9650665904480364,9.654218740736303,12.741493316592585,4.218979457214329,-0.3668110945822977,-2.090359267796969,-8.36557836065738,-9.773850805490618,-5.745022730985903,-7.583281163493438,-7.603443564904689,2.6345866180176536,9.180295750830199,7.612166860138213,9.626657127919156,10.864054248674863,3.9494274141836545,0.4318430831850724,3.555725341795694,3.0376789845311523,4.763901024094614,15.715246393304731,21.695606584508237,17.53056052945781,15.910594130543178,15.694951811475246,10.680136899226486,10.302746277577466,14.504807577955654,10.526524899837009,4.483391694735868,6.0250599545948615,4.462801249692156,-1.9626934661553155,-0.5202947039972854,3.1087944175882614,-0.1999371330843318,0.5646717607027275,6.716152533794009,4.708620668236938,-0.4073015728863454,1.0068459599726591,0.3429587986086121,-1.8463677928635875,6.481287295332189,16.651606577120347,15.75450476187506,12.670282440845813,12.06941296035397,6.374998866179428,2.392085131751066,6.64347811558185,6.612105549802957,1.3913937365915068,4.748064600936467,11.364846264813231,11.112978689053525,12.562030699010883,16.74054699463955,13.058925568369045,8.640984764089062,12.370110939574378,12.627213464041018,6.432138681935245,6.176559115123906,8.229075412160961,5.393803721460715,8.396232870967227,17.261842729437536,17.34334556334538,12.754944329248904,12.64159289843496,8.516342014244824,1.247199865303747,3.5487384631871928,8.280684418698883,4.888735535129754,3.5615376622695765,6.862612242823691,3.413583654542244,-1.0498690410503535,1.9962454537206917,1.1905103322313195,-5.317685572485367,-4.373525069569821,-0.18301429884460507,-0.7794895411196019,3.204719560908906,10.578650777668008,7.466817245350619,-0.37967436202916405,-2.565787840865995,-6.511389035649392,-11.84310901675208,-8.020321547086064,-2.7964585710352288,-4.907529721763518,-3.3228592775200125,3.431537534872512,3.183561110709184,0.8306552329852626,4.091214346586926,3.018667972483284,-2.4412137600377415,0.27523904679912503,5.575903462506073,4.621808474807831,6.632947140430759,11.823185156665682,7.955704987055057,0.38069152193306444,-2.281752975607035,-9.299976590070969,-20.360173186320708,-20.617244780039595,-13.125251287309865,-8.10426894440107,0.41100255098895255,10.410301847926128,8.449713986469325,2.0626057821787147,4.20428068858105,5.785928683855556,2.8376036928023365,5.581756510633339,8.705554338493116,4.259736982436595,3.4432384542361394,8.017765470872241,5.119971500499581,-0.31531753541720065,0.7603946869527136,-1.6287147980722354,-8.766137165236092,-8.640763079321783,-7.483394652201319,-14.349451020474792,-17.985659423593084,-15.142640717392261,-15.930807838157394,-14.486209315964434,-4.183683598523611,1.5273390954699466,-0.9823724240419531,0.9478320547790255,3.9004012953335785,-0.36206776600840174,-2.4243334286390494,-0.7988648738553688,-5.667787456233805,-9.120924669830877,-2.232148057581326,1.7556170734158287,-2.0652894181491868,-1.9758189925283944,-0.6757602820065559,-4.464192066137462,-2.975072666098317,3.3831807151388347,0.7498306582122565,-4.165237003870922,-0.4390460777774772,0.9951856813150683,-2.917900594794806,-0.4762738310529344,3.4794843462221845,1.6487098229647323,4.802336385458798,12.631837296866511,10.736769620941988,4.213858941552251,3.527636220370778,0.30576339075046377,-6.298658107007021,-4.723481526203059,-1.0815030148070102,-4.648311259149609,-5.581938089577605,-2.271850312724086,-6.678098308537443,-12.831358382419653,-9.383126261988771,-4.619329303383646,-2.5667452646067166,4.2801359524556135,7.756900043743717,-0.611136265291266,-6.552318110449034,-3.711012244580197,-3.616008474518458,-4.2175816012949054,0.6463782758294325,0.6774452390423644,-4.973139886994487,-4.119307060292492,-2.597369462513325,-9.542077342767016,-13.795954291179715,-11.761548308765104,-14.079297471737325,-14.945587793135328,-6.272832571620725,-0.36990282001445296,-0.8424685060613837,3.0713846655457795,5.723112435313729,0.16291410198687517,-0.8933551467106646,4.691388170471216,3.892784441969337,1.0829642388130953,4.343447003910001,3.5489504194728756,-1.9304532892072896,0.6822232321700419,6.188541869224543,5.573425414574157,7.551258803084893,11.649855400884535,6.1215905555365415,-1.0646820529802048,1.2281294455344307,3.4930239242760557,2.142791538870295,5.7019602025223035,7.910381962831603,2.422675098741668,1.618781377616909,7.523151825589808,7.327534099469753,4.3892842354757775,5.992709625104097,2.8443476467519724,-4.791161714380625,-3.8529525640144584,0.7998789047594796,-0.3221929783484394,0.5784297186237671,3.6247608980491055,-2.5787588041979,-11.40988896458211,-12.213725963393381,-13.540248803651611,-17.093306340957703,-11.908749745785382,-5.02375964877301,-6.838819558350882,-7.122279384836863,-3.410012394653034,-6.770455164689508,-10.982374111713536,-7.943505918264338,-9.352145221269481,-16.798794293866997,-16.80953969445997,-12.925910229817717,-12.397259493507484,-5.566606139332398,5.652036848827489,5.183536904458389,-2.9235382863084474,-6.977578919638523,-11.729133966553709,-14.876353100600458,-5.101093369499896,7.504269430806659,9.262107918900512,8.798623701747303,9.828665428197445,4.063657845038933,-0.44667482830424765,5.0275296511881935,8.089243125724899,5.217857291328057,8.122948632773971,12.390528051733915,10.715428130572493,14.888459938988639,27.438481735669505,35.1398033564904,40.983745925861925,52.405426700302726,58.45061953354164,57.193504226810816,61.94832751275786,69.18658216094477,70.33558646820599,74.00215703514344,79.32685492999924,72.58561123334657,60.05660522564099,54.465009533177444,50.53056094267754,47.435347163302126,51.73025994070394,52.003759561335386,38.08983474517002,23.289951602099865,14.26134407325826,2.259351741872049,-7.982953268846915,-9.815464559304832,-13.97390083212729,-22.04358451586103,-23.353170354643847,-24.3403512990024,-33.31410241793501,-39.187432698572934,-39.01570878223834,-43.62628396667085,-48.915601237395585,-48.00534007697053,-50.41680529850987,-56.79494636824735,-55.93909963489739,-53.65593054523994,-58.38316023530892,-59.859162854433244,-56.37880311882504,-59.687702967373895,-64.03533991085415,-59.98447989210659,-57.55388792338997,-59.29060492642403,-54.76930833710482,-51.01292738338927,-57.2611864724745,-61.088790816964035,-57.489768760086,-57.32289925610613,-56.711824046333874,-48.37766887790125,-43.46106369921509,-45.10786711496542,-42.196874228356016,-38.747079118335144,-41.56869410796515,-39.68966329715941,-31.360630487812163,-28.993011696847354,-28.69849389786545,-22.64421922822788,-20.330726752641596,-22.929532181491165,-18.909019813325813,-13.480349773222976,-15.131029916246419,-14.053525450922502,-8.94344850258598,-12.05042171339485,-17.996888251792452,-16.260965771948023,-14.70286677947595,-15.439382284143804,-8.659722095625348,-0.30846199699817145,-0.043412782486604184,0.4275732607122504,3.593580546777532,0.35468398901969445,-2.590476153218259,4.01680108597043,9.840138190627044,10.289049831559835,13.958165988302506,16.34272532002626,11.76879370270496,11.623721785608923,17.565607863056773,17.105436593867864,13.967867562378839,16.627922110981643,16.639478597013586,12.925084598079152,16.84285588675405,23.7705828564128,25.366478619573392,30.040460323535896,37.88010283049175,36.058389246196775,28.716946208312088,26.109167355330783,22.354157459093138,17.766262973642146,22.751265812762107,29.770262612550674,28.254120461225135,27.41371778433996,29.64594651795117,24.585247953979128,18.092131033106174,18.64372149749308,17.372458035851476,14.551207608556172,21.0732320755612,28.42803924442618,25.45328680012921,21.8731762282341,21.899548932834314,17.71215823522803,16.30341273872907,24.184583947919478,27.396777071712062,22.3636497990922,22.46168326731368,25.198600744914454,23.101336198342704,25.55603605824407,32.61614558418445,30.87774291294756,25.101435184957808,24.435345676745296,19.481302078520002,10.602546350717763,13.04069958052494,22.336151562512875,26.160954740763177,29.876082536201277,32.64749311725149,24.56462567839627,16.94948927254102,22.10160577538226,26.74326897581026,24.16946445781569,24.72564453762608,24.313512950384684,15.823380183932489,11.221462282751066,13.580969036083824,11.596556188736617,10.9737754578316,19.037470896232737,21.616268720138745,13.836749505461661,8.898557537389555,5.898587971371066,-1.650341045811608,-4.802814559088213,-2.9609482144358634,-7.249802557399336,-10.87014067103861,-4.421877723006998,0.6001212015243166,-0.33186425533451125,2.32337399163319,3.132057132223266,-4.541917238177783,-7.50224401745517,-0.79698928562927,4.896582516030647,11.398636006123722,21.268649620437294,20.052545423471415,6.791399243965788,-1.2097410057788924,-3.8466644712263554,-8.82928011814183,-8.776827949682096,-4.941364720313107,-10.165517094586619,-18.197777549629183,-18.48525186843654,-20.149736011219154,-25.753481390430785,-25.03650966948763,-23.522410575358425,-28.905816647264018,-30.40418528189348,-25.58531925446318,-25.155444506013165,-23.75059683206728,-12.912743904159143,-3.563055121830025,-1.2373395665285665,2.52755347390097,4.129666732888658,-1.2345686423248377,-1.097242969827709,6.209845710446466,6.0884528225488665,0.18300874100178488,-3.0968787832341382,-10.702998702931298,-22.854839325392167,-28.038928260866953,-29.752628827952922,-34.94591062398703,-34.31020889195898,-27.64465895447312,-28.306140280746675,-31.938207850084847,-28.575608254800564,-26.539689529709907,-28.293101836295982,-24.6044219997126,-22.09623807194024,-28.69155599116783,-32.058833625769964,-28.180884187463242,-28.98934455387199,-31.021357236128665,-26.28525768436388,-24.983638528333756,-28.931941682063343,-25.642893748536558,-19.77743246247466,-20.367664184696817,-17.703688359438708,-9.992011429191294,-9.819005976339675,-13.251748352056591,-10.989110239927534,-10.71736224067983,-12.52808590522955,-5.624697709607955,1.8286863071836992,-0.6886847280503385,-2.2719162416604326,1.2649146542539447,-0.3124018219540312,-3.1034431291303255,-0.8327586941186358,-3.0133731476435597,-7.79761917251066,-1.4490029955832666,8.14161931105359,7.415551438025348,4.1365931831733445,2.5452404024004567,-4.1356698218879675,-7.491747836152986,0.4737014314421737,6.192768492424909,4.814026272214095,8.14735096644972,12.037517797309214,7.721622350419539,6.2511818031363235,10.908683739261267,9.086537438557666,4.808632383467867,7.135215989877501,6.332833016538787,1.8108269672459298,7.027853392360301,15.084586010007317,13.25597659215622,10.289438440328457,10.726635316789368,6.39343541105154,3.719816049386199,9.68536774634422,11.051631970511032,4.628665910883802,4.30175514273402,7.710490399339642,6.67151887265601,10.117049208630998,18.678770277971974,19.713088495076505,17.732895302105305,20.837028680523254,18.502916638838535,9.484924547659379,7.985813223494863,11.393196071309912,11.000570863403523,14.599238198018508,21.27048284099959,17.606929690695814,10.270063287864225,11.8539088641296,14.048053953747319,12.765889323351438,16.6963190604165,19.28558986981048,12.437434462307273,8.979351963039838,13.36010164383623,12.855579974716965,9.673574218070122,11.484709068529593,9.042878583444566,1.7358524717024508,3.006224102294218,8.556389476022343,8.11441469936025,9.118645839475931,12.164358509265982,6.532590221808848,0.3491408935136855,4.9264692427593335,9.777145364649071,10.065004853741758,14.833564860451064,18.3221371667439,13.065687310560389,11.02256695723428,15.257068212246532,13.523625044381161,9.876548562486807,13.076994638376851,13.287143847608194,7.925311344818136,8.657952023746288,11.40126624416713,7.573236431053173,6.219519622558687,9.16238659945297,5.175949065291553,-0.27605246511825254,2.804705759832066,5.182617380170934,3.8165511778198704,9.182287886205081,15.362748064203373,12.757116034511387,11.258276795053899,13.79747159603157,10.302344733316136,7.1115147476429925,12.900706680616683,16.153779815043844,12.49763348319499,12.65080874837054,13.66029102996551,9.377453919920365,10.047527631102868,16.59279677293656,15.938895874239218,12.431251536847494,16.599532243157512,20.352989409931247,21.58987509124791,31.90920591575996,45.8748226705904,52.67846599639372,60.476831812459615,70.77613404225384,71.62376467976239,68.98094088264038,74.0479294809063,76.63210617182918,70.92230227265922,66.99605860479812,62.18629146050344,49.977111551411994,41.24719719467926,38.32669538859703,28.410286483821913,15.13591394478897,8.714648895938234,1.8998259744613057,-8.091068444057932,-12.362440826441302,-16.4342320497899,-27.97730894673585,-35.84640515138075,-36.47465541828549,-41.34414771432053,-48.01443451191665,-49.94583236926519,-56.36748467816399,-67.74715787177695,-71.32127520912476,-70.93733755889089,-74.95972206075774,-73.84432048394498,-65.78608647839127,-62.90941097904695,-61.586650527265036,-54.659388131617916,-52.51278348390019,-56.56168992087882,-54.651527397284376,-51.30266699219983,-55.07480680352438,-57.00344376106577,-55.48994534931623,-60.85659541702295,-66.74418877807818,-63.72249866518176,-61.40359565136589,-62.62653043661961,-56.89024639604142,-49.31292311355411,-49.06589527699157,-47.43327132767806,-42.80354913243888,-46.28361399474032,-51.648650856913605,-48.582517980012724,-47.19583465045085,-51.10240082556308,-47.79398425823906,-39.458612297413765,-34.68200344407751,-26.726405731256865,-17.37069743361254,-20.23880213751066,-28.680108929957925,-29.519733958289876,-29.635016094818496,-32.41513683784983,-29.576152774424184,-26.417164173449894,-28.98502475185408,-26.081043565790313,-16.47488948178053,-12.828296657070464,-11.7472449053994,-5.576929037989212,-3.002705463256567,-5.1015394381308194,-1.4444072024995647,2.3768273384908403,-1.3022899765206597,-1.5533968706647838,4.1822920514001725,4.150692757991943,2.204431324910609,6.179244893680487,6.8809591708565865,3.7682222516894037,8.789213419372727,15.686124922365615,13.729928754140794,11.913565953253634,13.836588683147372,9.995790103788138,6.088907086217878,10.786826063721508,13.282966612379218,10.3548278076529,14.235575285027586,21.767162853054362,24.600044446092003,30.74066753929229,39.786979896371136,39.02539713451003,33.93078178751554,35.65351040763666,37.39173854835215,36.706816584009644,41.31469806965862,43.8329234405768,36.35598947677836,31.398898906958102,34.038122247415764,33.876609769734124,34.035425662730155,39.812969421600584,39.06630881216124,30.015365962202267,26.544295118715066,27.320878670375638,25.71581161799994,29.77511767990668,38.4128768351803,38.10854215734793,34.00085689223922,37.29648405681056,39.47430455089429,36.58101948380149,37.92359208558696,38.488471727979565,31.60507978326354,29.295340952556103,33.57033946822869,30.86642811312896,24.747704881860102,24.816315108564844,23.065314926694654,17.944216419114262,19.845870519606905,22.461945095398548,17.462424358996216,16.760926176430125,23.27129408573633,23.49955276947633,19.663736651429264,19.653648805621444,15.612948940488582,8.609770817091182,11.269483266450173,16.84984333502781,14.25914644717733,12.314453025263312,13.941511309184342,9.485051076760865,4.93556670136139,9.011421984868436,11.524480190217293,9.36381761666315,12.597613617029902,15.1536350659216,8.315769455316044,3.608366126983383,5.23227850663869,2.202047482941805,-1.7754952579468093,0.5814222222629708,-1.3861890673816641,-9.642928577814166,-10.851810501852484,-7.9817454213838595,-9.532537307678483,-6.392625033853279,2.251392272924545,2.8625968241703568,-0.8470117859171111,0.12463839508746855,-2.938671802082961,-10.813074742753097,-11.328829150436551,-9.310269791134262,-13.619235623738502,-15.414162753062573,-13.514829399346773,-19.061695857863356,-25.901532626733964,-23.54683659771138,-20.176790449340473,-18.79114315395278,-11.009304150469386,-3.2527536518661266,-4.101056666479726,-3.509304142612094,2.33263760246866,2.9008120774821142,1.4703156484610709,6.107753279911609,7.317706998261037,2.149600070679388,2.1457437785317865,3.6136845546140166,-1.9863133634581773,-5.794320842631008,-6.237200816994213,-14.144821766666029,-23.513376109664122,-24.57643096652961,-26.398467300546702,-32.103227870592775,-31.778874312340502,-29.88807434537885,-34.17145183927726,-35.05767888559534,-30.542020585819902,-31.797172917781435,-34.24189877102776,-30.078907358412422,-30.148507931836015,-37.29023035095918,-38.87841516189484,-36.695825259040525,-37.96056940511927,-35.04754988913429,-28.687745947889105,-30.897954262819276,-34.75012884644761,-28.762573435871126,-22.663299542083326,-22.271093679319968,-19.32306463243502,-17.500934897364587,-21.752843212310136,-19.846574156121413,-10.560950020912202,-9.497455286716162,-14.802133170279339,-15.37032364701166,-16.08786115542786,-17.547004279918443,-10.095558985399549,-1.2253502537172238,-2.2851768157049004,-3.6737753691502504,-0.3057906965939954,-2.1040895548367002,-5.557367566087505,-2.812251328906521,-3.164167889629768,-8.348246611099903,-5.767451350181217,0.7109968030155183,0.5842464755435745,1.1259396664877295,4.696950489493907,1.7421909791785446,-1.102623411627953,5.68470141509433,10.621255363644064,8.331032395563696,10.122397407743197,14.574120344644133,15.353806288074889,21.1028160957613,30.641157551869306,29.18069739189373,20.321648640564334,14.970435050108815,7.884435294493127,0.01613037747679158,2.9344202435100537,10.336174970872696,11.078419282649655,12.276224532458055,15.564812726322529,11.20771085929688,5.862490431054523,9.486893342636575,12.759579955175413,12.361657589116174,17.941996822926576,23.51070436649473,19.82221197473696,16.670908393363565,17.111727438805524,10.543318296231394,1.9423080714745202,1.0153217748836336,0.08639472391914671,-2.435114509510378,3.5792380501851655,11.41863762203725,10.136827001980189,8.786304785934123,12.12937417725717,11.153442862849712,10.03598726580514,15.468608751676035,15.911668490789427,8.658611014536735,7.274100853541565,10.290422275305785,9.731198898944191,12.356698992937758,17.34246986720695,13.029243547073484,5.7335902542107995,6.206273248841803,6.071462449604658,2.11533773609892,4.15491746462321,7.567031176746346,4.053885972550619,2.913210369273248,6.283718390378617,2.725838176099936,-2.817789645794064,-0.14431312904922278,2.012253062860421,0.40068157465232956,5.548519474483592,12.028686949401612,9.253549658869094,6.319510255791913,7.862757337925009,4.7617150766765395,1.6706448577535218,5.822817654557458,5.299875944625646,-4.226842746113251,-9.823492577249352,-11.246436735616538,-14.571557737147776,-11.851964420729502,-3.8215657389243063,-4.076991114349987,-8.179190208194626,-5.059736951672887,-1.8008921249098793,-1.2604819370403564,5.437769303201459,12.333756510400093,10.273415987575024,8.665767523192113,10.573632604470827,5.374196110327523,-2.100803866721181,-2.694559693547239,-5.788325733815004,-13.718517496502507,-14.004301145280511,-10.147535579101632,-11.975268440261521,-12.196986450302099,-10.03976474778211,-16.484820138083112,-23.582017595841283,-18.643415718576435,-11.420694127332133,-8.704169626713457,-2.877920535248772,1.1974146341469831,-3.1081570985494165,-3.8646614618701616,1.5575903494562118,-0.16086426773704332,-5.594466476375254,-4.142507317275551,-2.877935724012392,-4.6606537944843325,-0.7166172873683099,2.410738071297243,-4.030300729672336,-8.052651608414203,-4.567491969334434,-4.638071204350088,-5.030734898497038,1.3688172069547155,2.944070224840303,-3.8603374688991225,-6.758796734880166,-8.266003860927722,-15.244800766842102,-17.271301430456987,-12.814535702433595,-15.347015123877615,-20.871474908848498,-18.83521800727914,-18.127646679941645,-22.494343703993263,-21.37811163256497,-18.838453363309213,-22.621360204090717,-22.416620541997094,-16.293552828077186,-16.701025274946677,-18.512663951879055,-10.898286044839239,-2.1492677165411016,4.029074350603583,15.296013584306525,24.9574810498846,26.24914649893912,31.6844526560563,43.964876567278644,49.243741333020495,49.184795838533226,52.52283353906276,53.19297639878348,51.79692265180299,58.818604612111955,65.77939652531312,60.24953764199831,52.325466514693716,48.66028594618904,40.64375480472305,32.05606769623379,29.990172144442184,24.53277615466569,14.15739737975289,11.59767964387153,12.68210305161213,6.384511549037978,-0.16343833603477198,-3.195131259032371,-11.707389455527268,-21.68499235240262,-24.93818156280641,-30.019915700475902,-38.435744590599114,-37.740506414020516,-32.691482485040254,-35.15456571314959,-38.370575429859414,-39.02382961498731,-45.157148648111395,-50.20856630816529,-46.06896957597646,-44.4929829896612,-49.689728442285954,-49.75880861302377,-47.176753870903994,-49.91791655740927,-49.63309739426455,-45.29733098242908,-48.32892927584296,-53.140125498274905,-49.58572337409544,-46.73380506113389,-48.00277068105473,-42.50699389983419,-34.08919996185225,-31.90437470134003,-27.976682606464692,-21.10833845453008,-23.28992297847402,-28.972792489452495,-26.40810386545735,-24.054665857910575,-26.888178848728387,-25.489462332153018,-23.921055040321075,-30.317075528673676,-34.0174373762193,-30.659963932199943,-31.539654927698876,-33.94184079426173,-29.306117081541423,-25.656442992598027,-25.096279325831723,-17.040954978831913,-6.682651459285018,-4.830996390450634,-4.310561677357983,-1.5225370452686655,-4.873838736024098,-9.338955634151962,-6.627789960552979,-5.4567560833982025,-7.792896465542259,-2.895067365055588,4.010178003204614,2.776797375863724,1.7298869406844555,4.9145753854289955,3.5754178472523694,2.0870274067662433,7.615300464767012,9.590251013660312,5.647137883884181,9.574820033612946,18.87676834622578,22.422306597768095,26.199593366022647,32.22727116794844,30.573715516144294,27.099746401152224,31.85137385255125,35.14078351264968,32.53247251513929,35.20898277142131,40.769012435023726,40.130652942050055,40.38851850304064,43.59407908779235,39.532967614733494,33.68409914845118,36.127484106788465,37.60877265658307,34.03127830663179,36.04913924988758,40.18903669584829,37.773856969491185,37.98304839715499,44.14451234299922,45.08224567570322,44.02586493220441,48.4628920107835,47.37640546357176,37.871371010943065,33.840683661733564,33.91267149549724,30.02648801556117,30.828657515021725,37.517654122490214,36.955202105592605,32.79778494615245,34.74276074287511,33.568229213719604,26.56104407571592,26.328660581726023,29.415008516379938,26.351791834615412,26.368373754863974,32.32976253142403,32.09775423865388,28.97741758272919,31.723789402896006,30.679269867733453,22.77352609793776,20.700531930533455,22.422501776065445,19.25595455889324,19.505680105734356,25.043587839778276,23.426546170467883,18.552497695840607,20.338048943279333,19.458274192118687,12.203770657266489,10.313170087050086,11.11210198072115,6.301252232209025,4.88902700238369,9.112752446534772,6.624283689259473,1.0337074754430151,2.676711070683401,3.395781467301811,-0.6805877108520664,0.7349896055381637,3.5287585573324245,-1.5637411684744298,-4.821587840854979,-1.9328351421678525,-3.9738062622871064,-7.81083291556596,-5.09969799099366,-5.219424054666932,-10.675719746317009,-9.683766345650168,-6.512136300781126,-10.930453955100175,-13.62035496101318,-10.321319102810559,-11.484675207721992,-13.873653575805896,-10.072543826861267,-10.219254402827259,-16.267319474040047,-14.851032632924131,-9.107555482888905,-9.553924393122973,-9.144580066683995,-4.950732609934398,-6.630611275644001,-9.331598754138383,-4.765690985074254,-3.932628095161438,-10.641737519989334,-12.215753848352545,-10.724710035709206,-15.076494050379281,-17.41979470381335,-15.035178317587985,-16.985987661363662,-16.30463564563424,-3.078863074970601,10.51818054109814,16.155349973036955,22.619381751133815,28.285866384090788,27.025109874526827,29.035181644893697,36.82351137805642,37.03750915804447,32.17723222885733,32.54660842086309,30.32735813826455,22.252714636524857,19.193620526578453,16.860086659947125,6.135775860003736,-3.0231448465857036,-6.94813828025194,-16.416549410813143,-26.542144138458454,-27.776326069676458,-29.675079392846815,-35.843568359244905,-35.621465031202696,-33.2472545739268,-37.71000341202515,-40.014463152559934,-37.3135410414518,-41.232859118158295,-48.04217611659185,-46.601384867623004,-43.54161864392831,-42.86265321070288,-35.65376228436593,-26.792551076663294,-26.315642407631664,-25.394153240016898,-19.97811369883642,-21.514400112927664,-26.982632158519493,-26.118621562881163,-25.5193100960688,-27.17584656456538,-21.080741451936262,-13.621029688352433,-15.647479488317666,-17.30795392395764,-13.999565964115504,-16.512947827241362,-20.306768131465248,-15.989476009915034,-13.691861040621223,-16.42267025053716,-11.282247527256734,-2.3094977679734976,-1.2151463983827426,-0.7176388894812586,1.458807872794409,-6.446660027675637,-17.827290093588115,-18.630401999418755,-16.64561506469269,-17.545959005218673,-12.224391906979392,-5.5481009511638675,-7.649866495254867,-9.15219454462945,-5.663963310033492,-8.394984609763766,-13.231170690514524,-9.334093337926607,-5.707395011601161,-8.006906781550871,-6.965088626581428,-5.974513931372369,-12.40626203160703,-15.525524824681893,-11.559803050710885,-12.58343912393199,-15.510194761689963,-10.31393776707138,-5.643473322938988,-6.769981815540982,-4.851632361137598,-3.66663574729957,-10.125416580685377,-11.90564138540296,-4.065328840594921,-0.40451439644572773,-1.3325777290032268,1.1449384113509955,-1.0280803858353358,-9.4057745591744,-10.025555291071251,-5.192424677413674,-5.154667319025101,-2.045063284376017,6.210896765475051,6.336336230686484,1.4920727656744566,2.4490411997552695,1.5331564333510999,-4.093924375529635,-3.0169184598289136,0.9337974371202111,-1.7666865285299336,-1.8703957875867876,4.361323185513267,4.863527787882029,1.8138307317463958,4.371507337713798,4.949089265289566,1.7517351695452572,6.477696127104846,13.689462827914,10.995924423582647,6.994071650494975,8.894720297866115,8.79796223172518,9.479361049438872,16.26963175122889,16.428432933150653,7.345955509684072,5.218410086552581,9.318548028384685,8.51008431898687,8.016302738727127,9.597987576908729,4.828068303862422,1.7251311876762907,9.911199714766209,16.31756339433775,13.977909102505546,13.920446759128623,14.454242368025085,8.733504148253031,7.369346288894219,12.906308007666885,11.653601554681149,6.7579450601520605,9.041232619283488,9.808115088021868,4.867805105931941,5.375320457037314,7.36037661046811,1.386984820547034,-1.6709166869220131,3.3675464616725774,3.8759232216285775,0.6314473953238379,2.2962807429611547,1.2918979240204669,-4.466259403756839,-2.446159766838562,3.7633848072726876,2.4316511638189025,0.9901902013622866,3.9571620500732605,1.7017243350057771,-0.8968740205427118,5.830638594834316,11.338158707735586,9.63924515289536,10.797625872982383,12.659294314018139,8.924247362276866,10.448176328602173,19.066264188896383,19.40248483586568,12.602924649087669,9.546708480909835,5.000132502091092,-1.5804171308190262,1.306504942358362,7.625345345948511,5.474583724517811,4.235646666992026,9.00893758885141,7.280427108093215,0.5832839810538168,0.02371663062821794,0.189218507304237,-1.006628339466522,6.76559130443686,16.23086963674403,13.652989781788865,8.840259849868355,10.316447558936185,9.55638991294022,8.622780712974642,13.715847999195843,14.454025367408967,8.219847258381094,7.590236723130268,9.692425469158144,5.064486183834337,2.7587844447075223,7.090904602903571,6.711274594803632,3.732536140238735,6.794342809870747,7.591827600380439,3.485815991478911,6.705796803403496,14.437985178588313,17.831755139929044,27.350287448898367,47.107186971040996,63.50408620795433,77.84229695126368,98.27262074588597,113.13129228580652,116.68316841323215,120.356623896546,121.00100989005642,110.79064804484837,102.31342152991199,100.1262759175916,90.43333591389703,76.2655618970509,68.98080020745934,60.16012066293952,45.62952756467838,35.99708416614244,27.33654255403566,11.64092110277392,-0.36808016887620987,-6.323159419578673,-20.183589716361787,-38.49608919280382,-49.4775696230551,-60.096345767321424,-73.18422563492109,-78.34223012081011,-81.45918743637293,-92.62541476068131,-100.5272899756709,-100.24298732915942,-104.22707305927625,-109.7357275690525,-107.49332394418107,-106.60086732353871,-109.4105995507724,-103.12737117535241,-92.43425699475745,-90.37805537126222,-90.79911922048939,-89.75034485465831,-95.43562508776532,-100.93052763276889,-95.76098337451349,-91.00876586838694,-92.81683090208958,-89.52576119364095,-82.7225477577945,-81.92381720549496,-79.94556921120352,-73.96143756679314,-73.92616298397891,-74.08851260009081,-64.49641837794597,-56.343529942934566,-55.894442585708454,-52.33346123090397,-47.0818175771153,-46.95814312406293,-42.56025680961197,-32.46774198257136,-30.74126538541761,-34.98732763520354,-34.73569832327097,-37.18352782214336,-43.46845280024665,-39.01856836096966,-27.183077453020545,-21.295686672319313,-15.868361061383485,-9.407096386605694,-13.841495944289552,-21.855718322798555,-18.13132344207001,-10.112247696301743,-4.623522933672804,5.4679547214339665,13.747274758999026,10.74418608013445,9.088291516902952,15.864809216947892,18.247705044485564,16.488257614347162,19.798299611307215,20.379858467729413,16.343104007186657,20.721368873324707,28.936482009197462,28.870705961590712,29.01289605639711,34.102100108226985,32.77958108468923,28.625701219399403,32.72881472683776,36.255869931778335,33.986184893084115,37.43713909018477,44.305746612006196,44.85089924421154,47.48159016694239,54.81461344704459,53.345748365705624,47.01390765017586,49.340566851075835,53.52303568962323,53.98015666608448,59.04991632515593,63.34362021749695,57.62515690291381,53.381750859905864,55.91932591686528,52.74506675104616,45.64035361461254,43.780099442564506,38.920352482268086,29.28539876517275,29.045364872941995,35.4765200388956,36.436405930341195,38.036375742978635,42.39174369916374,38.03542010961406,31.160860167044973,34.330654185469655,38.01965342827367,36.62005520106995,41.01434917634963,47.032400780698936,44.14033024926498,42.18905210546078,46.18656962230528,44.402671454843116,39.61442642606959,40.95247993503131,38.298328850585406,28.079638278827133,24.488134594583325,26.39969933437794,24.304512850587287,26.368924604214676,34.886755701839135,36.15392906638552,32.210937026673776,33.330157921287636,31.651911184464623,24.627901608284095,24.830794972688803,28.0824032788985,23.382272905893913,20.238226063252675,23.663994465540696,22.717699507333357,20.26392422142201,23.537912521151345,21.06809543950359,10.25483149279265,7.35148536493205,12.259201813099248,13.046664859415012,13.842288498967768,15.180172702633396,5.3198118350046615,-7.572286831829138,-7.285108471994027,-2.381691547089412,-1.7170551406068233,2.8154143203619633,7.703749052292877,3.2006768483715162,-0.9315593980296981,1.8031460481620738,0.7763915222195894,-1.744687069430361,3.619288631953814,6.274555300139212,-0.15937129806441952,-3.179658113603602,-3.2124223688285904,-9.115378675935702,-12.173462042088579,-9.27316769764322,-13.318129846062668,-19.640334513410462,-14.372501829051242,-5.619556545497197,-0.0916331256473813,11.68991273068471,24.13736912220236,24.302582259003245,21.544157734551828,23.528798981453342,20.174380444195666,13.6293927342143,14.035889873637057,12.853221607786644,4.392041870776526,0.47913733386649576,0.6413029906781296,-5.129365529627683,-10.193682568508336,-10.627965069631816,-17.064123297011264,-25.56407897548711,-24.49271679602869,-22.271058821236913,-25.084435826598806,-23.38217823774825,-21.849283902121144,-30.4155832497643,-36.220030518401295,-31.53593020456953,-28.949572372239786,-28.39474935006996,-23.423108725878144,-25.22336726776024,-34.952949721133066,-34.810112942194486,-25.810167033960074,-22.282740004924527,-21.26997959873079,-20.149662770920845,-27.197725212669376,-35.05643103162488,-31.731223036791818,-27.650315355328082,-30.480987779258555,-30.19215506954108,-28.79746269876394,-34.81581348753962,-37.9060938524874,-32.74932731461713,-31.917876282418764,-34.91370887203136,-33.574133400743555,-36.693274859957604,-45.810584819585074,-44.87065515578819,-35.15080714195599,-30.151213233656396,-25.634909635938286,-18.749423902235023,-19.97431319532622,-24.5365847463721,-20.765307692172215,-17.318042259021265,-20.238957813550762,-19.391362743931005,-17.020351578231086,-21.615415559651,-23.43009791476342,-17.94859899483584,-17.963084740603886,-21.896279794264803,-19.277508198382108,-17.810823742099608,-21.053320693529884,-17.398043223016746,-11.423196981414486,-14.571484901041687,-16.797270045506426,-11.666905945493257,-10.379440753849806,-11.188213464381302,-5.980401487875331,-5.24146047553272,-13.117818097175347,-15.77383550932511,-13.356113880939017,-14.777251988566018,-12.971166198069177,-6.309923875568161,-7.758387707953675,-14.374983133813773,-14.639185010817766,-15.114410657323653,-19.257156934538674,-16.186898349741735,-9.995686929295587,-11.964754519542447,-14.034133392455466,-11.498418467568634,-14.505905298549013,-18.690663173826184,-13.95849674133449,-10.158223404021584,-12.84462438894182,-11.070659061793881,-6.842117058526936,-9.14339232382425,-9.830493934736394,-5.666476642867343,-8.268260371152284,-13.371731088542692,-8.741554340362764,-2.4892143783177048,-1.4415990617372239,2.9245379225531005,7.40292834234043,3.5867239780900846,2.196507136863214,8.712693494878103,9.939968986221789,6.3547942061935965,8.416318108943642,8.796960672852482,3.228390366713654,3.8093591683622456,9.25046550309677,9.842574637652103,12.647448634481222,19.776356292953746,18.2245066213399,11.431521546936755,12.132373286662238,13.28900815821347,9.143919103813872,9.790378071852409,13.141317238534173,10.425520991631263,10.897224395956233,18.09777334094563,18.21907471915361,13.277573020833348,15.273909187067009,16.72558381270226,11.855693189162775,11.647009104264129,15.321043907325333,14.169739274042147,16.31467770478739,24.841994253508144,25.627372253826987,19.679682249652913,19.028226198894078,18.06576456750699,13.124054207836593,15.032222879138018,20.446546833554365,19.07503151178935,20.032508047937867,28.906776172343474,34.535959634789755,38.7070225086693,50.684274494094424,61.62305928542675,67.04617437024753,78.926383610263,95.00076531261529,104.07408593852543,111.69748254734708,119.50549836177574,115.8688611066719,106.07038732139453,103.44726255049103,101.92913787215717,97.05648419286837,96.31591147616392,93.47319472027377,79.99499001433117,67.55889906677767,61.949814845285545,52.52092762961777,41.271757860943836,35.202885721584224,24.838257967130914,8.364938366763605,-0.8733493532242855,-5.7713035711121785,-17.175085115263794,-27.51153117787807,-32.91787473054268,-44.041090700148786,-56.441541191977414,-59.21982894229814,-61.605289351442934,-69.2835148667937,-71.78233810269215,-72.01528922681626,-79.03301806612346,-82.81895032120029,-78.13709649245148,-76.85827506562717,-78.11333129452773,-73.47565343885563,-71.4146793032981,-75.7196469413334,-74.13558883438273,-68.37851809214698,-68.69230824102146,-67.55958169306993,-61.239324965458614,-62.14797375012309,-68.46889060877783,-69.59965820621913,-72.47480724771451,-80.39470755001406,-81.36785688859398,-76.82423426183261,-75.7844356368747,-71.17512387474626,-61.40015694522067,-60.018992667553114,-65.31485959618576,-65.8508229100939,-66.1215256356939,-67.89454613244547,-60.72509441822652,-49.1510324576341,-44.27045370545448,-38.37559090869114,-27.557697726229648,-23.845268135265577,-25.26818446971263,-21.664444451966297,-20.095212366367036,-23.076000604679884,-18.784821792204042,-11.547523706459085,-13.021718409675108,-14.6633709289286,-10.51912223813886,-10.299966612289351,-11.309433199342429,-5.101344926316618,-0.7966814159594888,-2.3886179731031394,1.6261471891224497,9.104504292035678,10.370889283198743,12.843937904351463,20.18071086256206,20.795398808075667,15.934204497218834,15.180813391247295,13.475758876878464,9.773882783325831,15.136496628779883,24.63724500922718,25.106058997262156,22.409397689910513,22.634782069530203,18.49482818152527,13.908435998488617,17.969111315713338,21.49872866403108,18.673445338018446,19.334982802227128,20.92753400305519,14.837114941824233,11.499103678685486,17.44169272734162,21.286313242548548,22.78921260530252,29.53428449772864,33.62774248781283,32.28546796867215,36.7595985154537,42.46987586538043,37.5554470332041,30.61675395070106,29.491284820175082,26.803916637427594,25.27339759981599,32.278342026839226,37.62102698446252,35.73130922165046,37.38026383145468,40.65778837640701,36.34163988250461,33.3757762880166,37.70600168781422,38.74057418893041,36.65860478879192,38.92023811314613,37.59579772902437,29.518999440407512,27.14007290283179,29.12462396962788,25.03864789790657,21.676578667498553,23.58505636307825,20.920915364116027,16.86098552096135,20.901183578749887,24.0466477033625,21.023297224975355,22.627686261459232,26.61616425999785,22.95759925498291,19.74894124251661,22.356071253806572,20.11228172014014,15.40569635170214,18.79393430981261,21.980743696332972,19.176208636128518,21.22793744083814,26.028513781135253,23.257326669612677,21.03650046255266,24.663268916806835,23.043421679551443,17.756236389479486,18.614942235655953,18.232259594650618,11.578013663879904,6.171458300579571,-4.098779636125413,-25.904906100696323,-39.66356316305056,-28.62372330343652,0.6714498485352225,42.99156255398977,91.85366458615567,126.39169283513056,141.77664101780445,156.82535762154748,175.8467620513718,191.1920817419393,210.3863783260596,235.89183739691651,254.0653383382445,268.01872562019526,292.22566523708446,321.2702506221643,348.68618283241506,380.44351680424967,406.7079098682466,412.185171793897,407.2853611949622,402.8731494060023,391.1038264701141,374.9206650125587,363.9129962689898,348.9489191037008,326.1596119497654,308.99933875897847,295.90340479896804,275.53642960217246,253.87787878369767,233.4517934910333,203.0998292685782,170.11802457616128,151.36681400037335,139.68797640248906,124.22487027719605,108.7848129424868,87.88255594057463,54.79544074891525,25.232784182114962,8.256521421505063,-11.088449077772328,-38.19246676353858,-67.41631374598902,-105.87144486675717,-152.650243093209,-188.87331152029978,-212.77552373916365,-236.66984482804068,-256.71580782635243,-269.07695939625796,-282.39094830379906,-292.72447670964056,-290.88980334919034,-288.4083918421103,-294.9929537534296,-300.0714403885097,-301.5698647235887,-308.7617085725709,-318.38758741862296,-329.9566594387537,-353.6894119902665,-381.43557587353394,-396.98823412538434,-406.31501395989176,-415.63663114773175,-416.855703717663,-414.2737708030173,-417.5623043461736,-418.5728002251756,-414.43703176969507,-417.6436928524762,-425.02183066398743,-426.1997741709273,-432.2091947092677,-448.56608342695864,-458.5993600756468,-458.5327383123039,-455.68253091954296,-441.9562712808122,-417.9509167282382,-403.25188458156225,-397.73503817375433,-386.69961296937663,-375.0577989507609,-366.9986701879358,-350.7975412552824,-330.29898056756576,-319.15140118244324,-310.3244584028287,-297.3019084686952,-289.31061297549144,-281.08650657826416,-259.17165757514204,-233.4830790538195,-215.38764260791345,-198.20882024860822,-184.4944846895176,-181.42000428916612,-175.79196667586288,-160.60063349097572,-149.8764727967857,-144.11503436074125,-132.7417625693802,-122.76812072763335,-119.33553745849382,-112.22500010146872,-104.66224020902202,-106.81933221013288,-107.51333097039316,-98.22818863921141,-90.26618755482747,-83.23320985630917,-68.14557531665251,-55.58285114272837,-52.97099400385468,-48.78027142701084,-42.96322512639366,-42.802297594915224,-37.46946942594478,-22.703447074934026,-14.439612281827433,-13.90579864011623,-9.304686217191708,-5.249917119328396,-4.200009456432185,5.662576215489985,19.554023320589945,24.340746553158574,29.21949201430208,41.05582748114135,47.83392060489911,51.07704787238378,61.314233539970985,70.48233331959155,75.34761342377374,88.88478875463774,106.73670884055713,115.15136888258247,121.30971790754194,130.64555556436173,132.81800594994644,132.1146695939532,141.09559169358263,151.7923004612982,156.98002235011666,165.416508936918,172.49986954315975,165.93806206068876,155.9444787902996,152.62754565839097,147.50741554265207,143.36759723414082,150.62768806447727,159.32542274376007,161.88151428072996,168.93666352332994,178.47955926823184,180.06876868581472,183.06100619724893,194.307739202924,202.3996118260825,207.807404899054,219.37756254647442,227.6690280407962,227.03550350662653,230.46146430334153,237.90306460094973,238.70828335724627,239.7638268601988,245.35550562698268,243.6987928479151,237.7469534059857,239.8505680861874,242.5717934770309,239.9040656454027,243.0063080517383,249.98652600030206,249.70794009275582,250.4316629330334,257.7966840738663,259.56854003553167,258.0336563591788,265.07175846436525,271.5367719187087,270.4259583849243,273.6144858943137,279.67854586496287,277.57728797730493,275.21942538754854,276.82944980760215,269.48793838859507,257.3362669080517,255.64665086078125,257.6977939062154,255.4489604458351,256.11055473694387,254.24048980604022,239.59209528340648,225.36497476204187,221.89581803313925,217.62267703542497,211.91073225034768,214.81515665936928,217.10816278563243,210.35803347903789,204.629518054184,198.34503238444458,182.65945004761127,170.78711924692942,172.270214534807,173.10444246060527,168.74641105565468,166.3314620024829,159.1961463073033,145.4232087667754,138.70971158398422,136.98452778204634,128.19713542047347,120.06990100135747,119.15763078465137,115.05451506535158,109.41767740867756,111.52388134516671,111.40966554462008,102.40500474586611,96.37813331338808,93.0939740807617,83.52011093606467,77.10621144051014,79.85069535432012,79.3827337415777,76.8934268070127,83.52371668217802,89.6951297591259,86.07019171163368,81.98913417315552,76.44678145426471,61.244155708573274,48.20128703076945,44.707733607577886,36.63566310630494,23.164415816300078,16.67006298954756,11.168461353622522,1.0544378737809703,-2.5116093995132927,-3.4381194459548086,-16.116264922014647,-31.759538565511864,-40.35496926871226,-51.42196647203791,-63.344806432114645,-65.30881806735857,-66.68542528599662,-74.38915415170267,-75.85077803026094,-71.82014847715837,-74.18906658203832,-76.11945373641183,-72.06229261853863,-73.18835778748979,-76.9776688884671,-72.50190186750967,-70.16207857481817,-77.66107307362182,-81.93326177503846,-81.40343960593633,-84.80644856262634,-83.96501200762741,-76.22508817229004,-77.82555006427052,-87.73816911689585,-91.1101438230097,-93.3727367834568,-100.72384261823287,-102.28366259281438,-100.36691731580993,-105.78720433460876,-107.92262065988052,-99.88929481988782,-96.89957169847256,-101.6864960997829,-103.83213921480723,-108.53615131573727,-118.70215026864487,-121.76381768455987,-119.9517206245455,-125.76649170960206,-131.88877210063617,-130.92904863109052,-133.3951476210987,-138.7004519731818,-135.60551560045118,-130.42112867622336,-128.7479954297077,-119.88332774470152,-106.21133810440992,-99.42126755647864,-91.7859921911445,-77.75296227121213,-69.97926311055447,-68.21977904613239,-61.61500575630331,-57.51501206065799,-61.80064387824861,-62.37576138469437,-60.000212044383574,-66.9828026937992,-76.54106578399089,-81.9227121876021,-94.03965189292194,-109.98568673397938,-115.87292544074808,-120.53894123409336,-134.095538392885,-145.37974194054144,-153.07383745145515,-166.76307154964096,-177.599306016802,-179.36267084678462,-185.28183501574193,-194.2174239830261,-193.48388216739832,-191.9239324708539,-198.29317613978588,-201.17942756324987,-200.36569025654515,-205.90286729965186,-208.95740977983502,-203.30656933768387,-201.67477711203546,-203.22992484773073,-196.5797465945689,-190.88634011158746,-194.7157006165022,-196.58634366063043,-194.82727795636328,-197.62682802850108,-196.25807671138136,-185.84697997849767,-180.40312858569516,-179.8732103411433,-171.63619253518038,-161.86761746124648,-157.26513737246523,-147.5269022237904,-134.95221079786705,-131.55707343353876,-129.22191247668417,-121.03235496353655,-118.04604324388728,-117.39491359401025,-105.7771371931513,-91.18740585564966,-82.75259071354024,-71.8444723322133,-60.4762800141916,-58.94422462217868,-57.60790237266371,-48.063221730023315,-41.00002458518789,-35.668796137989204,-21.49628538483608,-7.989609608244762,-4.088284416676047,0.4614447360833003,5.667251143056991,3.1225933149174128,2.930047927284445,11.517620025757427,15.749459547521635,15.654290319344788,22.958049418817847,29.91281869733149,28.62690337058368,30.024316804784632,34.165269594229805,31.38597429429099,31.19306788808982,40.1057531891104,43.20014597027565,38.32209811729089,38.113014936697304,38.783245849635435,36.069860002625646,40.90811834222867,49.70351869148,48.2345285349299,44.397684339497786,48.55592980508261,51.94907660087074,55.113848433459864,67.39965936849072,77.40263240360828,75.23748417315711,72.78874522369969,71.40838921275657,62.37167453518759,56.77144526706617,63.00738916321871,67.6809927402612,68.17828085629952,73.24261260512864,74.22492911133473,65.99730423508069,63.49467649003776,67.52501630679795,65.23071140267719,62.07655974879728,63.58806139186207,59.15457145445389,52.60372861983863,57.123876297968714,63.045309103863865,60.22092848554635,59.04587220998702,60.287744012671716,54.918655589435446,51.74436989278662,55.84337083079121,52.95895924486727,44.610538448894566,46.04411264718168,51.366107434552134,51.924525781047286,56.257132878401066,61.45059228340498,56.20407244114861,50.74120258994286,53.403250643574175,51.040218655322754,43.356419884179644,44.017614640828675,47.76701384693512,48.07967002073366,55.28377060223554,65.46214955759376,63.9639191433801,58.8819703192364,59.007149399832635,53.33519726370014,43.82158520840311,44.383672617422526,48.70824795460012,49.72499121864277,57.35854272822519,67.62099665976736,66.06065739242598,60.76118243367716,62.0911661314517,60.77053862419191,56.72657796681758,59.96252382881306,61.54732504681709,54.27641790182216,52.297534490596334,57.74770410626731,57.89911731753602,56.70123614444465,59.05791633666102,54.16218461644148,45.29489787462988,46.62331356825479,50.602308013621354,48.22261212192682,50.099126403989004,56.38680742686316,56.216348656763785,56.39725643416089,61.24726968540446,57.102950358451466,46.11018842192715,43.6523967776622,44.52352069174614,41.355315372337714,43.47928389350355,47.71265621997382,41.567805902259096,34.367698480150295,35.584123333807234,34.1429736492808,29.19818154320282,31.12044825247681,32.0555328653344,25.197326622146534,23.35567449188774,27.709488410763793,26.86511445304337,27.179677390109486,34.4255123972184,35.08200782429573,27.45148262135865,23.106231598171394,16.716529272046486,4.295542473617248,0.5646552810087986,5.811017095443862,5.457776347164266,3.2646483870212406,5.149420893718543,0.8494017522732966,-7.209611861971022,-6.011707713091434,-3.4897920061973418,-8.092171112057008,-7.257070569111129,0.4105608129963896,1.6946298990875102,0.7033283037729776,3.126568629117733,-1.9371393018567435,-12.116975343345718,-13.809972081096111,-13.631724019552173,-17.6177186988406,-12.515332264414715,1.7377863599367105,11.138781809239836,18.113518678229337,26.27643146349445,24.458933675961028,14.89470816706664,11.371753502044283,8.437850402626315,0.38756647709261927,0.09224431874782013,6.012139162262252,2.112562437541329,-6.611367497709479,-10.24706105124266,-15.595610848668132,-20.053003569771924,-13.871027879862195,-8.857814654228768,-15.231302695240196,-19.868014640887147,-18.758047277964547,-22.03534583202697,-24.062751188265572,-18.728018224160355,-17.96765777923871,-21.982094239813136,-17.943468163386733,-12.144524901186198,-12.949617306087216,-10.137600638081212,-4.711910344011551,-8.599725591501224,-12.875568852456624,-8.271659786058716,-7.241041730121308,-12.770555027152882,-13.715360361813815,-13.678202757967803,-16.19667273846767,-9.218716471624482,3.832603538802968,5.419928818246921,-0.2734694337540089,-2.87942849059805,-9.649004672125796,-19.580148620423703,-21.413508869692716,-22.29816510752293,-29.654750633812927,-32.09423150188386,-29.312246612453343,-32.60397861111364,-34.85613949159953,-28.884476014703868,-26.966792770225712,-30.81438278482024,-28.68629910974994,-25.265785756304748,-26.30586905599172,-20.85990249566653,-11.07531876164343,-11.556342853300025,-16.017353792812635,-15.367189037385138,-19.974962966265142,-29.653833757167014,-31.29565017748295,-30.588025853321245,-34.920424456381475,-33.33235690408812,-27.181514330535606,-30.304581340666807,-35.73539620795954,-33.9846068373161,-34.5964743588291,-36.997804734694284,-29.9962223918326,-22.430617769210613,-23.88260457374774,-22.970432173115533,-17.69201086074299,-19.1079468002217,-21.31848966771419,-17.8881105993765,-20.873035286782912,-30.020728383326794,-30.096483160613857,-24.761660361627786,-23.41284952469417,-18.672914837861377,-12.373396091628013,-16.857260478611515,-23.199456228388136,-19.749925739408184,-17.144575284951785,-19.316064931544595,-16.940566835850028,-15.825830325061808,-21.488543829806606,-21.042715923612846,-14.731578819961207,-17.372804005463006,-23.35145878435616,-22.66299410773224,-24.925565818139567,-31.146841304937254,-29.982344732842403,-27.916246076102457,-32.26045847572975,-30.787267716669383,-23.088326733085616,-23.476835520637522,-26.15775998601771,-20.4637278119898,-16.372333683143903,-16.876133298831444,-11.684373746924908,-6.909731801947012,-9.390527701885159,-6.280473075399749,2.7912689869811187,2.2786527462778383,-2.941664105760791,-1.9623561396002562,-2.8199561957180626,-5.319975058521172,1.8961902404696924,10.29515446388068,9.725481933717544,11.765579276856888,19.209705069713724,20.29619278104153,20.362771887158384,27.072774272902713,28.216206159873842,21.37738264603731,19.70907336657045,20.224256186163565,16.534920019695264,18.98135050036178,26.173540123567278,23.251834094891258,15.899167417179607,14.527310755485058,10.292405852718954,3.552005202300892,7.070913133910362,13.993178579789017,14.973034398898278,20.133341807827133,28.54159769289158,25.922674530313362,18.380212214179366,16.073590482847056,10.133755634447706,1.7073067618157447,4.566659346397443,11.41484499734453,10.564873611991498,11.009007243080399,14.032640507100611,8.844281105269802,3.584387419552508,7.240616685908103,6.664438383916901,-1.0470757279009173,-2.5609992113070352,-1.9144846800184658,-6.856965440804608,-7.136339481012959,-3.1248346754705105,-7.822060907582241,-14.067821259866227,-11.560478593087204,-10.623217965250152,-13.14705379959165,-7.426382890611441,0.3179864858692927,0.9626618697111763,5.005312433601042,13.47997275203609,14.314339503789334,14.85058450621917,25.465640063063432,35.40416076497007,41.2404133605979,52.819087010618546,62.92621287383754,62.60705891901609,63.856375661633194,70.16396101359463,69.49199948462571,65.50763812953858,66.39045365809542,63.11231372339283,54.917371579961426,53.656711462947925,52.69518732549915,41.73191304291733,31.912706639170022,27.788987671691515,18.089644456276048,5.742231339553474,-2.252729879170916,-14.384331696045702,-28.513618199077335,-30.43594682780222,-27.45349083480221,-33.29685600541879,-40.54099457291713,-45.468931470715134,-55.89531193345899,-63.65338787779802,-60.99278137903998,-61.97816554069872,-70.38774313292821,-73.46842708444281,-74.68140551304234,-80.42451200096909,-79.57253450744967,-72.98392586150199,-75.72812402234723,-82.4096496001193,-81.85857863187026,-82.46705929773915,-85.58428774542375,-79.71997575305153,-71.73589303196096,-71.83329486240393,-69.50959648860932,-63.276851116432994,-66.34634647862823,-72.30705320357227,-69.08360652650076,-65.10744717312113,-63.29364314553992,-54.62668764457806,-47.147719426041014,-49.60542031197755,-48.50010871537254,-39.80230017959869,-37.538214889318645,-39.76196791000132,-38.216265696642495,-40.8388505556283,-45.598806570647085,-37.77159683575941,-24.761944242996446,-20.361677952733878,-16.308552853346082,-9.579666727428787,-10.118533594200146,-10.462562979284773,-1.5307641940823289,3.5462748402534103,0.341198124075647,1.8166736613003296,5.435478011220065,4.424837902967153,10.185856531613002,22.826525660391884,26.55088351699346,26.10395903756841,32.40894325638966,35.32759332103028,32.25386914948995,34.80259419650983,36.926427818278874,31.43066860080323,32.68157315055767,43.18338879287609,47.61597988900198,48.969396427258864,55.542050828214215,56.62612426609492,51.56055422875194,54.70466673022101,60.5682761748013,58.48601915713336,59.27294816091008,66.16587287213302,66.47795450055543,64.84288994827365,70.40033306274368,71.60476122670451,65.5575841970186,66.53082816715985,71.60653277475268,70.74779680500701,71.98359100534162,75.76623297467931,69.18626949760768,60.06004946987203,62.26829223681838,66.01987293344973,65.46886129861122,69.6452284616544,72.64988720454984,67.63615865602523,68.39625585287116,76.75404033928717,76.56127426492701,70.54003088701299,69.04515254942672,64.72637418124805,57.62604055617219,59.54787412661115,63.045648528773654,58.26601978582151,57.924587801829766,65.59932056066476,67.1005585010979,65.07664958444647,67.43603239893862,63.49678650361761,52.28467669439222,48.06987173405931,46.38886390759152,37.79459892830646,33.841036660776965,38.07534478426641,36.79747146530056,32.15422639582123,31.953529653089905,26.246059481066247,13.916291506995915,8.752131992729078,7.1292456599701115,0.474692369061287,-0.4270382248686996,6.637711092632902,6.9741770529917915,2.1559289168649123,0.657203813585169,-5.335274622533132,-14.256827915872647,-11.634496826028984,-4.683777006566844,-7.352640929682146,-10.979570409643403,-10.520627052525906,-15.122039575363582,-19.29162174826875,-15.520212163091733,-16.639174228044865,-26.140246188134284,-29.513714850511573,-28.323834482744957,-31.9753636257228,-33.068486981301945,-30.828221196119713,-36.82835697444986,-43.53626073095963,-39.005536522279584,-34.34794764898819,-35.41019988248406,-32.15377344526179,-29.119870486347594,-33.610927121577,-34.185438582962234,-29.22380379238046,-31.904861750972792,-36.78649548255931,-32.76565682437723,-29.267374574451765,-31.3165380511965,-29.895411174660435,-28.945050389181755,-34.68577187313098,-35.551308519893155,-29.50027206046728,-31.113545708041613,-38.00188748445325,-39.38094279347243,-42.18080142172321,-47.872549897123534,-44.93065888398904,-39.74782905634385,-43.079651491978936,-44.668803481540394,-42.016386721773245,-47.01322028500928,-51.8799088904845,-44.40712252421326,-35.09312008836096,-28.692464837620285,-16.22193860300599,-5.3206834452147085,-5.429896101831634,-4.841890166385733,-0.787913463224436,-6.181364982390356,-15.762616976470431,-18.384208092457513,-22.58558435722842,-30.705023087396647,-31.203049969042027,-29.809059007913774,-37.52766176376348,-44.53826897595447,-46.16935272472756,-52.57783051825278,-57.73200622878167,-51.208369691038975,-44.5302495465384,-43.90183789872299,-38.68078083779918,-32.68209189355844,-34.82279450614038,-34.94700184148888,-30.698285682244393,-35.57064215610629,-44.9598455546575,-46.526571163767336,-47.71599548486188,-51.2282533660974,-45.762786323637116,-37.089623983108964,-35.593009122440435,-30.249782999147826,-17.56945005623284,-12.011957667277294,-12.158973426216907,-9.480770604306667,-12.68066715884971,-21.925787951429964,-22.223783682615753,-17.49236358912801,-19.580783600667868,-20.756848516176497,-18.52810946091832,-24.17393665106055,-31.156956730448258,-27.40639098528569,-22.17021386953605,-20.15513979561827,-11.704692142266662,-3.1224325010343073,-4.881750138004656,-6.319109435678881,-2.5683150577876344,-4.771064517267529,-8.756582956676375,-4.895563083890986,-3.326911342239474,-7.810387514644547,-6.159757902486722,-1.967769099029699,-4.089655788467031,-2.3932294362647792,5.392317302665152,6.022977072843237,3.6879664223279565,8.770294950940514,11.937863575338525,9.845891300943611,13.502709870328907,18.13489695551064,15.54689056123976,17.416194484458,26.785918317922857,29.47132892361308,28.512324612429726,35.20776420329898,41.2055657986664,42.09021090485251,47.42156608535122,50.547212701788524,41.25585790103243,32.340957176310994,30.762153885434444,25.309321169573142,19.230201199897035,22.044491559449792,23.949044232028534,21.070522947650403,25.010558639480646,30.85604589119066,27.75212617893206,25.347677083593396,27.990050782242058,25.00789231848352,21.642345850818245,27.956934840262786,33.20102584358114,32.24831312876651,36.466479117471586,41.674252012691475,37.25792796492644,32.88465553891298,33.10153609472973,27.107901797771078,20.237836724075102,23.048649677796497,24.910727113671314,20.84577057048177,23.239554429440528,28.932325106391023,27.063182208328886,26.727196582351016,32.05274630009735,30.3250193741222,24.605175183718725,25.50855524310931,24.460913040111315,18.59435981279926,20.651747769067633,26.030868441484536,22.235992250764415,18.052140297237422,19.664692611377525,17.152560161801418,13.970834456221688,19.082554420513006,22.343436668413908,19.382278098727376,21.525690765314685,24.2580896412162,17.261117775799057,12.171956104796237,16.315524165397594,18.088675813665386,17.36801909748695,20.003260264559177,16.053785802003983,5.712233222135701,5.917792363938791,13.573040287112578,14.615736575276411,15.339126730748559,19.763129037401967,17.120605691118506,12.257019268957176,15.859045608748028,16.990953115103835,10.239690640916656,9.128613952207514,11.594840832964799,6.49670753817492,3.0402860668206326,6.523735468120309,5.100106232180374,2.2454778085071427,8.498575515637194,12.875356758644223,8.60022232699701,7.428037867134735,7.895974485056387,1.3949920595300185,-2.017205852488448,1.493044014739004,-1.8573333898556768,-9.394605051575807,-9.041598657752463,-8.574729385506007,-12.153628045147018,-8.464976370166085,-2.4292145958622635,-5.654248438465945,-8.39919816772272,-4.990907280156699,-7.119963154206835,-12.090618017078823,-9.48732839000479,-8.515984538834905,-13.817400182233659,-13.175607027011438,-10.464227983297326,-17.127052123777624,-22.770953801006655,-20.561480848398794,-21.66198462935732,-24.622846289301112,-21.31985672178621,-20.833494508787567,-25.44983494987365,-21.187235819645945,-11.778539596213108,-11.28735485345195,-12.801633569114497,-10.04689261436528,-12.382490089738129,-15.465860961338553,-9.433840424573525,-6.0421441049980675,-10.50509744046937,-7.662776332127204,0.5374238017186239,0.9643985235355951,1.2130976231316424,5.720629456911393,2.3644791637160028,-4.42478451155642,-2.2298852631872768,-0.5880444132200846,-5.604208146944178,-4.9341169135826926,-1.1967119554061714,-6.032111797716856,-10.036041868372369,-6.667010284471205,-7.507644194854276,-10.338174604654316,-4.9876901570836605,-1.8757557714588695,-6.899046013373368,-6.250987783281893,-1.31014718122604,-3.7130187143418096,-4.429770825945638,1.6573901844764234,1.0728614558085712,-3.4838201377370024,0.5786417949425928,5.153956026218587,5.152741625551704,13.063101081016812,26.096221365313607,31.924188172117585,38.589223868238506,50.67764429791082,53.88361298251192,49.30901084215915,49.96381618267339,49.90037586708494,45.31367809989028,48.059829921965274,52.9585338002802,46.13862773389986,36.935368774184326,33.15255929201821,24.557414107334505,14.99169227625725,15.603343804435504,15.306337229184956,6.761235409716157,1.598839667785826,-3.0379525492992427,-17.186031905716955,-28.752867117148213,-30.59061565170268,-36.36674810009767,-45.412643872510145,-46.462163294715275,-47.86811585457215,-55.496591077020085,-58.123491519471514,-59.08989301717185,-69.55716618955506,-77.78036217347137,-74.37007883124778,-72.53887272633571,-74.87462044951027,-72.35425676605695,-72.7604054447938,-78.83205522763998,-74.7704716586281,-63.56835200550692,-61.538755662964476,-62.52428789455712,-59.751809520720066,-63.67799342154964,-70.30651421619962,-66.80217291628574,-62.23815121426661,-63.56192422800845,-59.03125047415143,-50.952590209020435,-50.987937717382295,-50.96648749737019,-45.99625141078982,-48.34169437214857,-54.60099119538838,-51.43230773188639,-46.24083014081077,-45.98150822862307,-41.004714000111164,-34.355932826117886,-36.213451658438714,-35.838861504401365,-26.842252865231963,-23.52112545957526,-26.006221665400567,-22.11511090638727,-17.86430682866299,-17.78445824877554,-11.112021563329854,-3.052763649482836,-7.010968516849133,-12.929699544939272,-11.418988783906908,-12.075508436055344,-13.155737083210443,-5.484388842779077,0.333698386603404,-2.1117927510701673,0.5087488073476913,7.524986461523569,7.00683044272837,6.539778216044539,12.076822800565138,11.895738008270197,8.70715972339418,15.164553235214031,22.880748008857694,24.280671947145038,29.885789035220267,37.68884952628795,36.7207954198434,35.829082725590695,41.396891736371266,41.218299175327886,36.58314971365347,39.485518507382544,42.321742486040904,38.34164951756182,38.44983936498666,41.11575041580962,36.82103224542172,35.97330153523131,44.23939593384337,47.06834379272006,44.256375504692535,47.39770616750624,49.621712433654295,46.0114305060996,48.17597539085502,53.22381547635012,49.67876088389873,46.80490711890995,50.91980116864799,49.781913178393914,45.47293680814194,49.89188611230742,54.18136968154156,50.43863751237357,48.22570541091989,45.61042807929198,34.077736910707436,24.977131085520746,26.245181013719105,26.998902624405478,28.036068264744287,38.361439552913666,47.204615195113746,45.720273349116354,44.54256065245181,44.30451695867455,37.26644061017248,33.17844879396277,36.749235088281246,34.0623056932453,26.479336295118255,27.403088128817142,31.206254754596053,31.626186910447167,36.89699339348133,41.50585354773567,33.18154494946403,22.809705429744362,20.643519112485826,16.89103522288179,11.55772167328089,13.674663893643844,14.514054880877302,8.3953818026166,8.138188878275129,12.548301473917244,8.441184447743135,3.0543585285096686,4.871476272455117,3.6430538258349534,-0.37121604783646944,2.4476146500771474,2.4985325955372133,-6.38583659022081,-9.11480623514338,-4.261229818041759,-4.6360089892875305,-5.200541239502915,-1.5053698391160535,-5.8840281127040885,-15.155066292533272,-14.807858708825846,-12.250017133373365,-15.64207569440866,-14.4600482786374,-10.323943698204474,-15.298167116380752,-21.192764512738037,-19.618797236414267,-21.328928379059423,-25.80494129189657,-21.591163249946984,-17.141582774587032,-20.480102954986204,-19.21491941738873,-12.749327440383531,-12.905026015912906,-12.780712125449575,-6.518090938794102,-7.336697181295971,-14.157631048618448,-13.04109263524808,-11.244719596072398,-16.23027137864651,-14.893535073008948,-7.465471292118939,-7.834914954900669,-10.483446223156752,-9.395814985926565,-15.062527662242015,-22.034393209110938,-14.689312357087651,-2.409276189180557,3.1048779485295332,9.411647715792043,14.748928437461103,11.213204215413171,9.463228858624657,13.99438091345919,10.411410713536501,-0.4614304743881785,-5.817149270075955,-10.815916961770816,-19.85835713972412,-21.61126966068317,-18.527316681476936,-22.717422898974117,-26.23897579592322,-21.600264387495134,-19.70172771682206,-20.37069590802652,-13.605153605380773,-8.28813835364281,-11.629671817521004,-10.977148279845895,-5.34372865173242,-5.715687069526625,-5.920015964267274,-1.7124081205676003,-6.017098241830883,-16.534277925497587,-18.463231685005756,-16.804601361876145,-18.00085186981795,-12.875854022051566,-5.735949663559596,-9.675380490746775,-15.663928937961874,-13.962605743682925,-13.705433475134988,-14.017759387838975,-5.509563992645685,1.6240139334408041,-1.3046347511701402,-2.911626769140384,-1.2933455175931134,-4.581682923860004,-5.133495556820474,0.8924644129094554,-0.5276870965900355,-9.128064689888172,-11.621338115435016,-12.11129972310739,-15.53993615494159,-12.336357689452715,-6.206367779434842,-9.264592991087266,-12.70905550927254,-8.883089021192006,-9.154305276050026,-12.684982629347484,-8.42417086236813,-4.37418005188516,-6.589723029398046,-2.7454257649536116,5.335580739738452,3.4951531159104263,-1.7744863805620779,-1.515209998270528,-4.478941321733244,-8.458075363501546,-2.1859172077710243,3.709691414240666,-0.6751599459552242,-2.1929039923835054,2.18113612399467,1.62593692110322,2.474711967693214,9.885274636232046,10.10806310260234,4.423875567597393,7.614788481666775,13.204326622213383,12.782736726744721,16.596672595345435,23.29779535845702,20.707809945644588,17.42090848274194,22.607481340915516,24.423694510209813,21.173722415087475,23.508472215401373,24.181452558358224,16.711821210272756,13.99984038701457,17.082690124463024,14.01200692662702,10.19464451766595,11.439184118872205,6.263018065202917,-4.461512885705002,-7.779539514698149,-9.21992415866426,-15.355094902509768,-14.803831196982516,-7.777524264267523,-7.411716948070388,-8.399718308117379,-3.3934508802346395,-3.5330467841035045,-9.013654112500543,-7.597250476464117,-6.2497238002173425,-12.427487004252342,-12.946211539096309,-6.353740574718013,-5.814244065580402,-6.913116543620134,-4.069529137806351,-8.345947444290609,-16.626079542358276,-14.154440755339145,-8.319659656677633,-8.914239978248782,-6.641376066657994,-2.7673324732063795,-8.717740755349952,-15.249201647871267,-12.384292101032452,-10.805067155210475,-11.99611603712339,-6.328223018675594,-3.0918505866727575,-10.217401141553655,-13.30120168210032,-9.196346191229306,-9.62087167219611,-9.968240766907332,-5.576408591004137,-8.358489218449163,-16.38962765577063,-15.162980069164028,-10.259578966666872,-10.737262579504158,-8.339612399893273,-4.576376459578592,-10.373774653314653,-16.35490679051351,-12.834050917661688,-11.217826695647913,-13.915796633523462,-11.244131003193203,-10.336030409141095,-16.90550032590186,-17.19709356997451,-10.665307870895862,-10.937293364756094,-12.365113818893175,-7.00531536483312,-4.520050085743158,-2.0868842391231865,13.759014392857418,33.58575459688484,45.45472249105349,58.02384155278902,71.41911356430177,75.95400131509491,80.65436213063388,92.38837269615925,96.92551032918755,92.07288773241332,90.40783958534477,88.2849429054886,80.76225945472808,78.59997633196357,79.8290725139251,71.10339571352175,59.21822369360024,53.21108644853422,43.12881971010123,28.39112100904813,19.33301127010875,8.73760268678825,-8.472901892160284,-17.48382996889404,-17.391930656985583,-22.642483999720927,-29.839623866318313,-32.89586697683097,-40.01955409692976,-45.46524067433916,-35.51127229471062,-21.826334235911013,-19.067931437615826,-20.27080808141797,-23.798458955617875,-35.335909216193,-43.67153658540462,-43.03128991883056,-49.61396997436705,-65.31441565116046,-73.63401505212109,-74.83442329798478,-74.9666289059834,-67.25458296599594,-57.915130136592495,-61.6457580446579,-68.70097822821563,-66.69810241056058,-65.40395658215837,-67.35418906770448,-63.01617024797481,-58.71630145056925,-60.5489374397359,-57.150240352443404,-49.1263050654711,-48.88308141450345,-49.451709599512554,-42.120947137624185,-37.19811349748137,-35.36166050066345,-26.36349591246767,-18.90866319362054,-21.4853741084441,-22.024867937767084,-19.159918779723725,-23.928834433175815,-28.63349708607207,-25.38210181600575,-25.852115341384465,-29.979385916496142,-24.945881116512382,-17.97015684731929,-18.442454468795077,-15.472465691766946,-8.152156362793615,-8.703565033202366,-10.259069772268358,-3.4257148375400934,1.6735633442558124,3.9990575176611194,13.899315229097692,22.32657108739555,19.172220857133613,16.735525201691114,19.9747853980359,19.405648707899168,19.37197544969272,24.14611599805674,20.89593698292839,10.205917996409056,7.6253078708067505,9.729873495261916,8.02023409785375,10.857966200921293,17.24243182011133,15.4475929343945,13.10134500817105,18.973234481805008,21.937834297466058,21.177059695846012,28.595266176919278,37.17038365501568,37.44362122673736,39.025699807497745,42.28308888887664,36.8365352920453,31.85146499746615,36.507849950548035,38.195164506008545,33.5481005720523,33.273549490065406,32.207642478132854,24.598992417198943,23.036439468760964,27.7503716519907,25.049245302736324,21.11064477992873,25.108015454884285,26.657078831001577,24.863445196867524,30.852069770019764,37.09298128703854,34.40793565407016,33.879125139988965,37.442318174054535,33.122362120468495,27.052506018268584,28.193625355198073,25.654353528828953,18.67108922733686,20.26128199683379,24.436777127677054,22.470835228852067,24.786718980258158,31.28568605680567,28.952697441635756,24.174840522424773,26.12318312674261,24.93070813478589,20.33344201646389,24.09748686835857,29.359097007099976,27.209929134741266,28.103831939200557,33.219743379115194,30.761953367405688,26.424832098532868,28.018108206004044,24.811805386455866,16.43062017780631,15.573300169640996,16.51635325885765,11.068232271718097,9.610562189390537,12.138554218753551,6.372255923896175,-0.5495053682207511,0.15604523858182895,-3.153023494849473,-11.848176146930875,-13.51882090588514,-13.687748482024132,-19.19169540822279,-17.927674975276606,-9.663622367571788,-7.925563002527749,-7.014995686067624,1.7503934392034965,7.477014502416013,7.367379251414418,10.989511425047107,11.94789570497663,4.204565348063564,1.9649630903473103,8.101111951990378,8.36129280578065,5.524962957495092,8.47223407720697,9.202570473601801,7.815257275356686,15.116742436174501,21.86171098253028,17.27391281686708,13.833401755816936,15.841936631002062,11.060384361564221,2.7382853016263766,-1.5153130970135886,-10.129739396155376,-21.151585519316868,-21.180734876561758,-17.87908695570741,-22.854992553183138,-26.58284926520867,-26.57598711679522,-33.27993102222363,-40.29218470792093,-39.66669137556706,-41.00549540940975,-42.27043032864047,-30.762788750343287,-16.083523083014697,-11.68963877215119,-10.146853096492848,-9.452171673620995,-17.406520083921503,-24.36050931547974,-21.479953419104177,-21.530696964174165,-27.09211633769484,-25.209747006428948,-20.12468103805388,-20.060776445311276,-15.542514519553492,-6.743883209773078,-6.579359571462009,-9.137338020438198,-5.4469480594608335,-6.077215742918039,-11.811993899058121,-9.785046377101658,-6.579886999707309,-12.156978490331433,-15.309330003881563,-12.704043917814403,-14.936480084891219,-15.57750290157079,-7.292100569253906,-4.751286930061757,-11.319770966230031,-11.497213545979731,-7.36629410252534,-7.079857398067468,-1.6222020468130154,7.6574467518844225,6.744927272743381,1.9972904763460118,4.391609949428701,4.717500247677423,0.75521601214527,3.6754751774141265,7.556342810174073,3.49456489532451,2.2906408840170878,6.120448443115165,3.349476942296996,0.09926033657172195,5.593226037680372,8.208274872821377,3.9017527566241985,3.506332061184639,2.6335848467304737,-3.9048391252990893,-2.4945512951342597,7.27232723273786,9.118972668607125,5.509814837138078,5.364452939101933,1.236476581621805,-5.422855050760324,-1.8694731412898968,4.745252493090553,3.3036030419296534,2.579094302530238,3.003797344262913,-7.747964285422977,-21.176166446168658,-23.38176559819433,-22.73051905106658,-23.475740941601266,-17.58220709064434,-13.130161951860282,-18.11293920070628,-18.891208913688573,-12.527728976703173,-12.245214950424883,-12.983141652681343,-5.460176312441204,-0.2966268153112943,-0.5236322511106435,3.5603217950336643,5.469463457079506,-1.3191642248921878,-3.5219649640889026,1.003393446995014,-1.322724210083669,-6.160195839434117,-4.225677860555756,-5.278411815768851,-10.902990473162811,-8.365133814245691,-2.3931828783998195,-2.034454442089914,2.4414142882427585,11.098723314977018,9.428092927623842,2.8038403079756264,3.150261444110802,2.7215546672328417,-0.5288599049001339,3.9004720120876186,9.85242826256618,7.746836988492573,7.835153170362091,13.33760786051023,12.133212718221767,8.1064734107377,10.418330674102378,9.319207797530886,2.938274630597734,3.8909326521543726,6.84638631735443,2.475866790444589,1.3970209088306693,5.657242949937482,3.232837834502752,-0.34123401337398174,3.4045016732598743,3.089121004197243,-2.8952715461651506,-1.0397050295748353,3.4641268640721483,1.2147043216273041,3.0062783851042703,10.469543858264608,10.188782677595876,7.1507079982727015,10.7680296424581,10.183095504143258,3.916693914564056,6.735093661876342,14.695640065799262,17.76398137483518,25.37521428303649,38.69202295176471,44.13114820043345,46.51469975948874,56.03817498990847,63.01191753183625,64.7812885770229,72.72623845383248,80.19057463976515,76.17444021118739,71.16885978196431,68.65698694370906,57.59982619838385,44.86871038478415,39.835335009971125,30.19391948031089,13.39621485177301,2.91361440372835,-5.747232385836494,-20.205580418220038,-28.026888944309434,-27.833846229640585,-34.139623474043866,-42.52238073054026,-44.08177454515323,-49.40491011377263,-59.67598832354697,-61.686624154340436,-60.395961919761696,-65.12396701174785,-66.20595022459352,-62.54818145150154,-66.59920845380577,-71.88839676077998,-68.04078811720458,-65.59416986901755,-67.77573931537519,-64.21381506286282,-60.528276237375245,-63.37521741072158,-60.41486861568003,-50.59276274170473,-48.79675661500448,-51.81506392662355,-49.942590767533005,-51.13672461172493,-56.03210861892718,-53.294471009884845,-49.49590607041718,-53.337739318460535,-52.85202868986613,-44.877814813291586,-42.33896554161577,-42.34912706752826,-36.99012399962827,-35.19220690383959,-36.78073872377316,-29.05816159497742,-18.810747658885603,-16.80181953332245,-13.336034100269089,-6.102365142934195,-6.217507409316819,-7.788569560536881,-1.765133884425415,1.4252342042381354,-0.3553733719169354,5.265983145547428,12.882820068231679,12.165050793820223,12.849258360697965,17.710936650634196,15.300208274032622,11.330118106106152,15.47048447416188,17.3444262002549,14.658847981375473,20.049980177217204,28.15221489476945,28.333005273678623,29.691931045998878,33.88794226373358,29.090087966505415,22.469593503437522,25.271780135484683,27.036925083219717,24.278083539747588,27.998912351169572,31.71817137310863,25.462061167511802,20.508496403014988,20.930071478576203,15.396543915835124,9.183465621683393,12.261951831771192,14.388920005838393,11.884865598514722,16.03742972898173,22.159703482292805,21.3110174594634,23.579522682840775,30.901551360631338,29.972299578510587,24.246070289951106,23.465244248727817,20.30009523945311,14.776381289359097,19.370173141997896,27.957744202926563,29.236251120703052,31.58860698239237,37.09001866354186,34.31166225686926,28.595783366099177,29.94530737454512,29.209756765982423,23.646582633306664,24.419749585702096,26.008276828918504,18.526366349508415,12.943327114745623,13.946050604172054,10.715734327404489,7.89618039436945,13.673180347300779,16.3214601480502,12.575205666436556,14.853760609613806,18.382733903242844,14.06942165212619,12.643653685271088,16.055227145256808,11.46388816599046,4.2085600598316235,4.435752763674664,3.4016762990474874,-0.1621740221059278,4.432696645528479,10.109875330334946,7.2864715733688605,6.803866195793196,12.25167398509967,11.799950644876475,8.075848628645533,8.470327428295338,4.707521632369835,-1.6372386828105456,3.062481810178991,11.329518345772888,10.616723279321302,10.077929668603872,13.27203336062527,10.10042700690168,6.040709822552847,8.549957239440063,6.468334095516215,-0.320146168762788,2.4322780462078257,7.927966922804617,3.627337798050582,-0.7381474036683131,-0.5904012915842711,-5.485140478716272,-9.752149533718041,-6.370713374971642,-8.639231712798074,-19.265908633221652,-23.011558331962142,-21.948848670434113,-25.284026225381922,-23.106736415819967,-12.262642325942657,-6.0096054736724165,-2.521573682556265,5.963078196668343,9.910732546384539,8.719710392076196,16.807836339367427,28.5175848030443,30.0249973855899,29.379482606315907,32.220047658992804,30.391081121858036,29.696146613205215,36.865807249254345,37.62974284654438,28.037180234443902,22.862344145535726,20.566198486417136,12.780316783834568,8.836397521086848,9.984708514331837,3.1900188659510165,-6.425294594022099,-8.43991674534739,-12.037068331529316,-19.5011747059902,-19.615083767380927,-18.042559907169707,-23.386362196932787,-23.8969320383826,-16.97514672519845,-17.11528430088645,-21.801497808833755,-22.350023782365817,-27.887140002656373,-37.85549773434252,-37.509474129054766,-32.30047735112636,-33.64277291710041,-32.531527441362286,-27.144533497304955,-30.27308725439862,-35.90856122272607,-32.451176570897246,-30.024877559351744,-32.14848143165973,-26.836709116080428,-19.89704527239383,-21.093862112746976,-18.822578672354002,-10.506341922513451,-9.846773466899151,-12.639864891941373,-9.858893802490321,-11.955426786942025,-19.971462688425056,-19.203672726574208,-13.759687955938794,-14.605242140539367,-13.469729026965364,-8.944341058918265,-13.114609222566088,-19.276225720002344,-16.55447308356593,-15.991506621022705,-21.33049362488017,-19.903923783285723,-14.645897118313773,-13.70954508429514,-8.567125352529786,0.02903267813510313,-2.2764647025357405,-9.868980878910179,-9.753201048980719,-9.340415052285827,-11.365725193846304,-4.7397073473103255,4.105286749136737,3.093497054045772,0.8436043826317893,0.7563224335726851,-7.1065025899131395,-14.589276938714123,-9.41455177525304,-2.8517932131862604,-1.8823944549509775,2.939169032130727,7.130503545212481,2.7936602776114716,2.3208588128160046,10.068259449874105,13.286994082292146,14.82445895543686,21.894088481077176,21.89567050063041,11.901035176605507,7.734182826541555,8.62686526812758,5.498356518638955,6.709080385160093,12.997323952120997,10.335980822014022,3.875627835347501,6.002992701214337,8.273433420069601,6.943985442751479,12.37446911515825,18.286897555644394,14.03342964425632,10.245916035391156,11.79402444374595,7.557626872905059,1.108515685546695,1.8636915784595542,2.7188578287193144,3.4679375266490737,14.799416055148631,27.290096416740695,26.648383966939946,21.75657728015421,18.71997375656614,9.628594913180518,0.45219360028865596,0.03430609865268952,-1.6786264792141736,-6.535355550597432,-1.7211704325477144,7.075194534280854,7.964415189448711,9.961076706524926,16.1728885022335,14.024487537174426,8.109973298005176,9.232710961528188,8.000214872196867,1.9162200951896518,3.7462039937710996,8.024472343243882,3.408384568581396,-0.327221760765648,0.8317116314067579,-3.9816045690480912,-9.07101384041515,-4.58800208694304,-1.93381872090014,-6.1470699398480075,-5.526195282048079,-2.4864588454554166,-4.525543847501736,-1.392568115327258,9.275973260545957,14.741519195248518,19.31383816259517,32.966954990171246,45.08240541778662,51.022662781096386,62.43721839540444,74.59017583674898,76.11888999580376,75.94269800215969,78.21500942286929,72.5551017493973,64.3109630152224,62.13358398924157,53.411939848066126,34.60969222809987,21.175421649973195,11.630889481771852,-3.729833525987652,-16.554788250250272,-25.05702644758128,-40.27101514910575,-54.45663869445467,-56.364937728714494,-57.64249857561261,-63.2459421298619,-61.78132796602545,-58.42659390266175,-63.180498793541034,-65.3213474472702,-60.528340168938584,-60.498804540776305,-62.56443495780487,-59.47406660847021,-61.74382956012438,-70.7799148071448,-71.18083708165763,-65.4106183257224,-64.85233175901203,-62.434311119211024,-56.631690404823814,-59.624626705949616,-65.19439669563717,-61.437850240323606,-58.0684213194679,-59.729774729589465,-56.16619564761575,-52.41734167254569,-56.3655596333265,-54.92229785763878,-43.25842158960803,-34.96649043601583,-29.44862543995933,-19.80323446145371,-15.744047718061283,-19.09277705785026,-16.74516465800796,-11.914493817927369,-13.795761019726786,-12.755448916123715,-5.844564728974826,-6.066182796875853,-10.053700579856747,-6.928049563084309,-4.4973219591627895,-5.356666678481738,2.029540055411785,12.050112092715374,13.477154881612393,16.120014849065512,23.764351647039422,23.809374695622758,20.255262418609938,23.703017778237417,24.67543243725267,20.09925956597005,22.911111214319043,28.75916660372259,26.99537050790947,26.744230527941532,30.129512990963047,24.46180112482228,15.259043657016292,15.030280422510295,16.102631582465353,15.121439958791512,22.557414179909447,31.615640285715394,30.267007373299357,28.685252733103177,32.05355452010208,29.549895277888133,26.136130296742994,31.3939847837763,34.12058445596173,30.454009843629755,33.55418951038791,39.821208098656,38.7058373404893,39.28984668598394,44.111013619895544,40.09806695646586,32.11883389629738,32.47387988411615,33.27342744725611,30.40790277380013,33.196210757243314,35.23369246428793,26.556190142904754,19.826016558940026,22.635483596057423,23.6469591541801,22.98568389773181,26.230163667657713,23.649231013519923,15.1331182099837,14.873643447482433,17.742483081172676,11.16830837001827,3.9797971308724245,2.39290322741895,-1.854103310741737,-2.9671408986404217,7.148212436366271,14.350960776899987,12.639704499019274,15.187513156009,19.089189531409797,14.347575824279375,11.07312911284307,14.099060412670687,12.484113172042559,10.184516515812732,16.249016213852137,20.032798837742394,17.633237676132055,21.8240595977806,29.14258798835489,28.599434223574008,27.934176683440143,29.887635426388318,23.648262193081457,15.598531760441698,17.373964322765715,19.065136017975068,15.515122968923436,17.35427987696125,20.57862010076945,16.6739329417966,16.238502681786123,22.04245796888128,20.309640823547493,13.565760717231981,12.671981011763137,11.233406559192954,6.899633076171037,9.335101562913806,12.081102619673931,5.2784471723662,0.813073659399338,3.9529159687831443,1.7913502227061817,-3.984265501833417,-4.623369614997339,-6.135836415522262,-6.488185026078975,1.9371967628125568,6.81376740969559,0.5144814713531249,-6.490912865180471,-12.294707355085121,-16.94455274184864,-12.784792524122878,-6.618664329402113,-8.824011607380086,-9.263279922030947,-2.110760781266887,2.520757996474076,7.049336226934759,17.179060966486155,21.25940692330331,18.3489269039904,23.143490624735367,30.836585057821985,28.92977354039286,25.524514438953954,24.923534691806815,16.202323783142873,3.9902861008305006,-0.35519485471837864,-5.740008562330819,-15.814922684542973,-18.176311596360517,-17.223948434935323,-23.848865126558305,-28.23964905140948,-26.251577844581412,-30.198467610129605,-36.836694064813415,-36.202711332291656,-37.18176850707266,-42.65968528725866,-40.0979986856633,-34.1232647677225,-36.0605304969183,-36.206528750056435,-30.84948841147856,-33.02672955141645,-38.78035692557662,-36.91341372320154,-35.76136636241993,-38.08236048841907,-32.72320156533078,-25.88723645169054,-28.173768528531106,-28.299341249437155,-21.02831573056683,-17.91749436378474,-15.146646742077326,-3.8880790802088248,3.939135361480593,3.3406370638979266,6.481454120066256,9.49928681223362,2.623097345564121,-3.1613437773083515,-2.6373056459386675,-7.398078756020325,-13.738860119805418,-11.928444036490069,-12.36714402196019,-19.22137378908819,-19.16034783144821,-14.964993241061848,-17.896234823012936,-19.781707787253403,-16.98857040896066,-21.04716191355474,-26.9312406377372,-23.879453227847584,-22.423825409425135,-27.192580905601748,-26.220327419325187,-23.588419527634883,-29.319672879040922,-34.05414600003372,-34.010325285530215,-38.36351294787813,-40.09896488216043,-29.81851906858683,-20.60102499527432,-19.591182962158395,-15.528905147823536,-10.3187582615846,-11.267800713926142,-7.5024174857669825,2.1155229592783575,1.8539005395509105,-4.1387121780364104,-3.0973661964998973,-2.93525673085526,-6.58806747829214,-1.3366848173686705,8.573710634196996,11.576431618090155,15.782307791740093,23.11105137491253,20.180658716191978,11.860350657944863,10.324173303179496,7.734446464560006,1.676911354249518,4.154893460787409,10.16650734758228,9.651011605822978,13.331291232085825,26.036299810398162,37.14912017724169,50.434322419219384,71.84480950992776,86.67480785265013,89.39280015646355,93.14325100852152,95.54414671268025,87.62649252656053,79.79451497331311,76.51730032829764,67.15594960668585,57.48387592872679,58.02598264464121,57.2246042418993,49.43556722937423,47.4011807517128,48.71961700184747,43.659589766301835,41.79282647234231,46.44597993298544,44.79941224456456,40.46283616395175,43.59176110984396,44.892438617409226,41.069784865344744,43.94886251215122,48.561332765029874,43.39288452732813,36.96422470804234,32.830835121423426,19.680510651269636,3.1783169239043367,-4.700936318073555,-12.218539662397585,-20.5889035051911,-14.90802693642509,-0.34544055223313475,7.927963884668982,15.355836687499103,23.375112152643084,18.983244715139374,8.299752873376327,4.767153234592359,-0.33043766309725187,-10.430102947232152,-11.673880215240269,-5.786064320394433,-1.8344537633858613,8.682914712574082,26.227378089971168,34.14882360602028,33.109796148543566,34.29701796013148,32.558539075896,27.21799120628784,29.435377442966594,33.31649250712176,28.74488109184992,26.995898452214217,33.727240228787565,37.15359722346314,38.76861772362878,45.93902748530562,48.608195207893345,43.63389813603827,43.003325727957844,42.26725661911397,31.297287582341532,21.17712905304333,16.95633880765655,5.966891592497518,-8.287802731483838,-15.065138500020728,-23.849667759542143,-38.34686219367227,-46.72028540995984,-54.69817148218365,-73.74235125917153,-92.66441402089178,-105.07858961743392,-121.33518698395926,-136.22444518422526,-139.8965732096956,-145.08435123453762,-158.3447897922384,-167.24592799502696,-174.38950925824741,-189.07511155211031,-200.30806712309658,-204.1461329632606,-214.22684118995792,-226.09676690335328,-226.89521287018886,-225.63728532511112,-228.04394268552437,-224.55313932037302,-222.11402778059465,-231.68192175854384,-238.67360342696537,-233.05976157319148,-226.03874861007256,-217.436836319471,-201.5427222197346,-190.62170490775117,-186.92556109409244,-174.57834280050147,-157.99892882128523,-152.3416646364176,-149.74172102696448,-141.40452491128923,-132.8566363698817,-117.90001870602646,-90.62437732817814,-69.86096417216841,-65.58345835847535,-62.722327779332375,-57.826006216617856,-56.76883824142676,-50.09269769179943,-36.788905754681245,-31.71513368684056,-31.40819838805479,-24.52131747908679,-19.617397810452474,-19.948782882397317,-13.3925194208474,-4.256877853086128,-3.326322996603637,-0.772273292572875,9.222406392295271,16.573057867318955,24.501654761287874,39.871008741460926,49.20979990054492,47.065037945900684,47.04866353801917,48.46221782470208,44.63546938724809,47.54700978359397,61.06284800978209,70.68258064585837,76.11029278263548,84.89899867365322,88.988846410315,88.353247067677,97.81974448466154,112.32135138182298,116.46662242861076,116.64541269518548,119.58418649291212,118.38462143288368,120.74532290462969,137.57668311603751,154.63818232708013,161.78471312911034,169.77360592910443,177.64020354512826,177.8636164098497,181.2590296120549,191.04271430190016,192.68418481562884,188.76938960728938,191.1819073795524,191.49258044042728,183.79958014668912,178.37531537051024,172.16254563595064,156.75299460026906,145.57338585031633,147.50928849190797,150.61451769892216,153.29104269337634,159.65078045830833,155.46681940028782,136.30965033568904,121.35916000139082,116.7700528240849,116.13636558782972,124.62271299503129,137.88270592629704,138.00679250846628,130.10889667259963,130.82427281287863,135.12428880307476,138.48938736867302,148.38762574935987,155.62208525917927,149.27915825821776,144.11921606576044,149.8080626974977,156.70693186541135,168.77349814803367,196.38807694250644,228.6559417164038,257.5438884625499,291.0163937217074,320.7803944705306,330.9029516844811,329.39245312761216,324.6965916169737,309.43686218706307,288.74299555204595,272.8820351397528,252.80981457429,225.6669137506126,204.93671012476614,187.309398919718,161.05194855506312,133.7063385473242,108.89810243288618,77.23046278029676,46.99639622755397,30.288697631860252,15.254659181902122,-4.1155758752872575,-15.867540247239042,-24.305706793437782,-39.93278999554401,-52.283104377615224,-58.20346625382764,-72.54886708273196,-92.6117072003795,-106.87032133772433,-123.32906430089272,-144.69920623009983,-158.81212944104095,-170.95719477310237,-191.96703020305387,-210.44693600013204,-220.20213589143486,-232.92768403229394,-247.00805295795186,-254.68876425411437,-264.9261942231375,-279.19514231941184,-285.16378180003755,-288.38402907700873,-299.6424953881403,-307.7945017995675,-307.1959989011534,-310.3161566158876,-316.3431830194863,-318.7148406152158,-327.30391526848155,-341.60061535108565,-345.50626123855585,-343.72558577144514,-349.6485937928254,-355.3381336055823,-356.96963338663204,-365.36198609769235,-374.7924422369446,-374.0846180306405,-372.07774724091024,-371.4894556012664,-360.2400290288291,-344.0324054487345,-335.3178486632975,-325.5882077863787,-310.0822259537467,-299.3226569997957,-290.3181544719734,-275.14240474811845,-264.12231004086783,-260.390109233076,-250.34713231734193,-237.72376608851218,-235.35449312256443,-234.8995049030032,-229.60628279617532,-226.9190372349588,-219.93519205205817,-199.7552936078395,-180.62029339462356,-169.26890996704563,-152.6358744733898,-133.2364145343688,-122.66292253473652,-113.92735829473649,-104.35334170721531,-104.09021794709665,-103.88581618095965,-89.51434373879185,-72.60353297492584,-61.48217511325238,-47.13405080583227,-35.48526213734186,-35.86518357471074,-34.45088670039176,-23.85680645583122,-14.8426899532945,-3.739474045838008,17.106663622180726,34.43425522705206,43.30821069217825,57.46846186553907,74.69977921523535,85.31393300906805,97.96043968221873,114.350497233159,121.34372009803442,124.30285854348709,134.92483556499678,142.6237503152626,142.63700037106537,148.29356270969456,157.13109340031477,159.66607845930204,165.1106256765514,174.48221683522243,172.87033223247377,164.89462671875233,163.85906782255717,162.2231445239018,156.9079633641135,161.41321334047933,172.85206418624915,179.2122686524216,186.03475757259514,192.79931232925384,186.5540536522778,176.20456868458686,177.56986437656946,181.31902000003777,179.98918007787753,182.88611136236838,187.20584338154472,186.20544768360134,190.34909808916305,199.8201618550375,198.03868096165027,188.2127891649007,184.6876640165869,182.85620258684725,179.90911253409973,185.813503993608,194.9594803614126,196.33709965390034,199.2794409926099,207.4942808676572,208.64386906190703,207.20005685782897,214.14381448670798,219.16320284475762,216.66383865343673,216.85164842481743,215.19844893729325,203.81113078108075,195.39007608295037,193.72864327738606,184.28139285070617,169.70712893260128,161.6317278823451,153.5087044365617,143.99240041379633,144.67256961703825,148.45901311924453,142.58768856549216,136.93242639273507,136.8253912790943,130.4897109716266,122.36310852513452,126.07729174040068,135.77564084285012,147.30187559564854,167.72132395982538,184.91666120864437,181.4758603555867,166.74149825684592,150.89974753005282,129.09846320585206,109.5293797508997,102.56729732236693,96.09919381239865,83.71423595045415,75.23501882235799,65.65423263695696,46.53651190073525,30.04580023496425,20.24166919324529,4.444779565971828,-12.569179383123153,-18.941631236371286,-22.219265493674108,-24.346023780371205,-14.64529919552696,-2.0369098144185056,-1.3670759941517439,-5.026616288656684,-7.804162483925613,-16.1709727188768,-19.989367018586517,-8.14980468324805,5.192890728023054,10.526852484298196,16.293721164540493,19.064580343481865,13.404472658151924,13.40097490521346,22.05188124373064,23.81728569997341,22.00273244766192,27.214532650739372,28.396535591254825,20.993454759767793,17.578486583677485,14.830192841167815,4.252750196541624,-3.45314908956479,-6.536611508602074,-20.073800614300524,-40.46153014746392,-54.70560459480414,-68.60151764769023,-84.01217560823832,-90.24147795740129,-94.03154578241288,-106.7461867884002,-117.09690535817128,-118.57954636640079,-122.5436685131147,-127.15270834949807,-125.35277093052824,-128.20029864892797,-137.96598751275462,-140.19178048100335,-138.60022118443015,-144.8474307070066,-149.6638046559868,-147.5831773739738,-148.71488476248877,-149.22620075915898,-141.27716489861808,-137.00334961472385,-140.57109809597074,-137.51116829266198,-129.88208184109135,-128.76643762789377,-125.30815597300396,-115.52912686003381,-111.75211991685053,-109.64163350396555,-98.91544050288576,-90.63902982620809,-89.49126433150998,-83.05914216633482,-74.74882835394584,-74.34208809943638,-72.38887658347599,-65.43327020650273,-65.25416698218054,-67.51522713047345,-61.54610555632112,-56.21969814207067,-55.67891210175041,-49.490928521211245,-42.28410831971972,-42.93668274916266,-40.51404530353597,-31.56040230755037,-29.361185432067295,-31.23944227281519,-27.32379479704023,-25.20595866844946,-26.214124033037102,-18.570610598771605,-8.737549039629533,-8.50941644765894,-7.532577860009535,-0.8185251049467497,-0.32632981041832954,-2.3356646489177755,3.4597829790856762,8.205407921899301,9.340060934962654,18.69787698317518,29.47113977951323,28.296823335218065,24.385082722706635,24.02321627961858,18.438208353833474,14.240129750222804,22.456780698793665,31.33000256554027,33.430539201664544,38.27102071261835,41.16745137143764,33.01851784788503,25.90480066377857,25.15574170044333,17.934638185138304,7.6106627972071905,6.151112502136783,5.989536369431278,3.3990141525665534,9.184866093165107,17.254761280781377,15.644343729019461,15.345383971737046,22.494061074825904,24.4901340206435,23.557306286993963,28.798936325579152,29.763390796174544,23.306319227845137,23.960958155979952,29.203038188851465,27.35815860626586,25.670579335652704,27.55549326032208,22.910897294732457,18.464117507673695,25.699925751855844,32.379747729089566,29.804306796437192,28.561983086005462,28.61415865765932,24.124610703316918,24.375939220492217,29.556640196226805,25.426273468107283,17.35506147025537,18.783919670027124,20.750000925462665,16.511147139507504,15.955231591035805,17.160050768438428,14.858084082981927,22.034516773028482,40.3028630215463,50.64724351852475,51.154714607525804,51.20364959023936,44.06579785161996,30.205854338411974,25.575207267878902,27.479749090167882,23.99148970428281,22.69520886372222,26.326491537487048,22.024541019627065,14.236527841806822,14.862785926542289,14.856049900455982,10.200069042200209,13.038734291079455,18.573661621621405,15.251091633440552,12.37972330884989,13.649342226975477,6.749991920501298,-3.305929146623659,-5.07430225325362,-8.546065309802195,-17.51107875130483,-18.893060469184256,-16.888781084897623,-21.86335852067626,-22.054947576340265,-11.063700242958724,-1.0039554554184933,8.792931437333083,23.781619077695463,29.56625617509849,20.986670843106666,15.258291450047489,13.918109532713052,6.982057097220285,3.2830256935177164,6.950527045326099,5.170573274333601,0.3690997264040248,0.5734719278094198,-6.199514784242456,-22.7835507791594,-32.37304039306555,-35.94889720598571,-44.954542982708375,-52.1054455123731,-54.773783780216505,-63.660251064817935,-71.46774683322124,-67.43414192435185,-64.64912971195787,-69.32855328978593,-68.62395651354336,-65.49595125002907,-69.43619095471966,-68.74311310078988,-59.71851752522207,-58.90639414230125,-64.87991498956657,-65.67645853426794,-68.94578492810962,-76.00195189327785,-72.4379502700672,-63.88507742604423,-62.56181477415305,-56.23345597309037,-38.824136116638385,-25.785513709875847,-19.583655457182594,-14.69855652964636,-20.16204103530997,-33.70845813859735,-37.54993802793341,-35.94108119357078,-42.93430334213813,-49.76319709028655,-50.192708743177604,-54.67319892954678,-59.40231129681209,-56.09126266585926,-56.67596985406584,-63.68158120329872,-61.85825544021819,-55.83710223278939,-59.39748019797901,-64.47811578881091,-65.95269050658432,-73.45640238030079,-80.84889883741602,-78.27697611496136,-78.89428304856608,-88.4370063870891,-92.53821820198401,-92.46622464636123,-97.49587710164545,-98.01680436487445,-91.54028053075321,-92.12055615497324,-96.40740464278342,-93.20195673596027,-90.38869082740105,-89.94427542803089,-79.84030657682865,-66.95206185073592,-64.85203078005735,-64.93901176963324,-60.71143750221677,-59.01119914063291,-53.64233006846169,-38.65171593733274,-29.914061547248878,-33.35222530152391,-33.964435628896155,-30.55042422942736,-30.256991763002322,-25.955559640268156,-19.69711023065778,-25.97782897225809,-37.256573003987384,-38.35881448054484,-36.880789256674404,-37.339149476369926,-29.938287625072235,-20.91048092586504,-20.25612328222983,-16.7469229351621,-6.792679175611061,-3.655015319705669,-3.5509817604277982,4.843689228009991,14.3199588614379,22.440716134884635,39.36309067635619,57.30131664360305,62.025995309824964,61.48274590137056,62.562633892318075,58.09476638779192,54.11343624339059,59.28196010612685,60.934908446891995,53.59599978575996,50.11842107219721,48.78364133757058,41.62858623494703,39.046725982579034,43.71538875490789,42.361945163203096,39.39040779355164,45.24653011012606,48.64967325482472,45.21349181644449,48.33779461176637,53.59164461967984,49.38211929466641,46.49535877325324,50.22482944070216,48.63768247482093,47.136562706140126,56.42477112329246,62.48511261117624,57.78550962732275,56.40272598895572,57.64681415079447,53.01822388890362,52.99104760738128,59.823745786752085,59.015620507628725,54.46470590532752,56.64124382053943,54.72980901669763,44.85533416295178,41.155060505274655,42.39030504373293,40.46231786856105,44.459750171792365,54.09453373090368,53.92221585915573,49.310655533993106,53.605152228615566,58.21765133362371,58.96669796902755,66.11020271157301,72.82320912110154,68.76608934395745,65.57864177897252,67.04540571860397,60.64532261478776,51.94990706908519,52.378444625335334,51.82027976775215,45.85487823893543,45.49449509188106,45.09475221635796,35.38541113574257,30.173570801359833,35.07755592441592,35.04651920726413,31.086926502798896,32.306571457014655,28.809078573549392,19.991400647760514,22.845611547269332,33.96580204285754,40.694194877157344,51.51853703196983,69.59844774800372,81.87519285350061,92.05098081884603,110.37628485689729,126.17357841680243,133.71672009209783,144.1395481563919,153.57992684489307,152.4011481179851,151.68705459143828,155.37633136931646,149.2635954733826,136.19553762001647,127.43678540851047,114.94038802250344,96.29886315976267,84.56199921008646,75.78537315092846,60.317902016520634,49.911516243798985,47.871598593725594,38.27707051930503,23.577159007192932,14.95828915463757,3.8919175498636602,-11.167208593497708,-17.77939830336884,-23.428162431689184,-40.21595504221457,-56.63795520498366,-66.59079824800719,-80.6341011283262,-94.09112066891635,-97.82552929485712,-103.4958137199512,-114.56323916557474,-116.73800158114918,-114.70468831537858,-121.74542362093747,-128.7048686134667,-129.225241723852,-131.9564702295932,-130.638293893254,-117.87895717263203,-110.51269958122046,-115.66797482791547,-118.30921779974128,-118.56252718343566,-124.32231687106531,-125.3872208968841,-119.55005677806565,-119.99545163623023,-121.74459031229446,-114.72014732651441,-110.07504775951506,-110.3232975804451,-101.3251664071435,-88.21491127923045,-82.56569427735663,-74.88494985696066,-62.344015155648535,-57.077549363630865,-54.365445682074096,-45.38100848401419,-40.96796437599135,-43.51960070439115,-39.928577227593486,-34.76574908823304,-38.04808599229034,-38.76633070332653,-32.3491035557671,-31.302653337847588,-33.181746812101565,-29.61011005678493,-29.886141798812858,-34.83596970050795,-30.064067157011188,-20.30531690151558,-17.837775113597868,-13.698609158372838,-3.9175335081161498,-0.37737044974648026,1.3917960712328976,11.0460239747185,17.630324536704386,17.872809596440703,25.052334356943227,34.266182705201224,34.04931766761506,34.586450945031714,39.654914126298166,35.664884457528046,26.149052303264057,22.17823341907331,15.63092824945318,5.648509659444024,6.485583552909093,12.2120683453867,8.605390925563196,4.489278181633296,7.124952642525884,8.353651822677334,12.277180446791785,24.772607571560968,31.0844807369057,26.695088585340216,28.909729546403643,39.862813353690065,50.08406220912105,63.47970127699591,75.35698011337035,69.4492092391694,54.17239479200558,47.62596674037115,44.432931439511506,40.615151833820775,45.0333031402695,49.848190566763506,44.41104349438352,41.36027401908731,45.85710951240748,44.10447680389356,39.22324179778782,41.844248038476024,42.43586998720892,39.26215271491998,46.82740198715247,58.94568216973768,61.279823768754,61.75854375904679,63.4780869448544,55.350889854322844,45.04400635599431,44.56008097567423,42.15678794295853,32.26159257850284,27.276937584376213,23.616912644872897,12.348924326364951,5.915627974056707,8.90871307615374,7.259744323743624,2.6076364667446734,3.07834652277585,-1.0763950602389352,-9.899597229991008,-7.007886673981906,4.2486198442384655,11.077936590380459,19.616500505797756,30.600988316492128,31.320873790007198,27.710226872668834,31.16957368440178,31.935534348573356,26.75048250925925,27.577560073299626,29.315337532411704,22.299987558211132,17.858265276265985,19.982696288266556,16.184030631153643,10.948572720467537,14.53569967646856,17.165194608479077,16.279821707934936,23.918617371689333,33.18055463120328,31.21534285398934,26.59897220505647,23.788768840476887,14.578924108505595,7.694325630119353,14.212027070338038,21.084751816080214,20.355026188315577,22.472687177608343,25.962114227232043,25.12188254943824,30.976580942804258,43.572975295536615,45.71433886441176,39.80345867254094,37.81292410632926,31.676339731253243,18.175841939803426,10.198508261061717,5.458012798939288,-4.057816678871042,-7.93484568260676,-5.083845430991465,-11.715167449973606,-24.36166956870412,-29.136531828745156,-31.864099497831603,-35.188079267264335,-29.52952964115738,-23.879632681618464,-31.243321630310444,-40.201712374232734,-43.779985902697916,-51.26679868196276,-56.6866532371752,-51.01985480263338,-47.0339260008813,-49.22411682863276,-44.45555460320185,-37.14388073146419,-38.29071947999845,-38.13777144196544,-34.36591069481335,-40.673889094972196,-51.631349765139746,-55.67708589315531,-61.81748934380894,-70.4135414712925,-66.77769986264828,-57.68623246255447,-57.80782576818751,-59.53376797050633,-58.76307416112325,-64.67484000787312,-69.63925250679343,-63.62168387888997,-60.07387468457562,-65.14634018861193,-65.469865605752,-62.3047091048389,-63.92384523349328,-61.1894257116203,-53.27097313468373,-53.85748464200955,-57.6973565900923,-53.49302168166611,-50.100786106070444,-49.6358014744932,-40.53489921927313,-29.917385541412905,-29.258159911771234,-28.4088030765527,-24.294523782806927,-28.51872702622158,-34.02173586444598,-29.701347542154615,-27.145747423540463,-30.32569076600385,-26.533720946876866,-21.16136203240473,-25.05175564342782,-26.949766924852845,-22.23335853027019,-23.387204506785956,-26.872635934327537,-24.75440200781687,-29.384657950476505,-42.59567023483545,-47.1998638322447,-43.7513375887058,-41.25013657673554,-32.22444104597057,-18.493221392988666,-14.754453869770021,-14.517885309927458,-5.827863011472355,1.2763248094663477,2.858019320996806,9.839248636689254,16.306200036716778,13.04531269268712,12.334860755444815,17.871066484985427,16.517662410407148,12.95083863485711,18.067080975070702,22.719432305995078,24.267542055954237,34.32862056045432,46.254979620272266,47.93836551173078,48.73297680835321,52.601693674496296,48.558183614887916,42.21638537229464,44.165723912539356,44.44086871080711,39.16813477381218,39.02611959425366,37.75151364831759,25.36224952932138,14.364582591713384,11.163444569493752,4.851652784995117,-0.955912841655598,1.6833559947124868,0.48197581814894175,-8.050314261271847,-8.672123926686101,-3.3050031850154253,-2.4047744954651504,2.3115742119245732,11.92872259420931,12.055117945984824,7.592610537577381,11.361740926485393,15.282293594292401,16.22726646796189,24.85812661422303,32.756304586404674,27.14485284058356,20.051954390403257,19.491788278888084,16.574710211980783,15.554936958674652,22.956476018011365,25.087425986165737,18.788920832011726,19.49444988077121,24.467200528895415,23.253670276847036,24.35578678697292,29.23275404423915,25.563608419168432,18.778474447221466,18.664791260855928,15.95619078758445,10.833885296210996,17.7995718638272,29.574208441574946,30.545497361953394,26.701962652949227,20.15280251442845,0.3715111384136023,-21.817159437253757,-28.94008538560325,-28.80567723112737,-23.983813402479342,-0.8819474086813734,30.89649994484908,52.17497905157287,68.59324538801364,83.02705690754775,84.70331422084453,82.57906884854191,88.88276621724629,90.49042787845661,81.1626202422758,73.11953353415088,63.78947526865136,46.743764198668906,34.3092480325086,27.956663134800987,13.451056773334768,-3.0458522200754627,-9.387813744434734,-15.596690582020852,-26.118994243562767,-30.861961126289025,-36.264705593903244,-50.212423086319674,-56.80671206707323,-50.4102214657231,-47.61281590084605,-49.23523328866711,-47.24937650247837,-50.3005785049302,-57.82337380125867,-54.67134259519251,-46.64217590283499,-47.338358216235704,-48.0833357361669,-44.16712695527015,-47.85112743572468,-57.61442826851637,-65.30249721863832,-78.17185275583199,-93.21858750067227,-92.09060259192042,-78.27159519156366,-68.17739797912287,-60.60022169560379,-56.14030773468953,-63.12077386565673,-68.73684256008035,-58.107611630412606,-43.46069971364358,-34.172335458089854,-23.487363049552624,-16.91794124934031,-20.112936274952652,-18.224682980204875,-7.976518455173569,-4.628094750125209,-4.944180175870377,1.6098790523694482,6.051203319148455,6.4356028675904255,14.788549969602498,24.594141586676553,25.165098984539956,27.849678775729167,36.315605252540905,37.68574848608942,36.98752119999669,44.42187201980401,48.47839831773673,45.145471831958254,47.76358624730054,53.249381313242814,52.79300396729154,56.913902387197716,66.88622384648575,67.0907585672426,61.94196829047905,64.95891111546554,68.55183640842517,68.83752983445116,75.84821860864602,82.58676712293463,78.2312401544491,74.7977693892128,77.40130240774391,72.89520382254173,64.75595760680179,64.25237816700306,62.958650865415436,58.11660033623076,61.53336184114431,66.57226300626742,61.43156329323574,57.12330938398385,58.422035066287265,53.432961182713456,46.8765566074698,48.385217109327435,47.0792741198508,40.04066891503004,40.2387882652491,42.835788565727796,38.25719851763916,37.80839055069808,44.15487954705273,43.37998662677376,39.72931649500162,43.72508278180499,45.405822250368324,41.53193193993003,44.36301929886457,48.25139493558103,42.61169435008554,39.36184621378386,42.60380705370715,38.29939386227326,30.03961804931792,27.97662153889909,22.05348615545084,10.378887392143085,6.915960497022134,6.412686017339434,-2.103137045879759,-7.565662502589576,-6.327665200195199,-11.894618373849099,-20.52242963205678,-22.172049877961545,-25.999315775303433,-32.728171220462535,-28.485813929597377,-19.912677482849972,-20.131267360655766,-20.58714810153895,-18.520531357622765,-24.992116313035783,-32.848152939787816,-31.466170093739052,-32.30618362485806,-38.848232831242775,-38.89743914094365,-38.164549454018854,-45.883525402488814,-49.70021362538297,-46.27377967427673,-49.66722625218833,-56.83498434962187,-58.596792880844255,-63.98477726016712,-72.46952172309686,-68.95971804917119,-59.381183152836414,-56.98093193483063,-54.37400859784084,-49.98197601304055,-55.43135520298498,-63.3863922306064,-61.587636783386344,-59.37440359294776,-59.88388275010739,-52.01519387166285,-43.24038828305693,-44.92885529242302,-44.0240866770293,-33.57458455564321,-25.556461359254325,-17.352260914810525,-2.6663576639488413,4.984405955070624,4.830380740658855,14.065741082730034,27.760264491024113,32.23467119714806,34.55483022710132,36.670641834706366,28.634132107707558,18.78218930596296,17.202351864402473,11.30301111227034,-2.85298838337635,-11.826618121198024,-19.042321548528765,-33.87438777288693,-46.43088851131155,-53.82195046967805,-66.40715054914196,-76.50890442913771,-74.61954280066865,-74.02549342118586,-79.39201215915492,-78.47133959894337,-75.84917741589028,-80.83790879849965,-83.15298882082382,-80.67672644736648,-85.08844549974879,-89.11728880541017,-82.93643304149333,-80.38560551732408,-86.51583625601998,-87.51477578382233,-86.22317895385171,-90.69289856557538,-89.12803841430134,-79.55759621203073,-76.07950924995,-73.66820531154505,-62.565458356848296,-54.301799583180255,-51.67711605641253,-41.94539779263429,-31.72309680159746,-32.36491679499112,-33.241810874025994,-30.477268515093677,-33.80516619199949,-35.258986857753726,-25.36451547362226,-16.950423307002968,-14.80567866658589,-8.325080019229418,-2.8179572072009016,-5.638569117912754,-4.142146887090901,3.806103721594905,3.5387992456663984,-1.6424631645244938,-2.0253172080455686,-6.073090687225488,-13.59936485070322,-11.18244487535712,-5.687238412032038,-7.948871729937785,-6.6249904110283495,0.5743852929265154,-0.7978644388644538,-6.226748193728436,-4.94826675381505,-6.275404714932632,-11.302394400325749,-7.162562651876532,-0.8758373768216847,-2.809675645959376,-0.7676377021166378,8.270257003456344,10.150951055448658,8.679493686476981,13.560706059019816,15.387062195184487,13.44295488751375,21.034710466981178,31.213882400715924,31.98549855756528,34.10756409905349,41.48250789110659,41.425080605712694,38.83372316621952,44.12208819631541,46.80451503260387,43.84774819588495,47.22863401449729,50.64458467964431,43.95713551847808,38.98202666516313,40.46711428720429,37.332059635080675,34.15730384656908,39.068994938224584,40.36304353106368,35.886893585166106,40.107214707817946,48.4561952750596,49.75242188001323,52.74503898538841,58.328336563909815,53.29977859102807,44.36407541136318,44.02979828368614,43.26797829990079,39.549128924674235,45.75898175043898,56.16312582261768,58.15471762673125,60.07054120397689,64.84797972111765,61.397744973517575,56.52959516288778,60.613333611143176,61.94435434077687,56.827614105133236,57.90873412631147,60.966053632943066,57.69337777789873,59.81936564626639,69.58999702712028,72.57513435183934,72.34799472169675,77.97969034117321,78.6215384175367,72.68614911882628,74.25776214791182,77.55965685533113,71.39121403854818,66.8424142668042,67.40900227585237,60.26967569944523,50.90668411826248,50.07713342015526,47.709731760808936,41.5016381192191,43.31566162470348,45.67579130612862,37.609111773747046,31.178209485253916,31.17846910169793,26.078032187607,20.503005405490725,22.88353929549265,22.300207044124583,16.927390450638526,19.134312880880852,21.860542854611904,13.916262527776144,7.100929107655041,7.059627536545933,3.5620816839111136,1.5091759295779346,7.154154158352216,6.349659951165686,-2.8566640399106853,-4.459493535664487,-1.5965845538020336,-3.857190505466021,-1.5310424145104786,5.986065963694599,5.101876222295775,1.9957314687754693,6.503390319795273,6.863277656637621,1.0332340285210755,2.3951139014354337,4.353325006987572,-3.6622541632157892,-9.97570694778078,-11.152987168207625,-18.551687400776252,-25.058298576835302,-21.274731068374624,-20.493761110010997,-26.867184855888553,-27.611290880574327,-26.739788279172963,-31.314880498896567,-28.108359564023466,-15.097568501896484,-7.757673677161364,-2.7981986118067548,8.956178425962086,17.2787262977608,20.64322055232492,30.649169475347062,39.143439284821795,35.228921743917866,31.228907740104802,32.25612679886131,27.036034882568742,20.327582603522764,19.996562546516298,13.50751659766983,-1.3027151948810625,-9.881202607560118,-15.867165368607528,-28.141549786338302,-36.5009130466719,-39.457147998488985,-49.66888186669707,-60.84762885118134,-62.395203573820325,-65.090740458573,-72.08681258073571,-71.83533191103335,-70.74116306870813,-77.63075462207513,-79.43963959236302,-73.91982454450945,-76.03279723712484,-81.00930718723293,-78.54215950438908,-78.9147594953394,-84.90647935875384,-87.48033874769459,-97.12393473712719,-123.7192094070874,-149.83149770527444,-165.76600750270617,-182.6305131298231,-198.2248929659991,-206.32247189991347,-217.17855487146898,-227.01616639144427,-217.65488370519154,-197.13250240574442,-182.07226438232507,-165.38847817285102,-145.1524321520946,-133.17028165952146,-122.40964442868167,-102.86083358994443,-86.99055120702971,-78.4550087263938,-63.879543616333244,-47.64177259872121,-39.229832101464034,-27.85605084901446,-11.919771745555883,-5.871499637024931,-5.156138784881818,