309.84375180897166,317.59276828627753,316.00640195681063,325.82593576688805,339.69780039552165,334.6412908985858,332.442761375336,348.0004924774193,354.09902352720025,349.8842119531846,356.4089080745096,357.230162355958,342.38894679339967,339.1001683382101,344.8692487204709,337.33805191455133,336.3132395312756,354.0616606909406,361.8949726165655,358.43655229014416,363.13813466649094,360.3954724151791,343.8999514230322,340.8300151470052,346.486494487013,336.51350639874414,327.28303027006814,331.84383748842873,327.5461685962715,317.24782177148256,321.56630723359194,322.3974132782537,308.3290886269921,305.2134046764999,310.0048894390292,298.5810896215518,287.66167727324637,291.59992352441566,288.5157669593293,281.6384025934989,291.17560429423065,297.1495294197951,286.462631773055,285.51815743217105,293.53185963917247,287.0319813819835,279.4426030942731,281.43502841766485,271.6019877459487,255.35641155293078,255.0773115593679,254.64861219099498,242.09482876500152,240.41328642955344,247.34246140065977,240.42238739009906,232.7945796803781,234.8137815438807,225.72943017241013,211.25549147974448,213.73971645708124,216.9077511805333,207.8995609855661,207.5116668006284,211.13706749876116,196.84429727847234,182.04059106487497,180.81950825454948,171.4390282499927,156.22651241307784,154.9013929621496,150.54320395127644,133.43916742734314,131.7231606646284,151.03999273898376,172.21811578527036,199.218111986175,228.58235885203524,228.44758123998682,200.9552141990117,180.67691128415424,169.20987401100228,157.36274953194845,157.31328512018615,158.92567348997133,141.145806641312,122.4511444309577,117.27514961066557,104.04778192277396,83.29034514823775,75.55864147711446,68.65452434651789,52.304664133375645,46.04410946880543,45.31298809665722,29.94012417873454,16.500507402244963,16.24192049642502,5.525218242340022,-13.248827163178412,-15.988125420505318,-14.462298757516194,-19.755712946668147,-12.648352367746885,-2.2576945495091705,-15.08528350051903,-34.71700911968783,-44.93044913530197,-63.175669030858515,-82.54156467416314,-81.65247922925056,-80.34150251124115,-92.84321079296508,-95.2503420536529,-90.03275805883524,-99.27320850650618,-106.39526687055852,-100.51023750269893,-105.32536287514401,-116.170064460315,-110.96778376865431,-106.71025142710931,-113.71885082367024,-106.21837131981974,-88.10603029971227,-86.26853899739217,-89.34874080365283,-88.0575659886631,-104.29294553516478,-128.23598367402076,-131.8489975564161,-131.80176768283252,-142.65690238842393,-142.00932122158844,-133.85387758364436,-140.6764624400284,-144.8839589822142,-134.15621431950143,-133.1719813181153,-139.64257416433452,-131.87789829864175,-127.23413500764894,-137.3143115951816,-135.96686195421017,-125.12472092968628,-128.8591543759573,-132.50853761030103,-125.05166620425615,-130.23950524296873,-142.71175516813423,-137.99618632440288,-133.28535976229963,-141.4692811119207,-138.5488221747537,-127.97321565254805,-132.09019850705286,-134.09023707515513,-123.41291651550574,-125.11913239606051,-135.33786593973582,-130.41282069809245,-125.027712508936,-129.04220224357212,-119.57428757335907,-103.4649888000686,-105.70443090662418,-110.33320889986555,-104.23549315292921,-108.72077629423961,-119.35422115088753,-114.61297744589541,-111.69339874547296,-121.34661573649535,-117.89712951694183,-104.47185978726885,-105.42205864410724,-106.30106712851867,-95.95845947941025,-96.80623171782013,-103.54647328165184,-93.6272625706054,-85.30572708807256,-92.29127145868478,-90.86745305277182,-82.17480842794963,-85.91361971687412,-84.78379648575574,-69.06107112203662,-65.64982928475217,-73.41047032420047,-69.65596145365177,-67.79548192831456,-76.86308340356196,-72.52187745601032,-58.829055064457165,-59.94818494878099,-61.159467648673,-51.08468919540887,-52.91725609637894,-62.495221348803945,-56.01189669024812,-48.47682771372883,-52.0721061929752,-45.312791324440454,-33.64009749839144,-39.61837431020197,-45.31456938485824,-37.253442033110474,-37.13016314768983,-40.652502269474894,-27.580612981211566,-17.51060108045197,-24.058782341025562,-23.668143060417112,-17.51001526566118,-24.37262972949491,-25.914335179716954,-12.094474472954243,-9.839339088697393,-16.772193851806875,-8.873191608590464,-1.0091050000790291,-5.29595032722517,0.5395534085046947,12.224081908051653,7.204953014457408,2.605366003206658,11.714925794342777,11.663647696805956,5.2000582626391125,14.380516372605255,22.44782802446792,16.01691584553629,18.138315465712722,26.916751944696383,21.358383369931197,17.862263401177316,27.4669620758347,26.14170832392047,17.051681591146654,22.78514989176592,28.040721969015678,21.520855669724625,25.970900776597936,36.999317867851076,31.351003421370574,24.401606171605536,28.140102871172953,21.85178460136634,12.261780379784629,22.280851086481256,33.64081538205238,31.547642038825522,36.357037699074354,43.547736918550804,32.952212675572454,24.356572885768742,31.357150034745228,30.339703066897847,23.412169520729968,31.034240079600806,35.961636498440456,27.157908071222494,29.50125854767839,40.527017028387924,37.7985524251429,36.67774930388144,48.056783511219315,48.02903503151042,39.30529520689388,43.655845161667905,45.659471200250756,35.111193996626675,36.14925958387826,45.36556214818434,39.81745221223808,34.33563770595788,40.02028003388286,35.086656835360984,25.22196727796142,32.725139556535865,39.41711617441004,32.291798557742915,34.34221011735705,42.52034352278527,36.84111379498471,35.576834724778976,49.34899252925992,52.39067515927772,45.869818783656136,49.918284482666195,48.841918430813486,34.26958146764532,32.3160804213926,40.517111272176884,35.60806216158207,31.33972299355029,38.50815510688448,35.377112449415804,26.750157936246232,34.55718158513507,41.23335700953044,33.7007912244453,34.83061307937394,42.08816279047383,35.01225558805878,31.124664621396548,42.162080370442695,43.748636820993454,37.566522293482414,44.282073296184365,47.34402284023947,36.19731970621794,35.38073635179695,41.510099482880115,32.04437293002899,23.278347951653743,27.457334350024972,21.90291224796963,9.325844701713864,10.70341503039588,10.606131674709065,-0.6134200923865274,1.3561623840570212,12.739441816055507,10.072155111460638,7.863534905014254,17.189526111398703,15.76944922928001,7.711072335051757,15.033996075258772,21.148680799214993,13.346993339684476,13.864037385673537,19.171219406788467,8.722646363401726,1.4737460779972438,10.040886675246576,9.566292958137996,1.0397156142527995,6.015208261165863,10.792438587180733,5.624591076551002,12.298055838071775,24.052964051240277,16.00915157154762,5.0088199041773125,7.4381652367561495,4.319813014607731,-1.584366116586574,7.968401444514145,13.307874342306253,1.873985981241895,-0.3613636418912851,6.683890243554106,1.597039961253671,-1.2287280404444392,7.419788855395851,3.301455341128655,-8.537614897211666,-3.369309469098531,3.1039780198857296,-2.7457812634145955,0.14385792596533475,7.135176203252149,-3.075300358366653,-11.181245415962742,-3.1103049606618365,-2.837476582166811,-9.931690134992452,-5.166009396800025,-5.654169356076352,-20.306884777530062,-20.38498961915721,-6.687404987289806,-4.419658732970486,-3.0793394095679307,4.781982781828679,-3.134821265094256,-17.765606629730943,-12.180383558162312,-2.675952267476608,-5.022702954397502,-0.04043495348748394,8.26447312667379,0.5628980221684436,-4.597690504191088,3.9027344755488222,1.8326484158231162,-7.715782059053266,-3.2848029101651344,-0.6708218314703118,-10.056447413699958,-7.621322280460927,3.5365250879560515,1.9551354620459882,2.4206781730671953,13.086617533640698,9.201359859235943,-3.8483491970784427,-0.9832399026555358,3.3626761214450687,-2.6962738882547828,1.8261949143719436,10.867509283819517,2.050109946715178,-6.108418386277912,0.3723248604572218,-0.9760864015903996,-7.461553807960807,1.282323156565102,7.129607100101987,-2.2960587692768,-2.5596841987346175,4.321701675222172,-3.2247025171153822,-8.887601520290813,-1.8486833905140658,-5.716678183011988,-15.859644146215796,-9.501687915245924,-3.477472572338813,-10.773860725549856,-9.159341052881924,-0.7891541592662836,-5.197277352454698,-5.875113954562833,6.192917680365248,4.824703557048551,-7.632203649465863,-7.3429480768393685,-6.688367122178141,-14.814895687966711,-9.825649057940202,2.380454203481282,-0.8994665735941236,-4.375782907945726,7.14787089159831,26.269629415768232,61.15264598543223,107.258649612628,127.81619468319832,115.28959376686188,92.12767152662319,67.47377232997493,54.541233747444,61.993546859673835,62.45422352198089,43.84885765205188,34.82241794215386,38.13062900314442,32.86387861985261,29.11101525443473,32.246883121353065,21.428548813074848,7.600727126651874,14.112851373252596,19.072296318160593,7.4100747770144055,3.559151297523077,5.302312346191302,-9.413670233802254,-24.153130092689487,-25.904468882799634,-34.33604040477802,-43.19957101391778,-32.414534531531615,-22.901581702038623,-29.547779519800848,-29.738582845176985,-24.745326774394776,-36.752642836049965,-58.9066474359195,-86.7484827664591,-133.5375556147645,-177.5609330793107,-182.5743192912575,-162.794418140242,-147.22373745770784,-133.59209870723407,-126.61867853559143,-135.15044841846293,-134.8009973071653,-116.55960966695295,-110.6102543558921,-117.68251639709484,-113.15994434625512,-106.52839412929943,-106.62686937121984,-93.97847294802595,-76.069595206618,-75.18619355577545,-74.05764902768638,-60.95171992292992,-58.50616580688207,-62.37613503863389,-50.724628993228094,-40.71266299652635,-45.633872174828596,-43.74845859432142,-36.99201530310498,-43.44534205801435,-44.97136725989266,-31.595735774653342,-28.481252333671232,-33.0383822772158,-23.23991951767178,-13.985107470898402,-16.082910854402144,-7.860577500881866,5.548343010028116,2.381652978544868,-0.5430100384447873,8.280294681480372,6.651872284585014,-0.4647631984017506,9.245449182610606,19.319781661630852,16.93742996936883,22.085203892149703,29.342876067027838,19.225568115613278,15.485738800253081,47.89637334198247,107.23505679401138,167.64131358254167,207.21615081556968,210.76602347270557,176.98985154978325,134.09196616058819,123.74912591090572,140.12389652895627,139.97014913547406,122.2907574387242,112.77356069654009,103.8748222656825,91.6799089968898,95.77613046754254,103.76838931082469,85.65321204267482,44.75258590523664,0.0641096590759691,-36.69369989033587,-55.83013550914516,-46.61867243225121,-14.454170802038185,3.931591954013111,-11.12218601983319,-26.594668593335246,-22.96731381545502,-22.251803662631644,-24.3229187414847,-14.134046587742004,-9.669758679193063,-17.725429960291034,-13.52161670258732,-3.9169443756064637,-12.39908702476319,-20.41913562055936,-13.72731768642519,-15.639785190029173,-25.12780113870622,-20.457279229966588,-15.405083072406608,-21.95881768754269,-20.897799350671683,-16.331766321166782,-25.10366322681849,-26.90748102765402,-11.391967889948363,-4.486801706929668,-5.783079047589669,3.31133093259799,7.535189408826709,-0.24282860853562394,4.22415527289486,15.07405949584069,8.847069633319432,-2.1427807384683133,-11.078890972625299,-28.804153492482644,-36.2773415818863,-22.70801474355204,-12.406488623533876,-9.315899435432955,-5.515640748231309,-11.943368545144262,-20.202883096988973,-12.06376169510969,-5.126958897251331,-10.520187872056107,-6.2104147540482435,4.602709801935012,1.651838330000691,-0.2954839866643124,7.034902513733121,1.434784444467557,-9.68123138311912,-3.2496902805641903,2.6041701257437104,-5.376672554518024,-4.667293904444389,1.6049473297959915,-6.910376636158441,-12.772883325475323,-4.733261843277594,-6.4603742936335475,-15.351966623918642,-9.899835204444098,-4.251389424106795,-8.177443923891564,-0.6456434551672827,11.456730625684658,5.606715121706083,-0.3985522845988114,6.676704096224132,5.291362419025459,-0.9299141220056129,8.567963895655982,16.79282832208665,11.175110028612117,12.152298689708648,15.124388054538066,1.635800649705664,-7.8564494238964375,-0.9057895319137144,-1.626646011121914,-8.765346061032437,-2.5199210412991677,2.4837763103743122,-3.0761481079763744,1.9194653073965688,11.092833765334769,2.5844403423856877,-5.576158360143249,0.7705501142132123,1.0466908330303968,-2.114817747771432,9.28486758141208,17.096981199480634,10.42950977056943,12.567359304311923,20.137773014334353,11.829228735250924,3.7916595404547437,8.36743554809334,5.05268825452843,-1.820452756814889,7.373516186010322,14.156067799437594,6.041783868676195,6.035143832693178,12.308812914800042,5.2221156643587765,0.8454143943291378,9.596816819629101,9.302489952866944,3.832115299911045,13.108029919265954,19.83141617186605,12.433151373152583,13.433546276944387,20.23409221901705,13.05336329926692,4.478540668947379,2.2543908952704523,-1.1304547841391743,8.388474398618293,30.487257253272933,40.82764802210519,38.54356144023945,30.56472554960227,18.216215443902726,19.228810738803766,40.45342579887806,62.47957358052495,71.01830712858789,66.15362853454894,54.16397529769477,38.35403575331879,24.228370425644357,27.209824287982396,39.974093387708656,35.36771242079663,22.230259011751716,22.994933414396343,22.77136675402346,13.524500032136274,23.254776517390358,65.31929718832663,122.81980126422282,175.0373394560159,203.6150041011739,192.20162615395893,144.866660913113,103.61851262614785,104.52949492081062,119.2081869974097,107.34665394801851,85.87786204970797,74.97664086114847,60.475449120135586,47.89448960204176,50.72782547961796,45.293066212353544,24.1693480747226,18.19997042457252,23.413274014890245,12.120339484129811,-1.5414950367126639,-3.1536971648892247,-12.6527583283787,-27.21322711235255,-27.407941890570267,-28.646529751771496,-40.02718457747742,-39.076712134540784,-31.95189794736188,-41.97263524969327,-52.172004392981485,-48.86593934462703,-53.138032238320925,-61.23237413262771,-53.661128181235796,-50.118976001866486,-62.54751996316314,-64.75440590586877,-58.33448979063219,-66.2241558978536,-74.05197663726686,-71.70615249138538,-81.12689473578695,-94.6772132570795,-88.25268589733564,-80.32134417833629,-85.42186864553751,-81.89976248493393,-74.1509331211011,-83.47547235394364,-91.33054808238701,-85.34955893490573,-88.86782751029467,-96.98303935448858,-87.04108767299506,-77.50303796948361,-82.18961827721884,-78.78942894450005,-71.71319611329874,-81.91041956943161,-89.84129772940206,-77.40355245813828,-52.596488771885056,-9.496496512878217,43.304660783243435,66.25542544168701,52.88276457582158,27.570336699425077,1.4695345174626926,-10.148383543956367,1.0169359746649338,5.768781759537916,-8.322233748564159,-13.384258891116293,-9.488898252286864,-17.833874888342244,-24.63416099677263,-22.3718172321797,-32.7455360655206,-45.667914624830345,-38.7806533660317,-34.71235349764264,-46.02812970811023,-44.78131391153442,-34.31439367626537,-39.86560355901509,-44.86963887232877,-36.86070775518495,-38.9304454085555,-45.0739261824738,-32.85056880127699,-21.25294852162629,-18.743742895579494,4.447619325870734,43.05075563108373,68.52792018158591,92.77162739745619,120.92576557257837,125.30135168141618,113.65336207317716,112.09288211576794,101.87711516941788,71.77573016233784,52.7040842699397,45.95305810858049,27.669547110722426,12.047739211678245,7.394560631951529,-13.194253628789149,-43.06713728378314,-55.02692966304255,-67.06931327547157,-93.03945092055801,-105.84412446940149,-105.89373403977977,-117.11438474614262,-127.38922586468524,-130.20857507247297,-148.9910563288759,-171.55437392076556,-168.22283677099526,-157.9428863459073,-159.88054152977142,-155.79327137117764,-150.3324769532768,-161.19842402587508,-165.04114565002376,-149.44705760636106,-142.82391802884558,-144.03042140985602,-130.33419794719896,-119.20545594913024,-122.71486738934246,-116.24194133548838,-104.39146180059552,-109.69325203578887,-111.84219681655546,-109.55850810569744,-161.91020240252053,-278.6569698861888,-397.5810528901602,-482.813443437219,-507.8374303204927,-443.50223633109465,-346.78677106275353,-303.1695943570198,-299.79354901543667,-288.62258678195496,-270.85382980543625,-245.3861478666987,-202.84926210659592,-169.78922303145197,-155.603320070064,-127.7484045505954,-89.47316969165868,-70.75584962483468,-57.38220905526784,-32.67763945290774,-15.523334657811649,-2.7388188078843863,23.11337694518866,43.04283309598618,49.139256506192474,68.0329530013612,93.93871580585429,103.24947509574778,114.47252670535475,138.11925907705637,146.55480440563719,143.4140323505134,155.4456837412801,171.34830792851375,183.85747268952062,215.73865651727576,255.42951934624105,274.89588461654546,292.8458653704663,322.9647723488968,340.67416780410736,349.57077959965585,368.98218617330446,376.49431203311576,361.4082697641808,352.9045542619662,347.7236705247198,322.94807864975223,299.69696471908185,292.23119097655893,274.80971025397184,251.20066928367885,244.306284198559,234.02152145872523,209.1371331202181,199.47214034725502,201.83720569155537,189.84710367947932,179.74251076255055,182.49758254326895,172.81642750935418,157.2073926067608,160.2697106105897,161.5874222248112,147.01185927696824,142.983073482215,143.8846857817552,114.39787015177922,64.640477708529,27.694608998333734,4.820673193043712,-3.3121472666802667,19.79825744309172,51.45792166451938,48.826675237806484,30.546093934260455,35.78309393212991,47.76502317372092,49.51419731425327,60.32758835488005,71.53288522890286,62.48777985516644,58.19133767315638,71.31633951688232,71.8032665831443,62.65467285725744,70.29016541025398,78.00462989925335,72.57542386952926,78.43056771525275,90.37986193168905,83.67750255245147,77.50709140299473,86.11076499992681,85.03224507573941,79.48813408280097,92.23037222766419,100.02649796032307,88.44515570692133,87.27919051051974,95.32825033986994,88.33480190303848,84.48273922406904,95.19870569997616,93.46503692889516,83.46833653520702,88.17502261662048,88.0557254727932,73.18481083620095,72.49434174516752,81.50414439284793,75.23045471566749,70.74672128088488,77.64188387883155,70.717282260052,57.90902679393302,63.268743179673194,65.72281318148188,53.150028131761104,53.339614223589635,61.841361602420555,53.76102805593743,47.36167415003264,53.815552895712315,46.353788507436256,30.46094557345887,31.75926786868937,31.6834320118222,17.443383790037448,15.792527850130387,22.56427534510636,12.94276917129077,5.7709452759803455,13.541225285817575,9.653413981128008,-2.2734238047255584,1.0120923309329921,1.7032059856659523,-9.624462432732374,-5.644510889050301,6.578059320664393,-1.0783368839380065,-12.202234470249282,-3.79754346320842,25.57651801912343,77.67203794444438,131.57795755447938,154.30124781206007,142.48260679005594,110.04048115529292,81.95723594253863,80.97740081123007,84.61087623207122,64.5823522678519,43.989013431013085,38.12682532378049,22.42053963601189,-1.8318480744897077,-18.02614849914636,-44.26029391226142,-80.84834428771684,-94.05786371042234,-94.73547228759026,-116.04238394938668,-138.77556576452363,-145.40636948156657,-160.29646923661934,-180.43802866970623,-183.26049022682332,-186.88384984838393,-201.54422153255393,-201.5654057361528,-194.2349464800461,-205.00672455571697,-214.58406874907007,-209.78653409013714,-216.83120473783856,-242.0236392382048,-277.9709058989489,-326.41108534803857,-360.22232073681835,-353.56303901944364,-324.4477164607484,-294.1647425609876,-277.4457321612497,-285.9855661767529,-292.2407654092512,-267.41820411596717,-237.65754446559117,-224.78728671384232,-211.52671689975736,-197.15279998428127,-182.88306813142532,-147.9712990123361,-109.36150584178792,-100.13140013529393,-103.46952186353556,-101.37547506980151,-102.42352722913171,-97.57927606211693,-85.88322768644868,-91.43558306492092,-102.55618130224815,-90.9103036226755,-70.521967605161,-52.17801972713335,-27.15014194753219,-12.1278803289285,-8.890649365792198,11.27710100091365,41.078432191675965,59.640487751995735,78.17475216107233,94.65434140027378,96.44722357511529,102.25448062261358,113.27700586236458,98.49277386094232,69.17315723758738,58.29556606448525,51.348414068019366,35.545404037972,31.604402684981984,29.533972905926582,8.580653688917462,-4.340101085132348,2.856680139821372,-4.164733323799469,-26.16419139522125,-36.72425772779383,-44.09191583265289,-50.732670753647284,-43.385138367860876,-42.72941724558069,-58.27836142566326,-63.39159040472602,-58.48239748003396,-57.41934970583537,-52.154702819257494,-52.901629353147364,-72.36970071001194,-80.80393554876213,-65.72142790334107,-58.997364153893834,-64.24509948050232,-56.207068411446144,-29.779054070054496,6.972314203540822,43.1610004910004,62.42061825763106,49.19094023585328,10.405621853297857,-12.031006868912042,1.6096011493404356,14.785481295132803,9.86715515164689,10.590445737267387,12.293484408625888,-0.4537423482438889,-3.8459915750774307,8.137704130265444,4.116378004863471,-9.613173517188306,-6.485857600543212,-4.887559626334851,-15.683798847685962,-10.160805003342968,6.865895701607657,6.720198344526586,2.9245893138780295,6.623103827371484,-2.7670570687481786,-14.613231097056048,-6.124982089809383,-0.3800964652434111,-10.27554845333237,-9.375330057887155,-1.5440207726922113,-7.194716265174548,-5.547687905167665,12.229719104163125,17.23871711618351,13.6200948035898,23.47020573764443,27.71421815842519,17.308241946717466,19.22726925653322,28.25379074044419,21.793319548128373,18.055732289515703,26.16264174138172,20.271658953796283,7.262739657546868,11.838199976986013,15.825613481484584,7.584995422672639,10.869667880441302,18.736771495137532,9.664813934428414,5.587913373176976,17.351450657065545,17.616770994862595,4.561383306135042,-8.031171403711921,-19.628536960247388,-16.040961372684713,7.613905098984259,30.80973220207444,42.83394072166388,38.735584963472085,22.893109371382984,23.63695032032491,42.347845787197876,45.45454502035098,35.21309952581323,35.18374819169468,33.585192245564286,25.802359274037016,33.44772859303445,43.589363241833496,33.68574537777095,28.189948571209154,39.49206929683524,39.52647174377184,32.198608701826515,41.86700577140813,51.246445440524326,47.602475545774624,53.30517105701235,62.22810372448294,53.93317599767606,51.13089876946428,64.95572250030469,66.16902337080609,56.9773233551488,59.31767770023045,56.587194715132796,43.24016819072659,47.3726934149718,59.45156047810765,51.09091835639527,40.441264554935955,41.49250938963362,33.81166462622501,21.182563658349004,11.974016029453228,-11.85832616240958,-37.480438070980654,-36.89922419688752,-24.507113547929603,-14.511715971988727,-2.6894849538487096,-2.891726355146835,-23.8474304939798,-59.170036490661516,-107.14817639978432,-147.412820834587,-154.23898064291427,-131.84130768184644,-95.89608201608081,-69.6618545643138,-73.5826880766046,-81.85822726032231,-61.96070053928386,-36.31100988026522,-27.736531366882165,-20.620054884560794,-10.7148441677377,4.632056142665282,43.603270598226885,83.54734487315623,87.5425298607661,72.09410813239359,61.42268512114294,55.576791612714175,63.329308871926635,78.97084218871599,75.72327315448653,63.90654328206613,69.55253749044039,77.27214006711776,75.3426901742424,81.38745684711012,85.30184661323213,69.76958932907745,61.52259664828294,72.36522704202163,73.41062355451899,67.56049289708264,75.95878055927452,78.39570328095473,64.83606148377686,63.05520952057576,68.47718637627233,58.102121588516624,50.626717097997734,56.122390261381156,49.36309308405173,36.60623391671375,40.47491959372137,42.255034624706035,32.045099832553134,35.04890111611145,43.990750159354995,34.919514100023626,27.23009122289308,32.50610361007689,26.32671669575892,14.944350185618426,20.538252867228444,23.321395041541912,12.446096016063922,13.70560997381665,22.141313150914755,15.325153851806496,11.994405582780521,21.946661653553058,18.48646963191032,7.288098830786288,12.735905869538517,16.9141968219889,8.794892948755683,12.729865982331365,21.442905832585772,11.400634050256318,2.9083790112614,8.026342031129039,2.4335589588082516,-6.909064486925067,1.6384412822018444,6.25007920806476,-4.012740280429393,-1.9966831635827509,6.689989257709965,-0.8599087168561939,-3.8789896420918426,8.624850088847216,9.496772646027432,3.4121767598383617,11.875634934085822,13.898827069692743,-0.5904624285383235,-2.1540892085031373,6.501330027830372,1.4336028408803516,-1.5395375162265053,5.718686405983598,-2.7085022478423637,-18.849075620981306,-16.524904408804073,-12.955662337358454,-19.641373837842455,-13.648055427369155,-1.8493767931682115,-6.509749601100293,-10.185537887432282,-3.8831147310833707,-10.828180277593905,-21.915472887271445,-11.332931006064854,2.8447975803112002,5.174400909092247,14.213790452860655,22.296283697591893,10.097629881195427,-0.3037846431983995,1.4764643471447019,-9.974448174102788,-27.36675564424427,-26.11398366347774,-23.099691947203365,-29.595651651200235,-24.79360650235361,-17.03915286578812,-26.54593935362911,-30.8100306463981,-18.042396029202752,-14.270054506375,-16.52366280187615,-5.0618594429782195,2.3321331430684418,-2.248851765722562,6.373177199527069,23.122859769416365,27.1356935144212,34.78084937345478,54.48520138318971,64.93951919791753,72.79482063374051,96.73143296719971,118.70450872430663,126.96013187794614,136.75628021751288,140.45041635150355,125.36192614209688,113.66396699550651,114.62231928373957,106.71663293107667,92.67820963497803,89.38830231648271,86.44288551902687,78.90508194808598,80.02341698660238,76.66720582464663,49.808186021819594,18.425282635492316,-2.265260099709531,-27.11653713049634,-55.80517671006121,-72.4141549963762,-77.97942757651887,-72.53153456433586,-49.605957456925836,-29.837206422320534,-41.60919457397562,-74.20990362261588,-103.54653665361569,-126.34288596443008,-135.56232826988543,-124.91388930826082,-116.78048444454053,-124.27061929212744,-129.53834192114724,-132.51234263686612,-144.36832867962514,-146.94977949858634,-133.51325359467413,-128.50760271027167,-130.9638642383291,-123.17584289228071,-118.03627633377153,-122.2215337018838,-116.10470969640703,-106.4427315060004,-111.7779875309299,-116.02400061005005,-112.27336988259799,-121.37497515827386,-133.97672913518682,-127.16310764469117,-117.07311345361617,-116.17023511631957,-107.86817519369896,-100.05160653123367,-109.4002155995183,-113.90271295416605,-103.9375027042602,-105.56609134322422,-114.88055718627687,-110.41287033996988,-109.02012789560393,-119.61672284033637,-116.88182104879644,-106.44836783311379,-111.13765438635203,-111.35058151239535,-95.7730333050662,-90.85510817356358,-91.69662826988272,-76.58389875814798,-67.78293281786983,-75.69520635758585,-69.15382239519838,-52.584923991330385,-52.510002421851745,-49.78072074091122,-34.39542951699491,-35.14698784843444,-42.02886419700846,-27.614509173318716,-16.73680772894545,-22.957460093918804,-16.79039427885674,-7.35034228198634,-21.16090040478325,-31.503162808885023,-24.81365931923881,-31.90078659545797,-41.26594604059262,-24.452877820253164,-11.093069205766078,-13.065950569536186,7.4832672567435745,40.153092558807394,54.722781862900234,82.39721805624207,136.69604016687958,183.17354166683012,237.95740055645285,330.90785693206243,419.0922324467659,473.84300461593443,522.8952078764875,549.4347585609393,521.9010445922042,479.87289241660164,443.52622179095226,373.6286865267216,284.6899831599601,218.84267468366258,150.81782692965896,70.08410099759759,19.812099497709756,-14.128473776573138,-71.7551421105929,-119.4838407554464,-137.47818589622233,-164.87343740355078,-188.66980303145084,-174.37838512745589,-162.54872936893383,-174.4553327810931,-165.4862239201659,-143.8525929415999,-146.6914781739659,-143.52431891011656,-122.82922338243637,-131.42250447821814,-157.9682412589357,-160.9464621158851,-170.22827198097497,-203.309162393312,-217.2747624606185,-220.01696033724136,-249.10988581506254,-276.13835266741387,-286.12458104438224,-316.1088579704687,-346.41161498039685,-332.7016406622203,-304.13683947179777,-281.53164223830714,-233.93055494061966,-179.9019097302048,-155.88272438774095,-127.33409230790565,-78.1277856420185,-51.25966668945527,-38.14511805582805,-4.144430357271068,20.096755564125093,19.68082700280246,33.08881670466382,46.31740252165387,24.45870228563463,5.6865717721320905,15.369173732097853,17.625798830452652,17.10210602811601,40.676050762696335,56.497546760126056,52.00951043983946,69.0545541331513,99.78213481066763,108.56524617633006,119.84116258400405,148.3649845393548,160.4602374345727,163.4259717902769,184.23886855164895,196.16760069104257,188.88696928860043,198.11712432347343,213.31037281367227,200.18769777501262,180.5782100243233,170.0455064753838,143.40897927571825,114.7388105889761,113.04875100678184,110.38043893733868,91.91131666722531,91.20357234062799,100.97784569471375,90.6155179703094,82.42655886400527,89.9346124048088,84.33581231249741,76.37289103785024,93.97037053214362,107.85151876334241,99.14167606774333,97.47026868228714,96.04975658983653,70.54746717213742,51.807764943869046,57.67996917955662,57.740802231755524,57.79569493088832,80.1931901470036,95.85048489939865,93.13139084315878,107.29768180955301,131.6285228841459,134.42120166965836,132.98557896482893,139.1653947503644,128.53685485329504,114.86927384450127,126.58240271728053,134.88761146106742,120.97695807507887,116.76133576060174,119.51410484762346,103.2218900313027,91.06579584809624,94.79604635089866,83.67841054040274,69.61792784884193,81.57440597017442,88.09992403247945,71.0369414421418,66.90961877422879,74.08773636067467,64.51976878598369,58.944401782366725,62.94061672595173,40.46347876981528,9.709464913926553,12.111428206654278,21.84107740367777,19.2745714771102,35.99097536370766,63.395824248374694,69.38735572716932,74.55702501133672,85.72954256243612,67.7291578864466,36.50553860749304,31.436688491635067,27.221424298838343,0.7251749426895877,-21.947859444019663,-45.45353435553282,-88.5047908843376,-112.27529420552145,-90.01805474605325,-52.684944971191214,-9.260222638211761,42.89898714464975,57.90627839099164,20.244145263997233,-16.026470866511072,-31.665106316502758,-47.285472866819724,-50.67828606826749,-45.29841959889033,-67.82686236972924,-100.11716989986814,-102.85821185888364,-100.44695145637426,-112.34187053867382,-110.94878120993177,-100.78314873767111,-99.56757252319986,-74.91045555732497,-20.143116906480323,15.521342962436725,26.89519426771755,39.23948759421006,33.96173517199977,10.644933497078545,7.385016295618296,8.319502862927532,-23.121928407361466,-58.38771005239022,-73.9373574432522,-94.78001616573377,-112.56121326913667,-102.20643332561883,-89.48179538693256,-84.09672582656349,-53.4287946608309,-27.42071391821717,-41.3170109639388,-31.732740286521707,0.9836308208986964,39.112373653585905,43.36667781502779,19.766510048166168,21.264060714508908,43.25523123776898,45.99313272705798,49.331863604611996,69.85721546548004,71.79297612310552,61.66720523622618,76.64295490220975,90.15942014826517,78.82443507076792,80.07653236939952,94.14714924093771,84.54038728053888,69.51594719769214,76.81808283869915,103.21429442141203,151.1345419857188,200.7204092420578,217.48205358270118,202.42085946004454,168.16134721155487,136.97888980679997,141.3212238721388,160.05408373429225,149.6534624151205,131.4393242430338,132.10255883105975,127.4687155465131,121.10240648955654,137.1444980358213,144.0252394949883,123.8283869697836,118.51465297158207,127.14389070200008,112.09930698102647,97.15682307109283,106.44388298570333,104.23500896104744,87.69836959314793,89.32752622696023,88.94028687118676,68.20280169720606,60.84807142037709,63.52685634634413,42.34053825157338,22.165718672023537,26.315483829875568,22.546309212184134,12.746964009062847,27.59404272814633,39.42209846670238,24.209146021230882,16.598456762716044,18.521038863581957,-0.635357584951409,-15.990335253590933,-5.367540281981729,-4.481696711996891,-14.743578228839718,-4.226789757190591,1.398809240555749,-21.18918096151548,-34.0703174346743,-31.965092395430865,-47.59655321074416,-61.16793541309245,-52.14424078714384,-53.61369956415056,-63.6766335730121,-48.97043919794653,-35.26153813840493,-47.164779033999096,-50.31691869273429,-39.976186350555956,-44.439064862909625,-45.0309875827116,-28.77870083488003,-33.02188631781518,-54.69075538557539,-54.00379530337966,-47.09857289733716,-55.03527983512536,-49.368415387230975,-35.33312978678821,-47.16401150596042,-60.609646311579006,-51.37352809852196,-51.86971738630935,-62.97626671803745,-52.76319256073482,-41.056513588054,-46.271349677902975,-36.24455785333114,-16.011995626256553,-24.355487602006942,-41.28110810327692,-41.43286222884506,-51.58317884058054,-64.41301040604937,-45.03794042497463,-22.544454856689846,-26.374571214560326,-26.408650679220422,-22.78220795954236,-43.638326096585466,-57.737999241585776,-39.32623136871172,-27.645293095725215,-30.16519783940629,-16.53475386807012,-8.000676446704286,-23.098536715238595,-25.39956111597909,-15.361645604367348,-28.452827306102034,-42.538829607068784,-32.82914288072057,-30.34081591430997,-36.67806115636687,-23.201907068905903,-14.087168809305496,-29.29774927702889,-32.10543245726134,-20.8286935839974,-31.16444217538175,-43.65369349149777,-35.16495051042941,-36.58019392792638,-45.62989507233468,-30.16294664580812,-17.536160200270103,-31.17546408656595,-34.307339415480506,-25.897184072535527,-40.119552831032856,-53.665289748736114,-42.90288835382619,-40.61943907190346,-46.70056004804833,-30.372234613591537,-17.785027978847236,-31.484894768725436,-35.43102444787969,-28.104349381507124,-43.25123550718017,-58.63050928541027,-39.644261543510154,0.14384583761358094,37.13715233001524,59.12389901565501,59.38905173748058,34.902149544541174,1.4230260933587413,-1.4947857797615876,22.49257806315241,22.463179825140504,4.452883376097521,9.702513579531704,17.083740295915014,5.098417052271662,5.283046785334875,12.246252208533305,-6.078239544435471,-19.840494502995714,-6.606407003069628,-7.580394408371099,-25.801899785319126,-23.020880152767628,-16.821451134148717,-30.365136192537403,-32.744744384012236,-22.546005928115814,-32.32999225239447,-43.01222775590301,-33.75726000808504,-36.16154774864627,-48.8309092416712,-37.90235181251593,-25.766088957225715,-35.69870636756082,-33.87469955660373,-18.274420380893837,-23.402267375029087,-30.315731128595395,-18.110156405950875,-20.20732546648789,-35.52798760580019,-28.3308884760103,-19.189025942106632,-30.73747911720218,-30.743927137755257,-19.27325627254058,-30.23930192603695,-42.66257365779852,-33.28971881339708,-33.172096970328155,-42.265092872754074,-28.45258351625575,-14.255829091473636,-22.376573731317283,-19.59529522652541,-4.842508784089718,-12.546583854948501,-22.683750651024432,-12.25288363380133,-13.289680436952393,-25.20443043373895,-13.005047528869891,0.783097825738889,-9.41143070887515,-10.978539769297651,-1.1412505094989243,-12.952287637055836,-25.428360339527906,-15.096324044948286,-15.296515901377418,-28.364493513717655,-20.68857967205968,-11.647880374541241,-22.74993816352316,-21.451460969611176,-5.830268339544155,-8.5467611740339,-11.287905039634108,5.560627899164466,7.968739101427831,-5.393534816174442,0.7693206043558609,9.40585557705399,-0.10537403847233673,2.719149995212661,15.27293508615897,2.330634623516776,-13.763310859873705,-5.806453208104871,-3.1315426655759206,-8.223728383345867,8.036502899775849,21.345841533056706,8.773352825482688,6.083016496836929,17.283115504525558,8.845536895415393,0.5508194314696659,14.105150826784136,15.167305691458651,2.807725052664327,13.52184124240117,28.197148400148063,22.315986077532816,25.759519358956616,36.97040383702343,21.571777164255742,4.840291862334018,15.241150150757381,19.275129939996145,10.842422112788462,20.79298221470669,28.82894264768314,15.01748269134895,14.866443066839388,28.31723251219979,18.335368506081146,5.689077597142921,16.552123163001575,20.689225068636237,17.212280819927543,37.33201809698814,54.460335359638464,40.95368120425301,32.35858946410005,37.57754950557837,26.97579656971618,20.712868609647522,38.46602644150693,41.52414490267355,26.31554634329172,31.39919990598824,39.717532069215906,27.44505410970382,27.06940827768151,39.58550727041194,29.097063791910834,16.778710026021006,27.996890126430518,29.26620970801453,20.62337037819841,45.2863667714268,86.92717326941218,106.46815182160883,120.43868187641385,133.7553198360639,113.81258245278227,82.03277135563314,85.21535356884073,98.02619155928303,90.26437759352036,91.22206840128985,98.47240199897337,75.12258579439144,46.21754798642779,44.317917110757804,40.746615946592904,31.314645029994452,45.431819427921894,57.186465875901334,40.070772308425305,31.285454722202488,38.91746981565584,27.02111831607065,10.296530312599522,12.75792259904099,-3.4629583984043704,-70.01728891456706,-166.13533622334455,-257.3462767157938,-314.53096939475324,-312.4237600679801,-251.51371051465017,-188.73561171484374,-185.3616983974346,-211.0007676396286,-200.0586045306488,-166.8152887201977,-147.59876580460732,-128.98151791964528,-115.53570018029242,-127.2555362028038,-126.32470522820502,-89.67940805891202,-67.28990838401181,-73.11232968632811,-67.23109296470719,-57.82505874111804,-64.12545788979592,-54.37179335489273,-26.45510522811323,-16.428567783081107,-10.93281547251277,9.68248810334893,16.33095423100941,10.651759299014294,27.310800997859978,47.586511641835344,46.32084150747528,50.984035597044404,63.82804163338862,54.0836137463634,42.12816049055424,53.83833026484142,60.53833317236417,58.683942663353164,78.46723634184362,99.65650222524926,97.41345586960023,99.19671366779045,106.26264143001004,88.5090051074891,67.53488939440268,69.34995554226073,67.74222228882414,62.49408195748754,81.83946650116977,101.06222353749791,95.60304267375636,96.83952910278835,109.08792964245839,102.5770102638921,95.23432818070847,107.45476892754183,108.74431293341111,97.32837477722126,104.39313159799838,109.03051881222464,86.63597617230074,68.89413741721964,62.623588316838465,40.11963424831016,22.233036373740433,30.188813211461724,28.052697273421497,8.557844022064378,4.7907168052501365,4.658942600371455,-8.799838022749924,-6.296589556298511,9.84720666052716,5.378184662933938,-0.18830215663341487,18.528525684929914,32.13293179374601,32.472954460342365,42.885241855588696,-193.6190644698296,-210.27281356542926,-193.01185136310892,-187.10061262255329,-187.3205606517975,-123.76818117435599,-18.16140661566336,68.0286467505945,143.62507072102716,184.7143723074878,139.02518200197554,69.02773840976329,52.002274118750506,49.840421606696836,35.90978948710384,39.66482790797532,34.08574500498853,-4.568888931493699,-22.50012600407443,-13.868035248497304,-31.934316241276854,-55.09654889021518,-49.13345491433951,-57.67125843099643,-85.79182159171393,-85.26241603525064,-79.18934635087463,-96.92435531055503,-93.60601961328938,-73.78810916275079,-94.28182868300098,-124.62506000922036,-121.1733006588533,-125.27044640018181,-141.56882555451463,-126.73409939951327,-115.50788089497627,-142.0309241867457,-154.28698852679784,-145.3653058082056,-165.14206724446768,-186.8472702824806,-173.27359122360812,-163.63838194542592,-159.58359407071686,-122.89130709822354,-96.18323797872479,-121.84342187889021,-151.51076873225927,-166.09389113320321,-196.07919454262,-206.21495655229728,-166.38178859665123,-135.3020790574132,-130.2699715286121,-106.54571823674908,-86.9138111356145,-100.0999054641209,-97.6249489652877,-76.02322210696703,-87.43968627193735,-104.65653762903514,-88.81771454830354,-86.43998814688014,-108.25809293668881,-108.03560501415635,-108.55586419717326,-137.56996846573983,-143.86548357112844,-121.58890464497875,-124.2922540789861,-130.183085664108,-105.57726029584883,-97.46814865247072,-111.13568849396654,-98.25418069682888,-90.43427775323357,-118.87878926885898,-124.19340539439872,-94.77035229565067,-80.2134020438288,-62.124388276224565,-24.594611774229655,-24.4940788266265,-56.91506045774097,-55.18982862276019,-36.94009061377136,-39.86566394314593,-26.360720885875082,2.747478747219972,-2.3478817621940973,-11.78922482388001,10.598510772838502,14.846983494407585,-4.123981376203603,10.264836317084933,35.3981078512943,32.99890112177476,37.753072918013984,40.27934469832739,-3.1728291316041144,-41.87278620394215,-29.12240004436589,-12.59295320601227,-2.3042721998143403,34.70246987237843,58.748787306067584,25.322649016639446,-45.03130385037613,-122.87263529438115,-181.28445190335208,-187.61042867691472,-124.38638449550521,-27.836902175396684,11.339208255932345,-26.51074936981825,-55.421557403221094,-47.14664343655714,-41.95343952984993,-18.76885830908068,32.29237122249269,46.09729459869144,30.122192080261996,52.08097763999295,79.62828454141066,67.86641962841036,70.86150941673102,100.2283395662908,96.22646329072265,80.21990103256141,96.72209644630124,103.63700236669271,92.6489018663683,113.67572013732125,137.31051531414687,122.21688684980326,117.65788941956473,134.695167657237,123.09186405378736,112.92977237464217,142.33644538464506,156.31968497633042,145.39997526192818,163.08952189283508,179.70782025119044,158.2501373931019,153.10770711695957,173.6488368442017,168.7313181610663,167.63409956498305,203.01267867196387,215.86489918333513,195.31437736324426,198.06002796018717,204.71094887874295,183.49057313423327,183.8174900061946,206.83602408029435,191.8527785229494,167.05663724400327,178.8401003607438,179.39963187058703,158.09162663135163,168.5772325889013,183.35442013067666,162.27528853518123,158.43212282613655,181.0810213196015,169.90284285622016,149.86744806066022,167.97380528450944,179.64185106573,171.8623481184856,185.79861267399414,183.8169553887172,133.58036879637152,108.03417854985537,131.2807355111681,139.47393188423217,135.29331622064836,146.09362110772398,131.6965069877811,106.0870559734212,133.61621582730845,168.38720372725348,148.84510666454364,131.03908810403698,143.128992317984,136.79532631917073,132.81329110471574,162.02061214111487,165.21927345701238,137.4870293378712,153.0073814615431,197.24314459432736,222.23869556226768,264.95752909681045,321.0977390398623,314.4066145267458,259.92727348531446,212.1338387115751,142.6639787367754,68.56323181086026,76.18840609019641,139.07624675464294,175.4870098697645,195.2667097120945,188.54208365508126,108.70433326407527,29.99456954485462,32.793795707521774,47.31493231637924,30.48285615427013,37.60834143781798,51.04514005175906,33.33623010942618,41.53782673369514,72.27037400071026,42.36280335901661,-11.990428891448738,-16.60467930919615,-22.708777201565635,-52.22925243636126,-43.04381434644949,-27.71214501166533,-57.48268308658603,-65.92934780190774,-43.79975595497171,-74.3461320401821,-124.19206368590014,-124.34136530175198,-129.26693134989912,-151.66678594719397,-125.76569540615148,-99.49810848688088,-132.58201185266148,-143.4261836635054,-106.22918956442612,-105.41810687421507,-118.93391093013729,-90.73824275152865,-85.71901867029959,-113.56003884718558,-94.85404886921152,-71.43382774831882,-107.91393686319337,-128.8567864262545,-109.2507797322254,-129.40435772886389,-163.32483697114716,-150.18512713044964,-148.6146146442025,-166.94008484680987,-128.16162983452787,-80.18705647637475,-101.23637557625129,-125.38386313062901,-121.20918546628035,-152.34152947103814,-178.78520691940724,-142.34856099380835,-121.57632431684166,-140.46752237957344,-119.56803115440857,-92.82001065980592,-121.34706454988589,-130.65785544731,-100.77437960707569,-115.54657656018232,-142.0030629699391,-114.43193076947065,-101.18343806139782,-120.32869143506221,-92.9819395472791,-58.30454346749244,-83.83777165355234,-97.57479433228545,-74.43678038985114,-92.23817431917178,-118.71182304402782,-93.1672847684077,-88.16378763882436,-121.70943003379712,-108.1793063011377,-77.24562957731082,-92.20224869096747,-86.4111253746915,-46.48900684339475,-57.58597493136824,-84.1361014153092,-56.35219842924566,-41.29268679066372,-62.19795137026453,-44.31183790521426,-20.590864143584856,-50.45714746574167,-64.41690814679266,-43.97693860620772,-67.68464623949045,-101.27050617761162,-77.80326441898262,-60.030267100368135,-69.3887093626413,-36.108040433497166,1.9834385915387198,-18.103750059723826,-26.907184543246313,-2.5052142923767526,-22.879880994197492,-52.58567929954071,-22.326741312804412,-0.582223815895309,-17.341667211543168,-4.4304693111194675,5.3617663027385944,-39.0068930496134,-54.53195803860166,-14.59212883238823,-5.678261137878667,-13.023915014107093,15.364585315854642,17.003859656370878,-15.682635093066981,3.786105434316699,46.16331730576112,43.11413339616121,37.989826981457306,34.51896962718915,-2.345658398070192,-1.629546536953665,58.063047579191085,90.53580470927139,91.35946228465697,83.45106033276039,36.49698279822704,0.9634664252342446,34.093218427071164,59.618872693308106,44.9931453877249,61.14459792874851,83.68634920690316,60.303009638059876,57.09614279830515,82.37909341586871,49.21627706222373,-2.72125864457246,5.226073552133867,12.168961593007253,-3.37494113857524,30.09535785978263,65.70948726071735,30.74504917496639,2.900417964536519,19.848779584023312,7.322334316514601,-9.116570921394384,26.41534143618815,40.509908821912866,12.927557154990755,27.706691981264825,54.58705337498071,26.190352318185127,9.568036111200454,29.274687117588098,6.7716347135193065,-26.48794806073536,-3.2585188327133867,7.825878455402258,-18.926278473592504,-4.7435910109445425,19.537978140038383,-8.823393607054488,-14.25833145353991,27.570051660084182,27.036603042058353,8.591531391919204,37.91146204064834,44.681443595819175,9.143500812922401,21.240453352991274,47.951006957262344,11.76391947920675,-16.648631764896827,-2.5851164007401994,-23.873437403753254,-48.58286285560425,-8.848411720224792,17.623129225911924,-2.8958695131287335,12.524086352318758,38.876508519959614,8.019190506330542,-12.496443336402391,7.019602184983599,-10.271731897294842,-31.9527693622647,42.104027538654734,200.10116396951537,367.2851600602476,487.14302601540555,