5.522406686019142,31.540381597813244,83.14491557694473,141.89906507231458,185.5195027110505,198.72592969623787,176.57658916890136,139.92058100983084,117.72763406548205,111.4646232701823,106.3894041848264,98.9215165329295,90.22698144446746,79.13576671679584,70.13154990532466,64.99295229791576,56.571789997868954,45.84977786283526,41.2804867723421,39.33081578252675,31.69259389819736,20.442039130704355,10.43829445586093,4.797162791102863,8.1776908010338,17.45206190060829,19.550097930859224,10.296089877020476,-1.0562383378005809,-8.479878653317988,-10.065859778440993,-3.2550564497487704,4.515188316064033,1.4297422450549218,-9.96770412105386,-20.55940033458707,-29.16237679303211,-35.01844679084222,-35.239516674739235,-34.135339681290546,-34.75578079688867,-30.973120498715467,-24.14273693876075,-25.103085227418585,-34.571057225790895,-46.02287407230102,-56.968170894590436,-62.04357333962523,-57.80729775454368,-54.30991173004827,-58.81297979417817,-64.40148422342249,-68.74181812841668,-77.96736573896047,-88.36861467888183,-89.62904139441025,-80.27050749382379,-63.091184136724976,-43.4742450828103,-37.10519092561687,-51.8379868752259,-70.75323127278405,-77.05540451243321,-74.19953488115634,-70.77713008840189,-71.46457878950316,-79.65066690980177,-88.4473554351551,-85.08850366167692,-73.75032118631323,-68.46293396707571,-70.33887498186296,-76.8284666508921,-88.92268909087369,-98.13614932725467,-98.15508623360725,-98.48140150338637,-102.25626671019711,-100.29704838590769,-93.56673971340982,-87.49660000315743,-79.69362670274165,-74.597504013337,-79.45486108726743,-85.58005015845265,-84.0077920735769,-81.31170600497894,-81.62623099160962,-80.9527757604102,-81.70595210673498,-85.12266691808132,-83.18675121332885,-77.3969597923748,-78.17484027622625,-82.25661799919109,-80.90500700075653,-75.75795413382816,-67.12613973794292,-52.77380784074484,-41.78760324405269,-42.68186406909642,-47.830575511335425,-49.491735517503464,-49.831288138956694,-47.786965691263134,-42.7064945068646,-41.76488853282031,-44.024286572385485,-40.71542818944404,-34.59170251272297,-32.00563049978198,-29.656535063650047,-27.242482220180534,-27.63266282066587,-22.902122777606962,-8.68497661402508,3.676241807228719,8.532087014953976,11.054379351470503,9.634563470825078,3.9309228918621537,3.964320587274553,10.072543363630597,12.368546957468459,13.092647317992396,18.096333666177394,20.914836325882344,19.50931820295351,22.557532360918998,30.100284951434936,36.72274899601819,44.54271395765902,51.723365810701246,51.293660227594785,48.2200823711941,50.683601999644395,53.82557383195466,52.95938600136979,51.67407510514828,49.160061017424184,44.30008296050896,44.22562737418693,49.896532595604995,54.38452406019286,59.44048970922755,67.43892925166226,70.17545140192362,66.17238175200245,64.7337395048489,66.63244843920539,67.62291838742834,70.9746670454455,75.5072074704475,74.41788764235024,72.44023431687475,75.78372800007209,76.9997198038905,71.99003166541009,67.71081813067575,65.95145685106306,65.84635832085866,72.34642197704804,82.29752115106648,84.38658224629927,78.98914723278068,73.03251533540569,66.62338634741158,63.06589230678284,68.08005478074571,74.50975414060892,73.36353183351486,68.39428085430004,62.75884538666912,55.05663201793425,51.257861985304075,54.42435968673658,55.29182167357544,51.26068625657118,50.72933997834929,53.434061512744954,54.282683207581165,56.889557279037106,60.348103026728616,56.9471075095962,51.42771939622567,51.05480506196014,49.01213904606914,42.488636875477226,38.735561357239,36.354055969138614,31.878460379062496,31.68276828373997,35.444033641244474,33.730249262229,27.732738553007465,23.943947672762647,21.23823584544373,22.278038357080526,32.471178282219974,43.62525089448481,45.978090717411526,43.28156816951853,38.73304139778683,30.967050482850453,26.27556012418136,29.222006865744827,32.88360107174705,34.519628579787664,37.951242749100004,38.527213657626724,32.3684784101459,28.08442824236019,28.901462442255035,26.652767150340438,21.45516486285672,19.126882108734016,16.885560654342886,14.181870782809288,15.406425737134864,15.60903320499148,11.71493531744872,15.078062900551187,29.93341179549247,44.027982791086394,48.57469382265366,41.79676348268019,24.09494903789499,7.421399258009339,5.690864589222146,12.714251507818142,14.806133581384803,11.87642020853686,6.226180551784042,-3.678942737352271,-10.953949469750306,-10.080303280610137,-7.094970854649786,-2.4951920185831136,7.990873737705876,15.723824798405118,12.10120098310514,3.492501002174893,-4.467622001950334,-12.554365281581076,-16.27636911022316,-14.832666606286136,-18.1490980995287,-26.894901638421786,-31.608307934016615,-32.766312478456356,-33.516067972875234,-29.565591599020735,-23.245060345326472,-22.514521051385202,-25.698927713836795,-28.543841174651362,-32.34451831593217,-32.64545372735458,-23.111549142752033,-12.181625797987166,-11.383749353761898,-18.356651882223133,-27.770688324651488,-36.47906264241474,-36.311285989066036,-27.167500037799222,-23.016508990782103,-28.16841777723543,-33.21916089105371,-35.79577523119291,-37.87534480469615,-35.55444773599007,-30.324900040159854,-29.313552411981316,-29.430343368976164,-25.79311747231722,-25.20316019278363,-29.861890314607034,-32.02058220407261,-32.42253876305667,-35.42245532860765,-36.371349653466595,-34.68775195926297,-36.254510043479,-37.699197144074446,-35.063098115995906,-35.41155288067078,-39.97626310300046,-41.286142791496516,-41.16725448723565,-43.34103253000241,-40.83075576157334,-31.802990286853266,-23.923842249561435,-17.32460855739838,-11.26156090312382,-14.42112506080679,-26.338482191757414,-35.13482378953464,-39.655680526278175,-44.92053190398279,-47.414909440212334,-45.8813781086686,-44.599635660687554,-39.99564924389537,-29.995773084409137,-25.407063080535814,-29.755921043568556,-32.98769220022179,-32.196961197053525,-29.03692320585599,-20.388443448420936,-12.601542896677788,-16.100691548118014,-23.4754701986281,-24.45603212510016,-25.130045377809505,-29.555200317458265,-31.439559134921414,-30.70357562982943,-29.186219694048066,-22.059462740896027,-14.029741313727808,-17.149384649841263,-26.13019911471715,-27.3288179843396,-21.722350210445004,-15.605694617618944,-11.119160284071237,-12.872413225709064,-20.247809042555765,-22.264675593695173,-16.550795938375963,-13.073723484819828,-13.875304908597986,-14.647194664841667,-17.482341763029147,-20.649773887462537,-17.13176466002976,-10.696106552035042,-8.407237165222032,-7.104727821203362,-5.899540679914965,-10.179570286841326,-16.58402718484775,-19.145598030548843,-21.874433840171815,-25.18642884553782,-22.251099074420505,-16.01242866391364,-13.762275451633716,-13.74174546406685,-14.560481706029226,-17.85249481288335,-17.865960541223345,-10.797181514172989,-4.735006351877942,-3.684893566765823,-2.3617038569603785,-1.6618336445873605,-4.117119835046166,-3.3920166264212916,2.066015798491469,5.972226983155693,9.545858969311587,14.698796629025448,14.190788344556857,7.971549677117296,5.848232745023912,8.08815165834482,9.56513866712587,13.448935380536376,19.06653186121907,18.20143718297127,14.072171466177387,15.37158987833922,17.924440367180637,17.746568340894115,18.502358893570143,16.32196536700554,9.015098120620372,8.295420722110693,18.28081407694766,28.120950675839914,31.995057682108325,29.882507106488486,20.589868945115146,12.095313723055444,15.891890761777859,25.436124881994985,27.455992269815827,24.53383418402877,23.142019554144117,23.330187012926494,29.120914352948127,40.12983785547895,43.69425012298251,37.87649861604895,35.90222534280114,40.377259131902875,44.40645811016984,47.74370341716749,48.381309820844685,41.8918914866731,35.85112779781157,37.94004264746407,41.21416839398388,40.810065325622986,40.72567253306371,39.235191164391246,34.93767744636344,35.4644097190512,40.40154180536643,39.34327269534383,32.161440190249834,24.396807788219622,15.007841030842506,8.173824289023816,11.578444108096821,18.54094830561603,18.93982909495656,15.514301584954453,10.75607433058211,2.975424699829846,0.24954758446712422,9.039834027503709,20.056052832642376,25.40364350190952,26.01711353227624,19.5624028692214,7.552202663933826,1.804970008421526,5.129238180236625,7.314106729383774,5.121465226242162,1.235250571220242,-6.630620303141238,-15.205301044000684,-15.837554662651872,-12.254439426470661,-13.287071144283619,-16.77914221984721,-19.25849344041264,-21.807488454243806,-20.192764004106717,-12.68058242780937,-9.357450392607866,-14.469777360311376,-19.24384645192016,-19.111421100425968,-15.250200504674746,-6.77883473280866,1.0020221121927115,-1.2728492076962548,-10.155628368420595,-16.13151940441896,-19.71277078305128,-22.577044884372995,-20.975034310184263,-17.00235806105715,-14.964582664086203,-11.612663694068182,-7.687706602470433,-9.866757382943899,-13.998276232358482,-12.391838075860363,-9.442918170984704,-9.396046944791063,-9.61331228521313,-12.012419671948576,-16.976121608881485,-16.38753945684196,-11.029913947967234,-11.838900584018484,-17.511620417600135,-18.823042170066532,-16.73559376006009,-13.521031366720479,-7.458772129364892,-4.909653151393519,-11.065584905969004,-17.23591667371414,-17.44665839284396,-16.46601939623722,-14.704252812624809,-10.167988375386193,-8.064068573484118,-9.757424083450761,-9.939343737601016,-9.847164824082878,-12.737260842974381,-14.269560248033601,-12.794827987654575,-13.200886908690503,-14.022223492841063,-10.582125853522975,-7.036181940074886,-6.7370381497220455,-5.93758640289828,-6.864733894546781,-13.492536790155746,-19.289209037057418,-21.097028864746953,-24.746690788216146,-28.35560609206663,-27.251672283849317,-26.325278409739894,-27.56294401152777,-26.155127422834614,-23.569096612567446,-21.91648976383756,-15.769220394493434,-6.445052389028441,-3.867197674734859,-7.884371098498394,-11.526225312973459,-15.175081081650395,-18.004880355870107,-15.57049844633983,-13.4870510815472,-18.17899366221305,-23.0029764037826,-23.876504780700277,-25.690312238009085,-26.476858832681906,-22.574716811907273,-19.51530725156091,-17.706315917856905,-11.048914187717164,-4.715064300947935,-6.175549206668279,-10.660589542568871,-14.912656473197707,-21.26709595106454,-25.037013835934154,-23.696612750096712,-25.521115858013964,-30.808078153054197,-29.629397915190918,-23.42389665096041,-20.07946690675282,-18.424842867024278,-18.936281710852505,-25.252749799248445,-29.2851033525638,-23.251914168742587,-14.293196810056088,-7.7418031095039375,-0.6849085016342238,3.830783947705314,2.2462404123033988,0.7153812900116372,2.040730297962218,1.6789713647994777,2.121630052865487,7.561146982226286,12.702624827383318,16.147045812139503,23.783237014201738,31.792483252697068,33.93805641127555,35.62344949105657,38.89467343408928,38.539277098775166,38.1692908733947,42.17776169618435,44.01205950373914,41.94926618697586,43.35469492788724,47.082308189475015,47.667506641817134,48.29918091807832,49.34964142401821,45.10647189888935,39.7138214081532,40.21355015756441,41.63861002085904,40.91500640294415,43.494070978676845,46.987651380491,45.577648373718944,43.54933098649478,43.39414479161461,41.01425936641987,40.38866343589773,46.69525374046266,52.20696963309517,50.98938173176959,48.285359605592554,46.05412759802799,43.253731892588036,44.44408471996238,48.295271015261974,46.14500580167598,40.13219785223119,38.24634659878744,38.63119278500555,39.19488353015069,42.45844200425336,43.31948949988317,37.123593800440744,31.644976695520388,31.398075078973175,31.038907199445198,30.904592592580727,34.03455027238088,35.852309492971514,35.54601390042407,38.46039586036346,40.8268204236143,35.75648949591411,27.816858833986743,22.36529936030961,17.619470074346403,15.68779443786961,18.25711830440783,17.448198102678056,11.813522999725318,10.470524452798823,12.875635147074258,12.909047018658379,13.621261340741002,15.018836105040352,11.142469388553891,6.9422021707043715,9.483532039591411,12.503535014503804,11.965215049562055,12.806098623104663,12.070560049652302,4.608919215929497,-2.333994150227544,-4.000887215301551,-5.869670578021658,-6.592171473694937,-2.15812955566808,0.6709366505965302,-1.5508475296959183,-3.554330408623536,-6.789014973851865,-14.02294668449035,-18.07467619083604,-15.47996135440808,-12.21587432798234,-9.345318024360537,-6.470787187696375,-11.377265574448675,-25.14570220145593,-36.40853735456963,-38.912272072647006,-33.034338300812706,-18.526653349403915,-4.157564014492153,-4.073611198035188,-15.736297931369078,-25.603788000609825,-29.63253132222833,-27.995031268203604,-20.34960569051928,-14.569791973809172,-16.240880105277316,-18.174338624253632,-18.088801001479204,-22.796106997738065,-28.715860958652975,-27.955741013618876,-24.733371719155613,-22.985745412461995,-20.14724896253708,-20.433023990527094,-26.325197903583373,-27.834163346966648,-22.74564902370372,-21.693820932456084,-25.382960736860248,-27.350168364917046,-29.16995488268561,-30.124399082953733,-25.20531631674157,-20.34062048649871,-22.89066526592808,-27.238445304155224,-29.397245026795684,-32.88509702957853,-33.837096139020545,-27.61664178021708,-22.01098363147883,-22.109263946937695,-22.808510308954176,-24.326401332447745,-28.18563449938549,-27.760899317669992,-24.120534496269116,-26.700309077720153,-33.16558894905228,-35.83116488202787,-35.766133995558775,-33.421934974062864,-27.291634037306626,-24.29267041472874,-28.817747221956182,-32.08822063244258,-29.707418371671494,-28.037670952485524,-26.89491130378286,-23.44252227956939,-23.14479110002994,-24.83666141190549,-20.21621352272024,-14.090003241947578,-14.391980387104919,-15.608862669501114,-14.841148140007986,-17.059636104221404,-18.978010543441048,-16.73502933934374,-17.127464991701977,-20.98150877982178,-19.84000737121396,-15.76339499453868,-16.08210041636031,-17.275553691294416,-16.81828406684116,-18.47197790638426,-17.914109567454716,-11.146083383061612,-6.782968624885839,-8.347373670021085,-7.884308934291955,-4.968441353456274,-4.444347253885354,-2.925093356993129,-0.07370745763718611,-1.7838449032412753,-4.038803336014714,-1.3895456194470963,-0.5400827322188637,-3.6284503528669085,-2.4773452543490366,2.761907923553543,6.420765113889069,10.23765906279407,12.529828260458691,6.806052555796931,-0.9415300350563367,-1.238765697457227,1.977774755586906,4.39966457364202,8.44528870660077,10.052209246567829,4.838289165064948,0.46892126920868793,1.4870310883736013,2.045891592673378,2.874713458446452,7.7207388577637825,10.578260305513426,9.052805376584736,8.762911106680662,7.487923395042442,1.6517203777851348,-1.4651000008156512,0.8402186450937983,1.5118814630059707,0.8765930340278134,2.485649478219381,1.9736688517568326,-0.3397323816423893,1.8327387288884867,4.816639584726468,3.8119536201243975,5.383413833421503,10.77514094482782,12.27080142585128,11.690023204650636,13.269649381721226,12.249153403277777,10.420888935993997,15.2357828737281,21.36848193840299,21.108197179922247,18.77895874516095,17.160069667071255,13.124025829413434,11.064813204799695,15.203896324649323,17.37571881046686,12.991106152013385,9.07454304567636,7.382749377054111,5.158206101322788,6.0769062652652845,9.060303209130065,6.759618493339014,2.919305307746477,4.966992081174574,8.824660710620096,11.724932960806814,17.19266810310637,20.749141259444205,17.20221721175524,13.06222719059896,12.159349483659124,9.808233445470393,7.561135343196611,8.292943971648118,5.733077804054673,-0.5757327279885107,-1.4257227765988016,2.6520945691336513,4.103170970204716,4.196288946270213,4.441806705412307,0.8640678221016711,-3.0455141199346834,-1.8061775753919411,-0.585117613130541,-1.7561328617736551,1.0549532675367896,5.74104417861277,5.316993255742361,3.966719513771525,5.977690676168256,6.223528604065546,3.8917382715516675,1.5038449357548882,-5.025225828813138,-12.963913621998085,-10.58611817575262,0.7190223905100801,9.465335253176221,12.938986386390958,11.95701836091259,5.838694781176067,1.3694283196918455,3.6310370621608583,4.197151193741572,-0.854382076828925,-2.006462992753801,4.062212294519478,12.889313728621442,24.025354079212345,33.374848638765926,35.306708016259094,39.172519754866876,56.26178261826952,79.22067628050435,96.58227026499422,107.34582325096582,110.98576712044968,107.8479502632531,105.21940104160696,103.28573504601853,94.14238435185408,81.37737113045567,73.29476419962272,66.00674982569286,55.24764801661199,43.08289611299822,27.330137819888655,8.569941974957143,-4.037781044297862,-9.671666797252096,-16.752549143403392,-24.912810729595222,-30.50330167897826,-38.511364205897536,-49.01883023022585,-54.03410454395013,-55.68207018767175,-60.7990948600283,-65.83690469703535,-69.72856768389101,-79.04113810630268,-89.61944077994104,-92.22884165332006,-90.26941679725326,-87.93405385548827,-83.09252756599379,-81.34342706095079,-88.31335516123801,-94.96679717429029,-93.66568868482754,-89.0941643595799,-82.98434941858989,-74.80973729701007,-71.57779934707146,-73.86168943895015,-72.89545892223381,-68.94154998943674,-67.12847905124103,-64.28188515687907,-59.311116400524924,-58.26551487569644,-59.68302686182909,-56.95925125447195,-52.65374872534527,-49.707594955851626,-44.66220342136438,-41.08768159337282,-44.264548187507664,-46.53312517707881,-41.46817507405319,-34.03438367844584,-26.198283872943122,-17.741698891537695,-15.116192745111999,-18.347572750587357,-18.080904940817693,-13.87709488204498,-11.416701851212794,-8.393256824792969,-3.281333709149821,-0.09223818401755224,3.5195896206614936,10.311843380093425,13.180789542422922,9.665575775778663,7.084142928537563,6.617354655531399,6.865983087133321,13.571994384431449,25.17301254926568,30.800758187176015,29.582002532032767,26.32020016548487,19.48878140678424,13.23482400740792,16.54473567075722,24.067616614501052,25.612956291027885,25.110592998593475,27.501706929934315,29.283291951907753,32.628603442968554,40.43141168402019,44.12201053383537,41.20697165204012,41.855260404504556,46.70132987109538,48.44596221118937,48.63614842024577,47.81176965497778,41.19738341020363,34.50988703849703,35.85445697590584,39.03439721156095,38.570124079462936,39.490677211408276,41.24777252830343,40.470427960756965,42.6422105854695,47.965702995757894,48.17784506714665,45.37319671322444,46.479427918254515,47.64287932686076,46.05069538401794,46.36079439235724,46.41549059539023,42.44092428315163,40.68370757823934,42.35643236965578,39.16654315453621,33.00383709937779,31.827739439951063,32.86237428852447,33.433993709909416,37.23947434091637,39.622642914131724,34.53659402518123,29.60730468675059,30.700249637099148,31.907245880880353,32.013194035268704,34.398364391981886,34.77554289677964,31.733955448586414,31.832976071694418,33.568173286158235,30.39993187631952,25.97550237048275,24.811356638479992,23.54302316630158,22.56507031544698,23.876520127684895,21.349049102433177,14.238547265918804,12.08766792677,15.463479767202653,17.205643289481102,17.692075523524345,16.899535302343907,11.280568307941678,7.43753460820169,11.711889742426882,15.185478337889114,11.661537740388706,7.103599963443823,2.635798326429203,-3.6933924878000584,-6.001588077133144,-3.944209251618589,-6.183332528937474,-11.362596211519294,-12.159866860466053,-10.784126852962377,-8.162175679762791,0.6223134457894441,9.899823510390174,9.253313735994288,1.3203411540899337,-7.050705929745729,-13.852644617425707,-14.008234621444922,-6.781463912846648,-4.10971055113957,-11.069491683222068,-17.917200097703457,-20.136675257209294,-21.323203476380904,-20.709246953045156,-19.24888422305743,-21.763687391892585,-22.646222911270183,-14.625601476877424,-6.539235136462356,-7.206543411189507,-11.68252861453335,-17.07028530157833,-23.67211721977298,-24.393254392527396,-18.91237621337965,-18.733417154279604,-24.484039632108143,-26.13552557851543,-22.934682958470624,-16.89799363279258,-5.0667235884838275,5.728361464208934,5.025550767998817,-0.5514193139763206,-1.1339483043072542,-0.33792044056895126,-0.27764751859237835,1.2953072051402605,-2.1035112533152156,-13.07833983008493,-21.453939769043266,-24.9059225236653,-29.700244581505604,-32.62971799036063,-30.727500133762174,-30.543089408076767,-32.67911731980007,-32.96149426730298,-34.72211645911068,-37.41599644495276,-33.089454317486094,-24.777581142607772,-22.435058630721542,-25.494802899893543,-30.08122375958613,-35.38410782543551,-35.101813714306644,-25.912603479460117,-17.88814633535371,-17.96035994760172,-20.870311463910504,-23.965505365855176,-27.56882479424464,-26.480145238119224,-21.258190340312726,-20.021802661241505,-21.413441408674274,-19.767642389395817,-19.253665588116746,-21.772195123601232,-20.913120692016847,-18.16230115092516,-19.01982629446366,-18.785114698703644,-15.470774070367476,-15.603366885874273,-16.718604446602768,-12.856860022980483,-10.683035351009138,-15.112116103606215,-18.871216345492215,-19.294962153023626,-19.812978073899295,-17.32586902430282,-12.133164802941995,-12.674680540042315,-16.250253470236167,-12.86652819673132,-5.897920686497393,-2.0008352028914524,1.504556733753685,4.1146614796231225,2.3749930117541433,1.4921734801833362,3.216761113396177,-0.764455868913708,-9.071983689910082,-11.972528526015573,-10.705684609950618,-9.038692017528025,-4.121154639053466,0.7588885873249998,0.8448769721654721,2.3300593436677537,7.349542266671424,7.396580428438227,2.829037439437003,1.6094141839278253,2.938047973950097,5.064987655645882,10.676035348234377,13.873780764280909,7.778549221714303,0.2864998026261756,-0.6960612273067394,0.7950884945021189,3.367425367341891,8.993149479167128,11.53269811059468,8.015175614492826,5.715460243208724,5.71216989251181,3.6252208217934534,3.666594290211845,7.90546612924062,8.283967548030645,4.522007362102887,4.8675744608516,8.625668488706395,13.075630588198848,21.2128310477945,27.36694762156919,22.56128040829877,13.094939880633213,7.708306974737617,4.008558205034067,2.458608247538442,6.087470532208344,8.236802949854486,5.95602899859012,7.20868465398684,12.154818683728395,13.61092967791921,13.010203088713517,12.38935949961989,7.450176755678898,2.116816024725461,4.952501236249879,12.144355672432365,17.56445304207263,23.062555626536074,25.630597458025388,20.048548552007325,12.875794832533973,10.46878326319949,8.6476526819397,6.624477867193722,7.2313061164733945,5.994798473440106,2.021630718111944,2.596308373887046,6.3529109666652035,6.662185027856703,6.463918033278892,7.878266672188757,6.034813003440814,3.5026485630339854,5.862379382003403,7.90959800541538,5.994785472484612,4.775850540257236,1.8398077933930752,-6.60032652052788,-11.230385388385821,-6.4107326680738,-0.3773211190117003,3.4388747435207128,6.9361232300270474,5.540046323354688,0.5625981475086059,2.0971900510057626,8.140096117494714,8.546974287555331,4.731705093924317,1.1682459692982428,-3.1605462170505954,-2.9362210430106397,6.777199174380931,15.954692393051895,15.469972124719794,10.229727075580946,4.198865244282113,-2.6201270038418527,-4.195655612946658,0.21603567329280127,0.9133938906240632,-2.818944277986422,-3.434952882561964,-1.6544748019166382,0.9845748728181207,7.631186638128698,12.808698535942213,8.724632576362106,1.308010104578579,-1.8863339682105316,-2.9637335473512088,-1.6870516594290148,3.317091769137713,4.900910123187206,1.762003244994895,3.609647788780465,9.491229385065218,9.297988587784351,4.209549099273238,-1.0863861030860757,-8.366426945617048,-13.08012973113674,-9.349173942972671,-5.635125895115433,-9.062518015266988,-13.425261480801161,-17.09635013409169,-23.31784934287808,-25.575002781226612,-19.95966327977658,-14.23245836245977,-10.56214530960793,-5.44246765889045,-3.8394817870973084,-7.766246881458792,-8.642234840217577,-5.638648849425253,-4.5031167877320435,-1.9051262032326566,3.240255446494687,2.721904178370271,-2.9546775014423945,-5.448481820958474,-4.963424137337208,-3.0747753779334346,4.276643617826967,14.08249626228214,21.046559869620072,32.1923243044546,52.38702398893247,73.19564960376125,89.87476959598713,103.07001603353669,107.91174959037855,105.30564061501302,104.23596542043393,102.84735629059212,93.53748482505517,79.60839041253747,64.66877528164278,45.91605461997035,28.334088422359685,19.081653001986236,12.4450514366657,3.3174206218362556,-3.7850390519312573,-10.49345054812283,-21.70647554181968,-30.577163186634657,-32.192110696717606,-34.25124029954225,-38.65926682334275,-40.19983278382777,-42.68184387488971,-48.87461689806447,-51.719338407085054,-51.43663673422334,-54.50989088207561,-56.91994661094315,-54.55769907747109,-54.19750624763611,-58.208779898900154,-61.89921554876911,-65.91869529976844,-69.18486849418744,-64.93322228067981,-56.679222869359634,-54.005387872942165,-54.500723671783504,-53.191752087022984,-53.195987251389354,-53.42054152006206,-50.19470406997484,-48.85506651746683,-50.97579858938913,-48.42376664877883,-42.08826083350327,-39.83845943017171,-39.40264885887997,-37.52495626238114,-39.14033669924994,-43.37678476798152,-44.06856836159753,-43.400865357758036,-42.406179753733944,-34.67044195342666,-23.866427725167114,-21.073986988306626,-24.394597899206886,-26.374092172067808,-26.584936891414483,-22.195123214606372,-11.621337305110726,-6.017663953200558,-11.174109619722234,-15.982096316546148,-14.756391577055908,-12.671913974590572,-9.312799710602395,-5.3921886387139475,-7.860412714925298,-11.385263961625729,-5.1754373752704455,4.835846691459853,10.212796358796842,14.30644693394251,17.002663927901192,15.53240754169898,16.691683611097798,22.7276881173973,24.45232265237536,20.94550919655908,18.743640450032863,15.073945860898753,8.268971000599393,6.599380977369655,11.00584365514399,15.00411620576251,19.82209513295965,25.0973625490278,23.49490177562319,18.960673519164743,22.226329756743645,29.77572149577826,33.44094243019025,34.06205247865282,31.290438648869745,24.876563894889593,23.896973250563146,30.859469936084345,34.100450297643874,29.619420222315625,24.452874856462145,20.373886954234937,18.50135471365804,23.795654936657154,31.20780378509299,30.812133778713417,25.628413173357988,21.9268340503373,17.49850613616713,14.333908039268621,18.296710540195935,23.877881076959568,23.675119585655295,21.27393090766142,18.639233570245374,13.213559727476031,10.888663847525745,16.646911758702426,23.41143688872689,27.678419169683238,32.90841942903674,35.06757194631614,30.91087261604872,27.172880416635735,25.127280956438113,20.13700417514831,16.190357362695018,16.187818152628033,14.438088596267466,12.609003665353901,16.728966623390786,20.768010576712967,18.028659718364537,12.11434296992416,4.896773704262269,-1.7722299129381855,1.3758316799800347,14.380868133746834,22.635919705836955,18.901857693742045,8.751276821009606,-2.624449192124688,-9.171601665740969,-4.591463321214441,3.7841622265629518,3.646837776004765,-2.140040416161792,-6.1917291781047386,-10.47225763555536,-13.938089510134903,-11.365405345432539,-6.932794787178491,-4.656127159411241,0.5114084285118867,7.236497762232054,8.221618466445426,6.820527492759213,8.642759772150052,8.650631950005714,4.581544710971659,1.746327186841321,-1.0001634644702833,-5.505574750645063,-5.654007012993513,-1.9676038785210515,-2.1099748255839375,-4.277997948237092,-4.3430045745840715,-5.791651336896985,-6.693739856090078,-1.5771046309706687,3.497947101492492,2.203279021050321,-1.3917633641130998,-6.217919759925679,-13.183448350112851,-13.083777661273539,-1.0442417174649536,12.474080739719291,21.297029612446476,28.62778288698322,31.612500162278945,28.95059986423111,29.220662168497668,32.556825419466634,30.908329419094116,28.140998175300908,30.011532307127933,30.07176410586448,25.800638485186006,22.16392535767229,16.2209105960225,5.51053400495467,-1.7491298337872956,-3.2080198626578396,-5.161566702136726,-5.783589839887183,-2.94182050521568,-5.306480542707096,-14.532153967080092,-21.328212545677076,-23.77272625730356,-23.935814051441394,-20.007724254977898,-16.763645770430404,-20.86318775942852,-25.9911839048904,-25.08472147447389,-23.321360766215374,-23.892090675052426,-23.629700363189336,-24.356147056971803,-25.593326423082296,-20.341312723602332,-12.028707375560774,-10.388892947287008,-11.971927540871468,-11.396002873475435,-13.565812651444055,-16.9768375096059,-14.201814095705341,-9.412329504422868,-7.646713070711963,-4.439297300387684,-1.3124729380105675,-4.439980188026167,-8.892624940708355,-9.459803442779434,-11.715982535674009,-16.18823549086347,-16.524110358595266,-15.191665490178758,-15.363415261188946,-11.835869427109555,-6.252061909569208,-6.589369946884821,-10.330935257801814,-11.505872522424433,-10.765390120395674,-5.517384370123399,6.710892987096177,15.49973347408365,11.298847678544941,0.29038571660243706,-8.281978441177447,-11.18998952524322,-6.262173953096679,2.4569413951433168,4.0539325590793345,-1.9559589467338159,-6.039280356947607,-7.2023936740989365,-8.88855274535979,-8.424676808317887,-7.064169768786924,-9.497200113239353,-10.790037084522428,-6.720223075222931,-3.949613789197186,-3.4238604778805657,1.3726300931397255,7.097665405348455,8.818918110999636,10.559790278798442,10.77789147125253,4.40281129197766,-1.8129064116344396,-2.088768875198566,-3.002639445936405,-7.350249737854364,-11.03799859542671,-15.885262343710417,-20.93754086422082,-16.67281705041298,-5.034202335469678,1.6541672719246814,2.6203115928736285,1.6886026207105769,-3.901499085985498,-9.342499022470559,-5.548129112439954,1.5118671757500104,3.5655818014357896,5.114931515879332,6.891665992669575,3.51719067592847,0.19515933820632825,2.7829471681363245,5.194330642225614,5.502344445649672,8.853390012876455,10.903670154450058,6.934903813500286,3.7469667423107227,2.5899568513967974,-3.089504352323576,-9.37653949612218,-9.479222586879208,-6.710612211340681,-2.4066665127167273,5.087700411314322,8.072838712831226,2.0877286134028425,-3.1797251140247336,-3.0906057711457913,-3.774671009933553,-4.914287017825584,-3.8011012845908287,-5.310322599300794,-8.22472425891187,-5.728468861110092,-2.9406934378678784,-6.426275732187662,-10.71657486653179,-14.048220414993288,-20.88564170314916,-25.072825769524126,-19.847417476583736,-12.570228696459768,-8.713832577157968,-5.4092318280459395,-4.8393391506743875,-7.256783188707704,-3.602504280230456,5.824867768089311,9.090449838843517,4.949767063671151,0.833180537314359,-2.5576514347062833,-3.786956722009019,0.8963770055382512,4.5671436648035435,0.6350351493372692,-3.349361014381672,-2.238381154099563,-0.3252592473667534,3.0398610516334807,8.450136291932047,8.178411136448172,2.1081148337405757,-0.21102296985482338,1.7776384223638348,4.052060566933975,9.597908180194223,16.469946377733198,17.003164898152615,13.823672029217375,12.246020281756863,9.069336685125052,5.477666495569496,7.519925444770173,11.250946688489508,11.632285378871114,14.003914224435398,20.05419442285936,25.412341227838514,34.6866065510327,52.47969651786802,71.44181942324376,88.02249944219167,105.475415228083,117.49912297198145,117.8363768105747,114.19464615998496,110.34386875175305,99.82177556553066,85.01834526257558,72.38953904887599,58.928319811347436,45.09719780991492,36.88347918927213,30.006997725725405,19.285700429782374,10.183737702562969,2.977594250382771,-7.829087217498291,-16.721263293223984,-18.622132590572015,-20.82233960303418,-26.092810738563188,-31.506408087835084,-41.36656769845866,-54.57868412968969,-59.421996518105644,-56.52078649399958,-57.72309988586782,-62.66010587070155,-66.02472208630259,-71.51305269093491,-77.76736425470881,-77.3038371784501,-73.64305491466436,-71.93425410453456,-67.4508094364112,-61.81542575241855,-63.48905944811998,-68.75455930182964,-69.16434986949946,-67.05799199525465,-64.14920090397098,-57.28153682143293,-52.96323754477795,-57.17752478113992,-61.71248523558518,-62.322274861158654,-63.723157272535076,-62.98882209226727,-57.0447971609365,-53.40362752401913,-53.99402174034124,-51.658898430337665,-47.75864211709343,-46.94644755304654,-44.92415331664838,-41.041285188127034,-39.875780082139684,-36.66630878514051,-27.839152853759067,-22.1626289974138,-23.158162862993642,-24.89472613269801,-27.82124555054162,-32.39390672140342,-30.32706152225778,-21.644922611174295,-15.925687763216173,-13.073599851598694,-10.260711692820243,-12.686183005684402,-17.624918184374543,-15.092333057628398,-8.015918276507442,-3.570715718774191,0.8416224226720461,4.825124908595791,4.425416640052091,5.226429900449582,10.626866897238871,12.362452945939014,8.510062155138723,6.466360863048319,6.006442129382512,5.148310068687684,9.090588130364202,15.226807860327131,14.875091140284564,12.318258679298154,15.068023097374743,19.39490185255397,23.414520529490474,30.04972791558383,34.1316165155331,31.641867602982195,29.54391422030417,29.77984257890557,26.965766468059897,25.049777899490717,29.526865212966346,34.79742078336701,37.787377612684224,41.43111978650048,41.699237249106076,35.92136909557249,31.944742108789995,32.05110917926834,30.220332034610294,28.957883311238582,32.92678021609556,35.66571655033057,33.40477005984059,31.776601337814757,30.007325629766065,24.21084661607305,20.202983015718807,21.07311834615299,21.481559130915812,22.816230526887814,28.031321987755398,29.937158561263914,26.4824201247027,25.313641399965626,25.629688002923377,22.7980234697765,20.647809589549478,19.540995561074006,15.267637833340437,12.640440309624669,15.441830645951262,16.97520795725591,16.377898411533607,19.358582144681804,21.185433391866713,16.22777392773292,11.574809561302237,11.637951038871241,12.986019115246012,17.773044298906164,25.540642206778163,26.505687036279106,21.32220800754181,21.00594529176763,24.83707449869326,26.292208201065527,27.952212487038466,29.8738799211796,27.03643836994538,24.503052360579076,27.288104801063035,27.197303180697993,21.092477493112064,16.8277194579176,15.335393087368594,14.231316225193364,17.572916903327958,23.11830652897775,22.656894051423542,19.31445275458021,19.644387510296895,19.66851632062763,18.096783053517633,20.97272839253641,25.83207098095995,27.03116010869366,27.34921542865445,25.41851542167988,15.877842345550084,5.926620290769538,3.8324178876627433,3.7143015031201156,1.5278880678324147,1.8995551663751398,3.3484286351878034,2.77270228630998,5.293292852998178,10.627077125597493,10.697975841368844,7.704190943278448,8.134171361700108,7.523056245469231,4.285167936861462,5.203017094710158,7.66983036058506,5.457255037603773,2.704348744603581,0.596642288353878,-5.794471915850042,-11.737201263672056,-11.125292900012708,-9.151545168679759,-8.745820993122209,-6.951371113881638,-8.000165321933382,-15.023310111238027,-19.11536265096532,-15.471007355609236,-10.06963158914113,-4.860426884714475,0.15788789172584594,0.13151421204241243,-1.6879012726772307,4.1632988029324505,13.420454814657623,16.197232491993024,15.2697176104075,15.333651329492742,15.375300184543711,18.407342737108163,23.796697548459274,20.32976818709277,6.1015694961673645,-7.515821631569386,-16.678633053776093,-23.324906496658826,-23.70477666892811,-19.072857019900347,-17.276929415857303,-17.434354057231346,-16.546554102423414,-20.651030958576005,-29.00064128752483,-31.22740616418219,-27.84329242917321,-25.193883887458533,-21.323068397343604,-18.67834316804757,-24.534293582754117,-31.846072829975327,-30.28621552304496,-24.41462956819027,-18.260307973419913,-9.831290268577867,-6.601701487853723,-14.03051490956124,-21.571054787443007,-22.399701116231867,-21.976952838390392,-20.796190017186852,-16.47599878443193,-15.216469591418555,-18.99800103641579,-20.680236979528203,-20.671414295760684,-22.787957546047693,-21.87298316887695,-17.455960610669813,-18.251604540050767,-23.992203770591384,-28.00352554094011,-30.289402349224012,-28.991658306187844,-19.8372728659725,-10.277667118664125,-9.378540492435942,-12.474877511020953,-14.745228970113587,-18.452029628355962,-19.548572229289984,-14.05858209373301,-10.088709058579493,-11.64287890170163,-11.96581308453682,-10.81849669680616,-11.23125915709656,-8.60666952274265,-4.143537083579179,-6.005858275475047,-10.678090591634216,-10.511988687881106,-9.28311154223072,-9.330221825527865,-6.443182951176604,-4.026263339624011,-5.864585400614278,-5.7637065775076355,-3.3343762613063292,-5.473112327124461,-8.914159645040254,-8.140043895030248,-7.091962375264788,-6.301624442008855,-1.8987554836464173,0.2793888343425822,-5.698210080666655,-13.000901977258073,-17.209096385033796,-22.059650931815845,-24.127443612550664,-19.4531250198564,-15.384454852915503,-14.39029254537688,-10.350741661679827,-6.860249515982209,-10.02408120193728,-13.98412807385888,-15.242004190444788,-17.997427010091332,-18.652737578148763,-12.906809067680502,-8.37854357814642,-8.438890896213616,-6.554043798986571,-3.418251477999211,-2.50187361018056,0.698492249928706,5.008166228781045,2.7098451857560684,-2.2636564206917678,-1.9730512862092873,-0.03449724848032426,0.6550989201100654,3.2941567773906777,4.097496197215811,-0.017437989310257196,-1.4566199382996365,1.6306469403932224,2.30177760535698,2.961269398360988,8.986087182582967,14.132537631678042,14.225234643369676,13.619054785311459,11.368371845085425,6.8087113259895755,8.360842653303767,16.872302805146127,21.690496880650045,20.688045635340192,19.015728877736457,15.558939985022935,12.009990907657478,14.806369924832074,19.275648812073833,17.474258121864203,13.337608741428383,9.713442929949952,3.1044701652942663,-1.089839209976875,3.274106172333548,8.870041967138722,11.7206561719871,17.306808838922493,22.258333373544783,20.45194708289259,17.133520197537287,14.513712447178952,7.363354381158015,0.6398984670181307,2.20849302962001,6.3255820907048035,7.894982213094323,10.62919585305857,11.834154828410043,7.265006108556083,3.5889214489672323,3.9010719927630952,1.7795004420867209,-1.370179516407897,0.3664237570051443,3.253222754512766,4.815151022084456,8.749981795274307,10.890792815854267,6.382361724568053,2.394948383985131,3.1913386096134992,3.582633542531512,4.668612077483182,10.80134591251673,17.90585228759699,24.881955831049666,37.308421552750666,51.51970226921084,60.42989249839221,69.34557084776993,82.91167048747795,95.22819672330823,105.4560963228868,115.91583706848682,118.37598016345254,108.73356252830209,96.48254182234047,85.40780744103843,72.13846833562243,60.60268441677786,52.23937809784386,40.28064308691614,26.800495471289988,18.3313339284812,10.454985832071369,0.4582261033571444,-6.236060460903608,-11.059853351491459,-18.1909082957184,-23.48568005289444,-26.56296818479334,-34.0749961662108,-43.59154140066437,-48.87231922304109,-53.71469896591279,-59.6592133970394,-60.490795769220085,-58.9397161227856,-62.51483889547583,-67.56817003279217,-70.06889521212668,-73.11135468429647,-73.77873079676387,-68.5354715843042,-65.81043987979433,-70.9222466036839,-76.91660350427455,-80.54041322917182,-82.67466848508359,-79.37586453331845,-73.39454957967547,-74.48669883387632,-80.56435259731529,-82.76462671514184,-82.00205891533074,-80.60454886776763,-75.71488759333762,-70.31505552336424,-67.35050674829019,-59.24093040167857,-44.51704458084873,-34.29098545627794,-32.19308968315951,-33.877817398470015,-39.11192175443404,-43.33548645313176,-38.20488071834215,-28.322164064092767,-23.028453815669934,-20.546808540457004,-19.398649504403856,-23.24602885373341,-26.93674274748208,-24.383407270716518,-21.57595737000465,-20.74873082468458,-14.996999061779448,-6.776065472823201,-3.1046825604596564,-0.9801588043343687,0.43065843125779535,-3.4620663938341423,-6.32986483282704,-0.43666435597013775,6.536025619557169,7.530558126713233,6.937193015391323,5.646943455647462,2.3461591146650513,3.3707828925694323,9.283079819647838,11.107696255198071,9.220642145009588,10.425031831104128,11.832942539178031,10.594055981175345,11.85526340903601,14.560935630489544,13.814392743370263,14.265329960362418,18.456817091687732,20.077964793262364,19.928875762115283,23.036232114792554,24.965955270151625,23.07526965378129,25.29893049494889,36.38425130265142,51.46970755299925,64.60826627648464,72.96932940014156,73.9338679867683,67.7418703264737,63.10088862175042,66.02624458594798,67.65326262941018,60.63333774433203,52.21360779064252,47.33324038791255,42.940004716579274,42.11991494137011,47.493726642256696,49.99305124959962,45.78964307694508,43.14952729590598,42.106881172663805,37.10752711335064,34.61797662697864,39.41394316127196,44.01413475426797,47.100620692020556,52.2219589607296,52.18288589517289,43.86342923167637,37.98802284488931,37.395799397554114,35.46917912730711,33.694346147219726,32.00454326733688,23.609927431510123,14.587667356348781,15.999946908390069,22.1569985880417,24.42184764726671,24.296032899424855,21.06887348553541,14.285467642762375,12.883991557837003,18.57228086459259,20.1425332493466,15.977539767745942,13.572063962702934,11.781942378305278,9.053909005266323,8.804012804532084,6.37534614740699,-2.3726247788659367,-7.779231981885787,-4.408701339131682,-0.2825635871630553,1.8484586474016722,4.181552866629449,1.7209801482333016,-5.000702490933284,-6.6353409904583796,-4.781954774064156,-6.560447150339979,-8.106634894893341,-7.523976868301625,-11.055631691531385,-16.51206321913288,-17.809682678269446,-18.988254653448635,-22.15358522295108,-21.437014521438634,-18.711401680039632,-19.869378954789852,-20.7808367127219,-18.65599257196346,-18.725224937091582,-19.360031981422093,-14.712175500137509,-7.493261182854242,0.8024718331144114,13.676241142825196,24.77645035087341,25.16211920174005,20.191767926492812,17.101693069493493,14.304442775408704,13.096957130598158,14.34963263028062,9.386798169045496,-3.310826072826619,-12.786130420844943,-17.147463039086556,-22.40413795307059,-25.35988233838178,-23.383416616597785,-22.536173285650865,-22.177371832113263,-18.275708358841737,-18.115788002307845,-25.305413976620905,-30.557439775097002,-32.06234506717014,-35.698475768539545,-37.98738961179944,-36.212154399598006,-36.73247424016133,-38.681043658983185,-36.643516378811206,-35.43789574582931,-37.895723863769575,-37.436966645497264,-33.97806815980194,-32.08433088683996,-27.86524968301533,-19.048100409616467,-12.372268276380801,-10.122800930008694,-9.755602626577504,-13.89918012843438,-20.922687834830395,-21.355116232228134,-15.943620674639867,-13.431522744126278,-13.523979334990775,-14.758015220324015,-20.311152283594442,-26.667265925680855,-31.308717567586903,-41.380517697707745,-56.23544033791228,-64.19406114024393,-61.8399391539873,-54.02461981205332,-43.222824410753645,-34.77352006001008,-35.249562226755856,-38.89522073942642,-36.33051270799969,-30.68252150874256,-26.279244200897587,-19.86843013190131,-13.957366834853534,-13.992513112727814,-14.737597108094564,-12.056681927086444,-11.291387480955432,-11.940178101896915,-10.178279228693912,-11.144041064924032,-14.168765278525566,-8.76869270032536,2.9998713560563592,10.209134092688176,12.272060913371732,10.508490514911475,2.854970684572552,-3.1078443883775924,0.007986232076317323,4.176734209257267,3.9685858199457162,6.701964717259989,12.442551838822435,14.249281919787268,14.698033317986159,15.961386408600518,13.099741232474853,9.14857322577059,10.871730500380878,13.708713949353433,12.293253487459282,10.80030904869447,10.397104791345175,7.388436212314815,5.4542366102476825,8.290204032987381,10.953770333188976,12.481437695139585,16.38438802893335,18.341690603049468,15.299401247770952,13.299215288544392,13.146548614125365,10.799370685568539,10.420715822101212,14.347268556714564,16.92055799519932,19.533128968203602,26.355624679725953,31.026569472369363,29.393249308894504,27.157440359201246,25.792247099786003,23.335630943190118,24.16056392378421,27.908739200544144,25.611839282241114,18.223960427452226,14.881294046540841,15.250530482587575,16.713184587427445,22.72727707580519,29.448037577023783,28.268032015496047,23.00596013340398,20.14277484543788,16.824560640045988,15.583335148553779,23.00708373134253,31.752210815085586,33.274772719292244,31.96455154571906,29.360391489958445,23.07702688965503,19.512718555880525,21.100686482658375,19.946637971166034,16.125116886993872,15.415278949056521,13.821209729091228,8.488057191938971,5.971911245346753,6.269125045134537,4.216181050936232,3.9071967448543075,7.079278368972056,6.382091323846533,3.6623013795566495,6.459463195191983,10.083117430096982,10.330133965198666,13.405333961029406,17.413024685561133,14.706929214342065,10.107162137386268,8.698506511159545,6.268997547208303,5.290994677839128,10.773937712819228,14.991698700295148,12.271768463148597,9.80287648684693,10.425689536017332,11.20598914311254,16.181741219800205,26.276004062195213,33.60900915570905,38.017578746522716,44.716276403303596,50.51136872270207,54.69448854896315,63.97112523964748,75.74776849722399,82.30380045977948,86.67764112574486,92.06347806440903,93.76579314610606,93.66689114235403,96.83190383378712,96.51926098731798,88.00406601638888,78.84825117077148,70.10001070360937,56.68528477742045,44.31518961612202,36.91830010464024,27.42532872217393,17.008216499306595,12.928687472613323,10.218924005236733,2.968183516198588,-4.657401196819853,-12.435328567912268,-23.418557684261806,-30.64002902404175,-29.48053776746146,-29.100630812972632,-34.36034160270015,-40.86620555182008,-50.398019058545145,-63.51071912122584,-70.98526381697465,-71.87851529207006,-74.4403726498172,-78.0608035249452,-81.0207412630197,-88.86042996733786,-99.22790788135252,-104.64930355724677,-108.80522936284301,-115.30503475697793,-117.53450493922813,-115.25818156753184,-115.87086590610153,-118.03125788581542,-118.54003490780497,-121.45483702263147,-124.30811391918914,-120.00685312930696,-113.90777501338145,-112.44790110308479,-110.10882665427324,-105.34673717670947,-103.45995647663125,-101.77976220390633,-97.56048925237283,-96.09033072349953,-95.72163191052607,-90.24298352338265,-84.88054398650084,-84.52482029580585,-83.35221779794546,-79.66011180985917,-76.49729242292773,-70.24872707898481,-60.574454174256,-56.08851682634223,-56.95370701771287,-54.663253450193075,-49.009971537505216,-43.02709632529937,-34.697743144259846,-28.005385078076465,-29.999940349936594,-35.03856683472529,-34.566047932911594,-30.90008262538973,-26.28501358223687,-19.052805286775246,-13.992499928140084,-13.83458269760148,-10.946608738707504,-3.6108190644063525,1.2417113984092267,3.4519000031477147,5.2077349285030685,4.229297960489801,3.969082327485881,9.880658100492827,17.321683195193618,21.50809493138481,25.10726982219137,26.858870808312048,23.94581875583456,22.708561661081028,27.08686007634158,31.307002585608128,34.15138926651948,38.37511862255393,39.42591763149609,36.553835233556335,38.61929831122535,45.04249113610069,46.951818057559564,46.583524284305824,49.24646636282822,52.20837561969832,56.670223527200484,65.91754125457898,72.81980018889081,72.4227046879735,71.97623212011737,74.2672725446433,74.0391320186375,72.54712756057279,72.19090681669805,69.11458774004404,66.18975132958494,69.9953245625348,74.87143221901985,74.8471665184036,75.15051828495157,75.7513882666989,70.73222461664525,65.30125817916738,65.56105255506513,66.38588236944557,66.8787086824723,70.87558965615506,71.66974527734676,64.97351548924534,60.15764888314964,59.724638032392534,56.32307552322832,51.73295439821585,49.867889208124694,47.053703849726205,45.77049677452378,50.82026800866298,54.20340269185816,50.4843901237114,47.20599587727016,46.10379196518116,42.35415004165239,38.86297215701088,37.89058203874871,34.84543653029597,31.54464168671027,33.205394724288745,34.667179650985624,32.299371120100545,33.12985710379881,37.28309215056824,37.20851533164903,34.33297586195037,32.12222004856471,28.03406500497359,25.353805379095,29.345714492960163,33.48145132618857,31.407911574413887,28.07123414979935,25.094675289634573,18.52137960193444,13.126291925614435,13.529452325212088,13.730624142780202,11.919360198965347,11.355834032525486,7.2505105807309995,-1.8032215140763208,-5.836869940477339,-1.6025650315101712,5.165049461189788,14.078696410014789,23.627151004738003,25.654673509561565,21.637500566045567,20.932323728375025,21.623469633156084,18.307827291181507,14.902892929149537,12.156460353419474,6.449943893064454,3.1174591250892063,5.822459269620258,6.28151157630795,1.6630788229772593,-1.4298518691715185,-3.3718755305242736,-6.2943203121535625,-5.395087146666163,-2.8784925792356155,-6.571267443901769,-13.61317262405753,-19.3647465999976,-26.19108279461516,-30.112278763585472,-25.51459012012855,-20.073055701808755,-20.582868054836116,-22.553756823099608,-25.24740597231283,-31.00586279548501,-33.11795504666853,-28.661433600905227,-26.913247697303795,-30.21987854963403,-32.64393864379518,-36.31153109258907,-42.439977813271106,-43.32579622787161,-39.2076984488914,-37.875700818512655,-38.150393291683294,-37.38505504309227,-40.00349946219184,-44.267955605825776,-43.98622994274588,-43.1424402452971,-45.40184342922012,-44.33687418202022,-39.4954919386614,-37.438220287933376,-35.781495209697766,-31.531641193871884,-30.137441995862964,-29.96736553960607,-24.58882083595263,-20.653079908554275,-25.32848102927194,-32.01143298947137,-36.28201296658359,-39.637694806684266,-36.55047316584716,-26.090966837389917,-20.77644126691564,-24.322418404340404,-27.958514068330473,-30.884568580574296,-34.44144063836669,-32.03012140825044,-25.45302527377018,-23.95450429593903,-23.978898210797347,-19.932052000503795,-19.17360970371821,-23.257847150272514,-23.825247368671636,-22.797366398593503,-24.915095210541953,-25.310953994378632,-25.362613109936284,-32.239481752109384,-40.048083103040014,-40.55705306156218,-37.93710734552872,-34.659720935671686,-27.861229722644048,-22.827786769543792,-24.06828046281143,-24.306034982108883,-21.20797721387077,-21.389050781014166,-22.58088072280638,-20.76347517950339,-21.67702272933083,-24.306572878264898,-21.1992478696111,-16.679898805054638,-15.493924994720189,-11.417647256206372,-4.764965943130588,-3.3521813820793587,-4.244235545019967,-1.7208948812153646,-0.0678548954729197,0.16661803800535796,4.049981309176495,6.557786532007947,2.4596240043651076,-0.9686579772563036,-0.7314483972239204,-3.006635902955917,-6.392435283756257,-6.310502069079398,-5.956989033591273,-5.409115278733303,-1.1439071031010335,1.164430651621635,-2.131841953480135,-2.6678985225635334,1.8257673096139,4.341832536220088,5.3270656768178375,7.050349950081529,5.3197955161601165,3.2849805661935707,8.014335245282561,12.907820690602968,11.032868953380575,8.404161717276205,7.026843862693228,2.9074034783149116,0.5074643434178369,3.028030978488241,3.6410361452638034,1.5040041520966192,2.275361978518849,2.6103558339280637,-0.22572667056346019,1.5425473614350724,8.674664112388829,13.24829095966257,16.357768314672633,19.87687167280489,17.284725693575194,11.281704403327714,11.758391564688898,15.134065947162483,14.236890559005348,12.618279156200499,11.108106781964432,6.102295970541524,3.4952142360050633,7.485216088422307,9.70080892560835,7.545635737399245,7.74585611609114,9.144825385265648,8.238127640718076,9.3853816219128,12.197191902914398,10.68272545558333,8.68529173513702,11.658574108151276,14.389622274107127,14.873770428260375,17.77676057192883,19.826484268209988,16.352258504135463,12.814282536209348,12.14562892755575,10.439745950106692,10.339356607882527,14.682919428297359,16.763416907519126,15.019023644944753,16.09718954627553,18.89013244495829,19.91903395198229,23.578060539246124,28.3256919022734,25.880594824040692,19.503835701708283,17.439906136479042,18.93972794141034,24.21016539563407,35.9858850749135,46.667024331680594,48.486622228680076,47.818631179956206,50.752409760602504,54.123423003095795,58.32175345821075,64.39207688124064,65.65901745880306,62.15227215057451,62.77561800655448,66.7862419333373,68.37923777961538,69.6791898824431,69.29701883476798,60.34164751828817,47.52427122599791,39.49924632104447,33.13166686042622,26.935202526917863,26.23561703940973,26.483708472297156,20.38503509363824,13.162229942364053,7.49111667704641,-2.4659299087871984,-13.116221137825521,-18.838667987688282,-26.101728853160143,-36.43176374788267,-42.283027472115045,-44.92826603176672,-48.13009594860743,-47.48342316815886,-44.21558953655928,-46.85090382553276,-53.572143117961545,-57.383331685784,-60.93442475166811,-65.30357120299553,-65.95177531480807,-68.07822316867164,-76.35473152015338,-80.40399000812127,-75.04603192600781,-68.71631619948124,-64.45056736451134,-62.52591921994873,-68.66784688719758,-78.23825519518518,-78.95556545896369,-73.8827334635096,-72.58121786938543,-72.7189048018858,-72.38381581013124,-75.27647142254735,-76.77181835301904,-72.64613471455603,-70.2165447048218,-70.91323072879645,-67.28006392550047,-62.443851148097764,-62.96918448744417,-62.415907780373296,-55.90457350996628,-48.57252887404552,-39.6139969824162,-28.00262434581701,-24.16822753188645,-29.0690574515063,-28.958448249833022,-21.63541531743016,-15.010532112150955,-8.910148746053094,-3.7283307257556424,-4.571839671627394,-6.2677097702843625,-1.6179499193607123,2.7111384033857524,2.301542847835121,3.4966850861867194,5.570917072080638,4.59767358203598,6.750447564411097,14.014563891894202,18.912434057051748,21.666790207531697,25.849654958716233,26.297537926840217,23.324805561778447,25.216498936355475,28.63358727925517,26.160009611468737,22.798015994895703,22.64755653126856,22.90241291750344,26.508270131782837,34.79187158157947,39.055603618912386,37.62810286233626,38.3411239617089,40.21057707026401,39.19407568825461,40.012087630688804,42.53476950795438,41.06155533196358,40.38711946675033,45.20990181819743,47.798898996023354,44.604496730360545,41.40671846119845,38.14875447431236,34.03402995933207,36.95745480614488,46.44103464815319,50.00607475302672,45.52072790957525,39.8231797614248,34.36624402805106,32.68974730607432,39.73808735450148,47.22393289574643,44.76961289084038,37.76293037762642,34.52001549458946,34.72831287422521,38.874664738137184,45.604806097438484,45.89406151212547,39.190927130435355,36.28955753876606,37.854562949858675,36.54321546155661,33.91702861484444,31.556621409508907,26.15358028968972,22.676503743063098,25.60091674781461,27.040542012790347,24.03050312902458,23.506191494786172,24.807478221065487,24.684690079749124,27.964227038128563,33.52156046217599,32.80807381631534,26.96855217450256,21.236805650710664,14.359892179887886,9.459764459777816,12.192420783086092,16.230940324418274,14.300797420109845,11.414774159359444,10.993508084255167,8.972593989247127,7.151780277266726,8.871713180201475,8.84490728306592,6.02260407094222,6.3941301900698395,7.112970657662654,4.210072695876185,5.21219640474743,12.240827156395616,15.496680568115943,11.998713654112073,5.469053447742047,-4.057058155487353,-11.552508693149095,-9.291071784044673,-3.6499004704441815,-4.307982529736788,-6.726553051824019,-5.878248545859135,-5.410180211388388,-4.531582813875041,-1.4858983473635456,-2.813533216588603,-8.287033287963126,-8.167805367841696,-3.5283844964624236,-1.477203276295992,0.3433930554620114,1.722156423913768,-3.968302562126414,-12.42313450454094,-15.341693542666,-16.684614686461483,-19.596930400570617,-19.51886075624894,-18.78610015637248,-20.73902090505866,-18.434827748497323,-11.254396858921218,-9.075519630783575,-11.205498865083882,-10.373592204520696,-8.91267076683614,-7.805776035497921,-2.292126228976271,3.4463484453493836,3.841315936681031,4.818369840791396,8.32075754785321,6.570167986862827,1.1223775792547173,0.34212004409601704,3.109884649690413,7.355911307616324,14.94831420522725,19.00174151478101,12.700249134091756,3.4231900626916105,-1.9264676501206717,-5.688502671243476,-6.861333395987294,-4.388867779411591,-5.35552409453803,-10.86510745393026,-14.051883225216077,-16.30213054712812,-21.784901815762485,-26.592574655123727,-29.09512165201541,-32.74529157021732,-33.94324469259592,-28.504965143416843,-23.64326030059621,-24.599317947327307,-27.444162923835457,-33.02946932968918,-43.38603857695154,-51.17079213833853,-53.13047173108884,-54.265088289600925,-52.72622459290418,-45.757165281573165,-40.209023732324496,-38.85589153063875,-36.92146481559675,-35.968773712997546,-38.4050760068184,-38.353145441970014,-34.97359653706904,-34.92419647854184,-35.86298567858444,-31.696539110905395,-27.122785495063745,-25.44227807989656,-21.53222100921799,-17.64187619659058,-18.9519464928036,-19.566236629068264,-16.373624656984873,-15.686516803739053,-16.303188017110987,-13.298665879533466,-12.210508056501297,-15.730660528122979,-16.603720723432218,-15.011596564367803,-15.51205550667565,-13.465542594574988,-8.13985793362248,-6.815090785346478,-6.756188250833555,-2.4086072787495327,-0.5912197632718508,-4.182538273907857,-5.532850829533103,-4.558546597444655,-4.5309587974026035,-0.848614359729335,5.2894020572594265,5.716431594682067,2.921512322750969,3.377527615923043,3.8162313624945625,3.3652589593620155,7.488283065304078,12.238872175339475,11.07905150345752,8.859536843929675,7.6613388205440565,2.6466911525319965,-1.016273313680839,2.8749886815021894,6.691360254843208,5.642789173329149,4.661899082230272,2.685055994203106,-2.111512895717879,-1.5880716365791685,6.178950436182384,10.705237675618664,9.250514934536028,7.271629130313443,3.7059416957583187,-0.2660136443436718,2.9366774053878393,10.155124131716738,12.55825403916873,12.706472988532832,13.125237536312575,8.947115545763063,4.112138637000537,6.684355397962276,11.778049834511753,13.55008935646213,14.948436333390152,14.275266993054093,9.264338236171866,8.275537554983641,13.316075982622236,13.060995356107092,5.355220526938691,-1.6234058037730792,-6.195203905365515,-6.5727035158210665,1.4513172306397726,9.401285785670137,7.048347243395695,1.736410665777104,2.697763646586776,6.9134000413132375,12.646375646433153,19.035760845397682,17.332937584408608,7.884283889209886,3.526113468115026,4.804502987298639,3.02217397111953,0.5921985552236667,1.7132266461379022,3.7104964176848423,8.625177512261363,17.14281612084416,18.36361208259095,9.118842111198093,2.2099114301621277,3.1860439697292264,7.033779405088991,12.978043468826192,17.858437102244267,14.839579173252242,9.210694848495823,9.721071043281071,11.917622959299832,11.519189238541134,12.142325577641229,11.116589433104696,5.460702111740337,3.150541831907548,6.848024252028997,9.19403174610616,10.723811770080324,15.316782373446804,17.196432038404847,13.521317061903057,9.932269193907413,6.1679671842716495,0.23905567102283642,-0.7011531131477016,5.5912602564054765,9.710552653521725,8.177221403882884,4.837544248579299,-1.0182215152568999,-7.116900320889286,-6.290073051930813,-1.5551842617485077,0.3880110871423879,3.43134351050295,8.984962212886645,9.236892351504624,3.72235601498262,-1.6621378319744935,-6.7055868794261695,-8.866603442757505,-1.7471279365530417,8.41269527583033,9.38990463547053,3.9111413506026147,-0.020201599098448098,-2.5949829834571827,-1.525063442402676,5.287550418308642,9.090043919085884,6.628745631372791,6.547617567021767,8.835868320226869,7.815946278467901,8.04492226827287,12.450078639122614,16.58806985743637,23.526771161792812,36.56746543504313,46.6381989281346,50.45650112886387,57.10630866105127,66.72642401867886,72.810189426511,77.7382380861579,81.15898260140455,76.40465832539488,68.53362180267901,65.63301236251225,62.07392265610525,54.61799289423776,49.53728862404245,45.2589937494217,36.452500889669466,27.01548533495503,18.77632369303526,7.090657943180516,-4.782136413467221,-11.42230567918374,-18.928559071053893,-30.42446820935386,-37.84847158078739,-40.54398819168735,-44.80843207525896,-49.256939452843405,-53.83124570898348,-63.40796801684875,-72.18962515709828,-71.39152429873702,-67.2380671032302,-67.10261761862506,-66.81464310329761,-66.55157152470319,-71.34971576044441,-75.81885843887683,-75.35216585439187,-75.46118400883654,-74.93874855525615,-67.90717767794092,-60.68578051482173,-59.43363306272596,-58.79598731291945,-58.33251487400243,-61.988663774060456,-63.39233857965424,-59.061146861694866,-56.49189658174986,-56.00763274632525,-53.50779934231069,-53.642223341312224,-56.36405940041795,-54.07468523251029,-49.70833216164901,-49.573149626900914,-48.485038504967946,-43.76838295434411,-41.19511387826526,-38.348858191743055,-30.354344600725426,-23.81148468939667,-21.684700403889266,-18.326012944976934,-17.041585517648628,-22.12359310541175,-24.513306229325718,-19.23186881370104,-13.428011590529103,-8.804280983027837,-3.156773718206807,-2.0919368417381476,-6.765794940738111,-8.26464453062086,-5.99320972212362,-6.299595182260822,-5.927071145992249,-2.330901124421933,-1.4818923348003636,-1.2144147877098073,5.1914815938763805,12.714921466360003,16.527337975919004,20.992468017906752,24.699135533950454,22.71939512325642,20.322255293434893,21.637030501248695,22.054640991063383,22.823600884002595,27.94371804713893,30.58579421087805,26.159626789215046,21.942716065978622,21.264466652776907,22.19671190572719,27.968994168061734,36.047886709748965,35.92772066825141,29.84904666666426,29.121192993025666,33.32380077628828,38.19444000819173,45.46735490190524,49.696362202364774,44.233344930236385,37.80786460864888,37.42791646737342,36.973001347595364,36.53210132245717,40.8578115489098,44.128302952627024,42.6810654227673,42.21962362272274,41.66983203191296,36.59842867802366,33.03416913502779,34.93343151308602,36.30107035937816,36.65341468901685,39.444317912610586,39.69017146624473,35.445224323767164,34.29305231135698,37.0605954135024,38.43077843656702,40.390069914384746,43.487918146392204,41.058838156046086,35.085845453568105,33.94107209468902,35.54875577138172,35.99342175639756,38.037983183378294,37.88943835547976,30.315589497792445,24.07045945756397,25.96492113953609,28.597584905229724,28.644336486028728,28.810781479858257,24.88495811340167,16.862199205394386,13.575260263618432,14.187445435553336,12.388491434348378,12.90182256053875,18.06550414134365,18.689232174029083,13.144476242666979,8.218428328321943,3.566621003394992,-0.2066169808571543,2.862247298919522,8.26458915614632,8.34457935930127,8.820182734204346,13.213339860615314,13.58492690762538,9.05811752791936,5.550629413835551,1.5397911643877555,-3.007094051768661,-2.063545653131007,1.516673828993195,1.1084888548232967,1.129744338968115,4.310472991146505,2.697516423846883,-4.496917684838056,-9.690040377128163,-13.37480073287856,-16.616124858650988,-13.071623974587439,-5.381748979816012,-4.132932266176865,-8.705034014968568,-14.133298038373415,-21.175029891139936,-24.473646047042912,-17.32990547306592,-8.311736315491423,-8.08288226490205,-13.196992697707174,-17.388635344477855,-17.87048122384877,-9.716116552971169,4.770801119182627,12.70823491492111,11.120878621344833,9.84120043038028,11.230015992534382,11.899878221334331,13.71972067657471,13.679551343330285,5.545992317135713,-3.928379819029014,-7.571359164055247,-11.71599336631966,-17.875151460897122,-19.835204514276214,-21.229848927903525,-25.6402731462423,-27.24896350303092,-27.848970366965922,-33.17752146618932,-36.8634322588413,-34.84398498619767,-34.86170333808803,-38.23998124445481,-39.14613185172948,-39.89279385588769,-42.66639346324328,-41.70516245861795,-38.28338210325051,-39.25430714745533,-41.107474163920195,-39.692420737450234,-39.472970307313744,-39.09366155218814,-33.85006191766139,-29.66602867730304,-31.2328418114537,-33.224061266615436,-33.906430633255056,-34.63659625789028,-30.456610455575305,-22.24440412690213,-20.140663220093025,-23.568439344002886,-24.279547173680957,-24.738311119203054,-27.741861235864697,-27.49570824682816,-25.144243254446685,-25.412113968946656,-22.70936998279152,-15.668491170040511,-13.866601006829569,-17.62168340394048,-18.739644108016236,-17.892305074856317,-17.274586522077584,-12.529974899387673,-6.637967950840869,-7.167929559036256,-9.59739927685291,-8.274754805018759,-7.98148277370751,-8.777586748288137,-5.7017283775943985,-3.4638733237385857,-5.38157888178782,-4.866841864488256,-2.069711994545277,-2.4622538005556986,-2.249019422249903,0.934117485447632,0.15723049799468503,-4.088810186909291,-4.056769688567167,-1.815598554088458,-1.3404163736498658,0.6370121133847237,1.2204314571773014,-4.254526513394845,-7.578263198089068,-3.3538470806909393,0.09909052013701858,-0.6530026957399289,-1.5400516536643203,-3.383105563567542,-4.227977213008397,2.4162248446948165,11.65622220316714,13.771439313679965,12.424771566310682,13.443241997232253,12.769693058847357,11.17748961666618,13.660819939050324,14.361931838932653,10.095197612626793,9.430592269037028,12.381649687257356,11.216491964006488,8.948864753641907,9.34005333492483,7.2021365485012785,4.116155731975336,6.348996190121171,9.341867275312435,9.51978480507192,12.905265752724286,18.140353024602362,17.3969652182952,13.341771696578164,11.222135764584593,9.094799741331071,9.399876885349403,15.713460791065822,19.646280102310726,15.34610392013687,10.657958293064658,8.985511572793703,6.110389927546105,5.567547021891508,9.600010666891896,10.11880256492163,6.6189378959749465,6.35428064399064,7.101180345498772,6.338726559425442,9.6439284502655,14.516347276969107,12.712391226716436,8.236228240463237,7.363563761059216,6.5870963212290725,6.003608156301163,9.736974899387645,13.521775115689364,14.62656813105166,18.40518709744795,22.903860600856447,20.11229571095318,12.149266869615856,4.7694984780157395,-2.4801041541572033,-6.028265515224069,-0.31753536533381155,8.467563745963503,12.579378820228555,13.762842546161671,11.826819811063622,4.57105102972117,-1.2466956925572226,-0.05229570839886444,3.4383842052909075,7.062188086464367,12.71521227197136,15.077652433543111,11.142073258332164,8.139072438287359,7.719396761692682,5.860074232932625,6.605235553547986,11.228579085079787,12.054274055904672,10.564491194036894,14.710878063119775,21.66564180626071,27.972274798527724,38.147601039470956,49.591239355413045,55.12255053451909,58.52922757722181,63.812778677131405,66.04368005708379,67.30320650922751,74.76961137823477,82.7361041300595,83.40273447771474,80.05639922157263,73.5870264595846,62.29328792235465,54.375964518900645,53.62703362730324,49.95357765621401,40.20330867569741,30.449718724814076,19.18398998528883,5.574975568603185,-3.58637676988388,-10.364563575534373,-22.20544908343106,-34.81013794304514,-43.50194263375086,-52.82346569834671,-61.752403645135985,-65.47083490852405,-68.3893575582079,-73.30289568542406,-74.58762800391798,-73.48755357919445,-76.49818534049959,-80.0043002078749,-79.60360978694848,-80.18076001432547,-81.78831078655766,-79.36978388349809,-76.86079924573794,-77.37683252417864,-74.96566864406523,-71.03865860429951,-72.9278000936655,-75.88670392432974,-72.7496350674548,-66.98910357053818,-60.39475007750676,-52.21592374355582,-50.12569599716265,-56.714753393610415,-60.78269709457937,-57.710119333387226,-53.08661341892036,-46.08200666061616,-36.27758196703684,-32.1798106837733,-34.16695763592216,-33.766251888790734,-32.15111296808385,-32.01679823130833,-26.584410249921653,-17.25456457731547,-14.459212950442046,-16.34215456927292,-16.47499420255695,-17.84081009150865,-18.823392957159392,-13.114273615713689,-6.739020132619659,-6.413247855241871,-5.264938422483083,0.006271071460855149,3.77695119945112,7.361517967951938,12.235843783653706,11.284725668533596,6.573572429894098,8.80148308919968,14.978009165014175,16.982233204949477,17.96663961533414,18.49066786705342,14.468771516332716,12.66706904418139,18.059012885957898,21.54149278669434,19.88198347871136,19.548848706146813,18.56657390569633,14.61113016580542,15.968141362340452,23.91979524181926,30.178974427871903,34.26313277368088,37.34235924929082,34.19534525239046,28.042890268197052,28.839788038607754,34.28195778660445,36.974845455491746,37.429922976605795,34.30358219479465,26.424242238660604,23.53065020749407,30.311093834903904,37.289099524067474,39.40613920068952,38.69735126124153,33.376131030805574,25.303741686133165,22.155595636114032,22.31605094266678,19.272578853323218,17.580490875840695,21.360941398673976,22.986423087725893,19.715446290549693,17.396965747796777,16.103556956343677,15.762639049274789,21.808360097928265,29.730961965937137,27.91647098163488,18.912712494262372,13.232202836953991,12.836842049947872,17.91812079011958,28.511185161206157,34.921210967494545,30.417179080871936,23.346959811250027,20.251169107322724,18.806936868615793,20.157140461265502,23.73510637894452,22.083342813422092,16.413171924163073,15.056375745637931,15.945855097998123,14.19730389335352,13.904560560456455,16.306085579239003,17.704782600120556,20.974596285993545,26.504840140708268,25.336516871398988,17.166707121635625,11.813436750183218,10.42981523453709,9.245793540835543,9.555472350318476,8.533180755534595,1.6032968807523695,-4.472190325097752,-3.363393094042113,-1.2883173695829089,-1.3923634752073761,0.9743314325575487,4.017801956808052,4.849042220744716,8.312539379126221,13.371614724886598,11.78539575154429,5.44722976214844,0.36642412931184043,-6.013329865667017,-11.525980337673783,-7.855899450185205,1.001243256020869,7.401947989337389,14.651828446628361,21.982456144563574,22.780635904966722,22.060402910208676,24.868814489304327,23.5099142609712,17.270768878361253,14.615083024920665,13.741661961631035,10.70350305662421,9.76546353389984,8.74460049826857,0.9099422837727618,-8.554013085942392,-13.050140890013578,-16.457900721141314,-19.307921411682734,-17.63647539423114,-16.989588933659633,-22.11519112148212,-26.76220330835886,-28.883269556672186,-31.39633171905286,-30.511598424723775,-25.89587889447889,-25.071169594651423,-26.801960122013067,-23.895577849486717,-20.214316363117753,-22.058831408185686,-26.25081572366095,-30.724692443216924,-35.47104170312951,-33.57239243749267,-24.36579735878201,-19.859550768623805,-23.03364857068825,-25.732519374087897,-27.040847814431782,-27.632648672535247,-22.606919405919918,-15.218287848213176,-13.353219365974613,-13.154874793447195,-9.449451809188073,-7.301255898480896,-7.528372646444491,-5.2200449470598365,-4.329398834312615,-8.012511988132067,-9.408946468067942,-7.922751626073028,-9.846611884999756,-12.798345889868282,-13.20721284778749,-15.145731013892073,-17.100061808393654,-12.784013742406604,-6.468523894077026,-4.442008368223725,-3.504373249415031,-3.1473010644717823,-7.1835318843464595,-10.268357436639517,-7.212836901628774,-4.333021860204784,-4.04014285626463,-1.636604344170459,-0.49680231446657824,-3.6849717446731143,-3.9491687595026224,-0.7111108684318932,-1.670630510983624,-5.1525624224598605,-7.175611721976029,-11.054848595557505,-13.695673272402386,-8.209056104945024,-1.3478108066085888,-1.5218163233438788,-3.36887627175719,-3.0500292675927154,-4.160937031907251,-4.555499854636381,-2.453385216626534,-3.01711330451266,-4.146551233394048,1.2053998202293867,7.361810154544757,5.342586868286597,-0.8444698435191356,-6.144807940734039,-10.967222513701158,-10.156673492850276,-2.1408984973043284,2.913957550024794,2.806645955773612,4.745536158564382,5.824405206951807,2.331659708392884,2.312730827987158,6.921403834023188,7.610663747297165,5.761367808392148,4.831014012076987,-0.07961280331586984,-5.838324173267228,-3.857122976153745,0.4557511330990165,-0.4660686497955855,-0.9093465837410806,2.02425020274525,2.7879188574965745,3.0867446692689704,5.2897075472524815,2.64149638212231,-3.6652699464460206,-3.348083793039682,1.962041661635118,5.287602668269061,9.5740367097195,14.093557424481787,11.176186180519526,4.492266864078773,1.902430218805509,0.5671317242693051,-0.5739538039721773,2.618772500049081,5.257745643807224,1.4920376660506822,-3.0864433040494883,-4.977109353329103,-7.807476413363432,-8.026637778096319,-1.0639209110662737,6.2084451038993524,9.57305195511205,12.37289536919641,11.20438356500577,4.262667123710864,0.5305178048028164,1.3561544040534095,-1.1559061212281603,-4.907277693160528,-4.562933202137991,-3.958729925955991,-3.5001378901534044,0.8132937399160571,3.682670492739183,1.3398289437674622,1.7114652353970514,6.423465293284843,7.849769730552656,6.7888430651642455,6.915543618839192,4.836158616700555,2.7851574093918585,7.136378248795293,11.784538744742939,9.128721576822572,4.70690251350095,1.3624067888645885,-6.094946640922706,-13.906773068643176,-15.527685615620868,-15.069870559114875,-13.792800478923137,-5.9773182198225365,4.4935605483680865,10.599138911871027,16.7384880888652,25.08309473165823,31.1753156003178,40.29051760123094,57.735642853833255,74.23445853580401,83.00234926151566,86.89380064685791,84.90262597092587,78.60894405456523,77.38466394790356,78.43820393365885,69.1508020224914,52.2153973238114,38.11776127035236,26.813737026702647,18.31720791728513,15.691445586335725,12.260595995872439,2.43774862029017,-7.53296308164397,-16.173468992375913,-28.092375811184876,-37.67387690446123,-38.671214085461635,-37.76391990437662,-40.08184047429744,-42.190324859772694,-45.00157644567186,-49.036341894395285,-47.46572590666446,-42.752843609437335,-45.341254071719376,-52.496759834705685,-56.750374077051106,-60.991839305911675,-65.66720577642216,-66.24626132302646,-67.10270972257217,-71.94368209016615,-72.98694432572037,-67.59218531667533,-61.86159465330715,-54.851880901456155,-46.195531194240345,-45.16292078525292,-51.63380142820877,-53.53699044112706,-48.96004968142988,-43.32667995640403,-36.31473525188464,-32.25417100213424,-38.65287980826283,-47.77951099362966,-48.434690504640336,-45.031370686009275,-42.87800630666878,-39.383041342131,-36.99588653567432,-37.0977643883314,-31.665197764727047,-20.382084543936543,-13.03903204960822,-10.402815321205225,-8.068303838410635,-8.27443154217259,-9.11162691710317,-3.8425152000142107,3.710240075041669,7.2699232807214305,10.403721290456158,13.214997552008628,9.761481220124125,4.12324987988271,3.4522981895555573,3.860513225379544,2.895674447525815,5.023421803477886,8.175784218851227,9.369116191721735,13.953762231859011,21.472238851894712,24.17018501062231,24.60585872181573,29.46456071327925,34.875225450663784,37.19456975583138,38.95673999288468,37.75727351967745,32.56573207500524,31.729327779067933,35.61880716969193,34.43875706015392,29.52626221356773,27.921082226042504,26.59253487079044,24.81662740434866,27.664109509463334,30.074300729747772,26.681370585309683,25.823828311881215,30.49203858793583,32.71642769016286,34.24074871741439,38.94899370351725,38.858885407963825,32.95850841962117,30.121550914766484,28.688698805533114,24.897661945327215,25.420309587718823,29.69486790473472,28.021713465909656,22.67371058881833,21.11738179064321,20.93768596781848,22.25897824536358,29.09509254793317,33.68558104331619,28.282476058719055,21.042035474951966,18.871352794371845,18.094817730398788,20.028623084859106,27.020524662955907,31.43658000306602,30.81108904503222,30.838422711439044,28.42553166774011,20.467369102322444,16.12552652965526,18.854392566691853,20.101893414169865,17.513520227347858,13.791838031446279,7.220312144442296,2.5974791621184785,8.293712993053726,16.98648789705521,17.199837965913613,12.51469025482134,8.355101945260705,4.105960921912548,4.676930429039234,12.054391629064348,15.859547717021545,12.321252704981502,8.789782511722624,5.429805259593934,0.13180253072765913,-1.4460438786505296,0.2719468797735619,-1.6373738935223057,-3.793136021008673,-0.4953797435360885,2.2794826994402246,1.1177273387322897,1.595424346501713,2.40881582978783,0.07490568343252058,0.039124222429910205,1.6403383403979512,-3.879565279884383,-12.925598085469312,-16.041983141198713,-15.417790317716076,-13.402485105652474,-7.598198032915029,-5.437620192355524,-13.939331428052427,-24.106699131492498,-28.468035151768976,-29.845413331926913,-25.554853283508102,-14.051907038689608,-5.986206750681203,-4.65035034289731,-0.9071791858440428,5.284427276579312,8.535065363214008,12.75432290576583,18.384375368680935,18.34067378129012,15.370445656135914,16.02792298031193,16.42097586259441,15.258460226353353,18.427175710077904,22.459935281977888,20.1835758659308,14.547690902243826,6.968709991108636,-5.80535843337492,-17.225230500011293,-19.964562321508453,-19.27101069492626,-18.434294802837133,-14.520464054683263,-12.691263932349457,-17.26347198652828,-20.83411516275605,-21.309730403075694,-24.612019072458203,-27.776227170325367,-27.26934746136226,-29.949001140501053,-36.321353869871494,-38.51592672645428,-38.62480581919011,-40.753690945501056,-38.72301193368482,-32.467418546658514,-30.066742334760313,-28.596228999986263,-23.10893005672478,-20.836470249412006,-23.354845704838496,-22.804391446772584,-21.885728953391734,-25.6217713367134,-26.723325582235677,-22.99497816302101,-22.66300157494112,-24.76681497527119,-24.068849146093466,-24.204922747560083,-24.271812365001555,-17.797971256243418,-10.296831952350548,-9.651269671899394,-10.599263068211314,-8.849905384681747,-8.102137058269292,-6.9015069606460315,-3.1555152037416048,-2.425875877756237,-4.191531171547525,-1.0587098588613129,3.8298964455767406,3.665259065338282,2.1667103495277384,1.6088347273488868,-1.518359387429452,-2.9947220792095814,1.7370846536123097,6.0557217449011,6.221909777736625,6.607861025441394,5.6968415757885476,1.08672196405578,-0.08862870724457934,3.976035573418636,4.854084519235359,2.7552415742667056,3.2306700873363514,1.9250828598967515,-2.8298613227842293,-3.4643212086309854,-0.19680214130697027,2.593974431185278,8.30265560572648,14.449546026477055,11.323057024369696,2.8609583880812144,0.7529343868646446,4.920399864817438,10.848653234653632,16.758020928888484,15.62485952920155,4.739827572870077,-4.279149700496227,-4.931846938739927,-3.9111249602601275,-3.293632584375578,-1.1383776349324108,-0.9912000408986306,-1.403369682676846,4.19094320833459,11.478654553009633,12.532377406526972,10.458777256351938,7.757610332241281,0.6960134513506004,-5.876901174578601,-4.711529590900941,-0.9241943495942717,1.8785321225381466,7.844426284764373,12.812515344084357,11.303368235722782,9.730386780243474,10.586020965857067,7.214323277263013,2.0249862066502207,2.166803775634474,4.601723769319775,6.766487013916867,11.293418952033774,12.545763055724333,5.258444386097567,-1.371028346591296,-0.681886924649504,1.2115600729787832,2.405987507856929,4.966986327142674,3.623398329322635,-1.361654686142606,-1.0997022807402417,2.393635913987205,2.119900759452937,2.3254643448888994,4.876375901240602,3.556810233775011,1.3243284807059288,4.250184968562897,6.746136647165758,5.684898432758367,6.191953634989901,5.230220844699982,-1.6614677508060929,-6.58941766097995,-5.118119104528153,-3.2492825478401635,-0.6779783217017652,5.08678117990333,6.905482517520724,3.12369494294291,2.046666179557887,3.1172950018125456,1.1496030692922738,0.6094971409260694,3.5723861294235273,4.142925027023507,3.800562452917694,7.0030784084995155,7.8961418879247125,3.4111659110609773,0.6281906136510951,-0.05608344013220992,-2.9871711664078946,-3.2782029041874683,1.0266408006386716,2.453848599226094,1.0330935534244383,1.4327708277377056,0.2453819971322817,-1.6875223057517792,3.34124832695454,11.100036138592891,12.952320269924488,12.943273920399974,14.062609139059518,12.428206090945967,13.248521991846143,23.133150787113614,35.52113279926706,46.094023319849875,59.364033830111055,70.64600423917088,72.0319014893658,69.21794305721724,66.46572284094061,58.13389459086105,47.373953063190925,42.490426549660654,39.783588697798834,35.755506962913536,34.29971231908794,30.08466351123416,16.42735919618389,2.5882831238584543,-3.8832626450219383,-8.162480723021352,-10.944051750197167,-10.958796123380125,-16.0220779113936,-26.887034551205296,-32.92277358471059,-33.46782395366513,-34.77636063036432,-34.228721484961326,-32.46368565391907,-37.43863240868211,-45.700674515404856,-49.32011850017257,-52.291567830774085,-56.738181460495326,-57.04944258946033,-56.419458447994124,-60.571395088472315,-62.84054030153689,-58.93214241406682,-55.287006727496895,-52.48842325802282,-48.054889353101686,-48.53306666126474,-54.23833271151102,-53.964528560946604,-46.95715839255306,-41.43927126610153,-36.40054245562052,-31.238577554114386,-32.55778278773788,-36.977285330114356,-36.59727971826324,-36.05596906424806,-38.22010323743471,-36.31267133115891,-32.323453816171856,-32.911758100277886,-32.89338578696887,-28.506868329200522,-25.930033713067473,-24.567514779109136,-20.097654301173122,-18.117434008349207,-19.89428610917217,-16.65582174780207,-10.067832622278637,-7.787566530115337,-5.106729070990381,1.7476541983590026,6.517533110814096,9.190988468572728,12.326954983514007,9.29267639346543,0.342542541177151,-3.359044934380668,-1.114944613798825,0.0466584659700609,1.127613082584181,3.0432762215809124,2.59162770061116,3.5177102912383096,8.949527701305339,11.881150867735542,11.163629499791998,15.276563909983455,23.185695418239064,27.363978910426212,28.481205655984066,27.305600666626844,22.493540396905438,21.75498640234519,29.09469393935256,33.02837860457645,27.787185283092207,21.93586815612636,19.33497987230181,18.38193290356235,21.99286710506626,27.114774894864276,24.62663596897643,18.317858087946085,17.719338849423735,20.06887727710229,21.65012034824481,26.41557600306215,31.68795401326651,30.197112616641192,25.589270311854627,23.1156163141833,19.924510958668055,18.379165444761572,23.033658054370953,27.0109236219224,25.837444903079646,25.825255782653947,27.240164036405965,25.505647560884274,24.45396696105638,25.809628933673174,24.47431086297347,24.01208580577373,29.354129669339024,32.18007798685792,28.288614863072084,25.524225835632233,23.86040844883605,18.588709296463264,15.569383977394601,17.597761027319304,17.62063932826784,16.55481125073314,19.88844867552278,21.61488833295744,17.091740202199812,13.72006656739902,13.720065145501987,13.25009631763146,16.211633511051986,22.612352602158023,22.705788785987544,17.004712495565453,14.7647792078629,15.290684381711152,15.450537009677362,17.942273081982464,18.56904170400396,11.93837598640877,6.590170271844302,8.711941677035615,10.51514040264523,9.772129441158093,11.445055794494689,11.607260931984413,8.002753314156159,7.644730517696462,8.9510398330239,5.6494942066500276,3.028127296509683,4.102414011513313,1.8024672019108976,-2.969725961368647,-3.741474818090819,-4.0953472487525024,-7.19112172941918,-8.39325250382002,-9.547144176864798,-14.920452592653085,-17.84899391681257,-14.467567213596823,-11.76486654369862,-10.266645846109958,-5.315190335817386,-1.7413817557032725,-3.059143778909856,-4.114459928164433,-5.637552573579205,-11.102576641324553,-14.324494919437713,-11.67994399788262,-9.594598388840566,-9.157959113538865,-6.4174089266923255,-5.12001166198702,-7.167122449371633,-6.476502596002173,-4.030695327461004,-5.455442597997483,-7.51290888273677,-8.013667221229309,-11.749339249078988,-16.255826168806983,-15.486585580414095,-13.79881527408926,-14.827924316602294,-13.484019729532308,-10.787330405801978,-12.301853929675984,-14.048023055354927,-13.174863391382534,-15.768289764991753,-20.78905256175196,-22.371007706802732,-24.56818804468108,-29.067618677882127,-27.917047640355477,-22.17686730852111,-20.21854877339276,-20.334763960032344,-19.802465775972145,-21.777532353933644,-21.472089076249322,-13.518123429818058,-7.17410822033942,-9.297742831885065,-12.822469063682096,-15.667646574966941,-22.070221915803334,-27.92603533665116,-31.456198576832584,-38.098762838346126,-42.628559083758844,-36.68573154942307,-27.74234429191015,-24.16475731319368,-22.320767704553045,-21.909607860753937,-25.2926781520023,-24.385648970606486,-16.0927427198312,-10.607395782143856,-9.092760044788278,-4.74575238571569,-0.8640914258723336,0.0462417223172093,3.53735007390364,7.238222217852125,4.621479549402978,0.9795239669817977,1.6313883238252405,0.9027498921445379,-2.002884117345702,-1.7439200195733386,-1.977725058492245,-5.852203072223252,-7.15063319040238,-6.257865654880321,-8.402935918126628,-8.704253385166531,-4.17036246060549,-0.6453841599772786,3.063628613588763,10.270652560165402,13.881983849656093,11.516225403442867,11.094680190381316,13.181652776405311,13.773242620001994,16.117048762293642,19.29143795088836,15.954570195595913,9.337780663215346,6.511330452345253,2.9402477061302825,-3.574589798758889,-5.28828369620739,-2.421599748375374,-0.927867571417597,2.2917339476684857,7.41274436481859,6.3921345336801965,1.7153440775064532,2.2322639908111843,5.459602818906093,8.280723810643948,14.52525049792985,19.471050998365776,15.325351639858019,8.36157108536455,5.8137329523902785,4.214748797365344,3.472289176911726,6.335538671263696,6.652030711720037,1.8033220623076365,-0.30356130344618865,1.2136708771299274,0.8428031089476814,1.925676049981656,6.86372931246455,8.8769060995958,7.36395894268748,7.313902823377553,6.921247854231046,6.946843029828841,14.136454482226231,24.849956551979076,28.82850755392677,26.2149565754447,20.874500095360844,12.37872377405114,5.809279345722797,6.431487883951115,7.038233032161638,3.1828951751952435,2.3444875257573616,5.032945972637284,5.963841146211015,9.546858915888162,16.725311449573383,18.678268094410974,16.515379854308495,17.009206595262192,16.088562762295513,11.844508822655708,11.425095407324063,12.778376648206738,8.443753979277972,3.2039641924258317,1.7470501189775598,-1.1518494141038678,-3.576546707277592,1.2747019023301718,7.739062396281017,9.752716605394905,11.623281497901688,11.760811507717872,5.224415356784022,-0.17271025524659045,1.6231240237093931,3.5834692083764628,3.561141388575741,5.267674416966963,4.305544226703439,-0.46978074395248814,-0.2501971563705444,4.297518459253324,4.49217109804541,2.2240081027808554,0.7232714790883293,-3.9824342421137504,-8.314459128693949,-5.978391580488198,-3.163268237838596,-4.497418224827725,-3.863283423315908,-1.2414631442428252,-1.8386030017962385,-1.4675878259998125,3.337335441168541,7.108284800314776,10.189300255140793,17.78687057047772,26.036573680656158,31.96318713507462,41.374578417563704,52.50922546312654,57.45002354084233,59.97531793246401,65.76885063430822,70.28883443938369,73.36508006551587,79.90322874488868,85.50392296462046,86.68830031288248,88.72550072699356,88.742688509862,78.34060458912597,62.787755690445465,49.97891662021165,36.48715569232223,22.53840390142737,13.255748416422232,4.336487299138099,-6.783062633790503,-13.293785111567725,-17.020526794278698,-25.127233581918865,-31.92568629690311,-32.08856949952459,-33.461779466905675,-39.907004141874246,-47.237255491612956,-56.74374057748731,-67.51603469460856,-70.7083026766427,-68.36815455894967,-71.11513357131942,-76.465382610921,-78.48976478589607,-82.2498441520285,-88.8547629811822,-92.98840534826044,-97.39747695058762,-102.74740149357835,-100.28408970885889,-92.6008004085383,-91.88058448595999,-96.54987979213347,-99.92082306283035,-103.77709395184888,-104.7711091821412,-97.2208826464583,-89.02859021287634,-86.46033128853975,-82.51542790989284,-76.94501912130315,-77.3349290362389,-80.39620238950233,-80.59117182384685,-80.1942918177686,-75.83213182540297,-63.20280066643663,-52.38170765602377,-51.06480344927605,-51.41556181943769,-48.830495061378656,-45.79456980202132,-39.32335629672645,-30.45760841888204,-28.14006746666464,-29.718735036847814,-24.843592242025338,-16.423812371539512,-10.819293918015388,-5.006894887121328,-0.518509202926801,-2.5568343788562204,-4.29198389189393,0.37610809536479595,4.59245046747599,6.786632688295349,13.055541720639471,19.47937097599344,21.006225789490383,23.10983370854846,25.963237895091034,23.995440344503997,23.03416578225782,28.026958472354387,30.17082008480926,27.954254154504586,30.663410077198403,36.651137149379366,41.04200853925401,47.809182064115916,52.57671003331023,46.70118909653125,38.920901909099015,39.22382182661233,42.17519942200498,45.20215166597863,51.23387228910188,53.78731724555354,48.93772750921584,45.28470635972786,45.0896142607127,42.732836601047204,42.03907509902612,46.65504191140501,49.74025241996916,51.20743785804904,56.96688446416485,61.03033943963177,57.74740248256661,54.426883869462756,52.92953127440101,47.64529068048324,43.16958085424603,43.63421812652868,42.33199250010442,39.9093919151844,42.22903960174598,43.105451565415784,38.16435047954587,35.69440555482815,37.934380445637714,39.19166368163481,41.2285374568519,44.61496233369586,41.797525758175055,34.66630535206382,32.61300844675235,33.53530798352973,33.15678617319623,36.07005037308767,40.495667819109165,38.74933690722767,34.349985696176674,32.743676569374884,29.31605669965245,23.835117711807406,22.89612098996878,24.310920085549316,23.802650360334916,26.08274880339664,30.64739275232647,29.594434015254272,25.79617201818019,25.775526735308745,25.444269792451216,23.318911360908963,23.401696323597772,21.562497915220852,15.362397004857025,13.02127900014508,15.838222253438289,16.319148239385985,15.570328667620663,17.076912188838236,16.19562284537073,12.906563589259834,12.286794041524548,10.699972671743435,5.466550962188734,3.688935992510439,5.426891729560677,3.146223020527603,-0.14041659092105963,1.7252041036387338,5.277718841856937,9.321092993526884,15.81143751979933,16.68161366754744,7.218019907991294,-1.2596945105205035,-2.366343857297115,-2.256473042756676,-1.8749341763669043,-1.2486716714965116,-7.9533161955039455,-19.83823720629157,-25.31875196668877,-25.223590421815913,-25.61998283955718,-22.402809835354567,-14.930583968087705,-9.892968784109808,-6.004599295557405,-2.4893863062189534,-7.913187160035034,-19.958697344883735,-24.39833936370251,-18.89084691358146,-9.189044197221254,3.641513867275253,13.172514492743682,12.075421916165244,8.962358936582255,12.996994308570022,17.3380528947639,17.205297543614304,16.697964349930913,13.375646827111737,6.322207197254502,5.001762908097576,8.931695659267241,7.588451254837535,2.899069299372343,0.3194578988895314,-5.494835976241436,-14.934156619631633,-21.19536048373009,-26.737417775139846,-33.88383103474665,-34.55627793207512,-29.317282439554603,-29.81466827437485,-36.52242213248532,-42.320656703013455,-47.778514143467085,-51.70666059867396,-49.38558408891333,-47.022043295497284,-50.72832983289789,-52.41508374603571,-48.37745644414512,-46.10073775608632,-46.149083047449864,-45.905278234809806,-48.80833632726068,-51.7587167054094,-47.53640860892307,-41.36796978422649,-40.71092387057581,-41.75376394257534,-42.43896231167731,-45.776686309105614,-46.96863800037168,-42.57632137552919,-39.90858975030752,-40.09625910075282,-36.744661928748485,-33.05684463815394,-33.44340137371224,-32.0489383583316,-27.886565485928994,-26.914246468016316,-26.088878207275123,-21.78874713716616,-20.232957836935483,-20.83842483352808,-14.72007855567116,-5.250287115583781,-1.7939496717707895,-2.6464466203932835,-5.973469456790323,-13.99146893037562,-18.82765776849488,-13.958317433694484,-9.125571338970438,-10.09342464960718,-9.55185907425246,-7.104780917575461,-6.993619623386871,-4.914013292204531,-1.4957967138192538,-4.425077423633808,-8.479298303278036,-5.159828014828779,-0.7137047952850255,0.6891279984046459,4.108482802241581,6.7164429476026255,4.09813179718015,2.39996258702245,3.5231551157985197,1.8363255581117843,0.394250609204582,3.2437724469551297,3.707785467232562,0.6152572057123253,1.1306344496845786,2.868233471731025,1.1124192996046032,0.9556506592703613,3.60014875279751,4.184824386820547,5.919351352660841,11.360517593848108,12.476919214294986,7.978104603823464,6.593574489216515,7.31664637176996,4.3174797694503,2.523143796297754,4.867989182425382,5.953914833608807,8.329052196273206,14.854749073740383,15.290423785207388,7.236171211861813,2.758289765466857,4.018803800673031,5.250220873566854,9.347779597417077,15.756289131573386,16.38860254032016,14.659754697037377,17.905878258459897,20.741107209876468,20.284970497528846,22.3776073387559,24.706704868383806,22.365828434001767,20.31563121794502,20.308861757931567,17.218326234196937,13.192619633970919,11.34774668039582,6.929759364949461,1.950991563275215,5.173512053204675,13.276886463382072,17.919906396501336,19.87635993843602,18.120007941310195,9.880970212320848,4.564115384058001,9.367696336767235,15.330344052744273,16.716998311638804,17.451620386265716,15.973836913855653,11.588473116385234,11.528293040196246,14.953792306686122,14.376079650147009,13.037081197360754,15.479143022522626,15.05465507213075,9.435890313605835,6.115550084783246,6.2368859991275025,7.532901696530622,13.231709613819348,18.572545913031597,13.516125741870955,4.281318323453778,2.532400357566946,5.9641859931099255,10.754710447765216,17.71287142844004,21.105106143388564,18.719707009261818,19.997518193667453,26.041747543824666,27.983598205618918,26.3933729490648,24.5642632329606,18.62606443928759,11.58118366555195,11.852317469528066,15.733484886276788,16.769669035889656,19.29868769002204,23.18484185606644,22.16718159584869,22.726494217195775,32.042208798680655,41.83291577956317,47.402757305936476,53.58295288349217,57.61360257972589,57.13807363074317,61.09457459842865,70.72373503516134,75.79507840600013,75.3153738911713,73.50509692316142,67.01789152677546,56.625355964574226,49.37464377836194,42.66334529415419,30.457776311260666,17.92753728118373,9.923877787264775,3.0326109106604573,-1.8094179497935066,-3.399955604848853,-10.676631846741191,-25.893066957696103,-38.0973804173664,-44.434971503658005,-49.50488962249932,-50.48288895549773,-48.61514746369037,-52.94504997300008,-60.99817254718858,-64.77612027127677,-67.50557847474857,-70.8645921320759,-69.33823872399081,-66.86234427644271,-70.53083405658256,-74.97669778212034,-76.52537935610945,-80.92410206093686,-86.80859700780195,-88.84199980110054,-89.83753562145101,-89.67770997562728,-83.56917675666963,-77.31149633558631,-78.69447212121496,-82.23671081474333,-82.66012155252875,-82.80129538205932,-79.96488326605203,-71.27703462992787,-64.85103276785043,-63.744377691578165,-61.42925186513388,-59.72886333467672,-62.18506850823723,-61.31152455989945,-55.47160168372476,-53.125769460490474,-53.3517979018608,-51.47458124503976,-52.38501918956608,-55.52779125145433,-51.502276866716635,-41.916257357174715,-34.22652747174014,-26.74271638130518,-20.663909002137473,-22.37597171105398,-26.043978039752048,-22.160903255782415,-14.736438039538697,-8.67424525528457,-1.8744398734152679,1.5881940780436596,-1.9487455595624574,-3.330511341616267,2.076222944237464,6.481856334791011,9.01555204125427,13.115758359784143,12.21435767493103,5.973447966428635,6.889201227441766,16.36518884730625,26.05234382064303,35.769445849955645,42.423014806559394,36.917826874790975,25.570986290686115,22.569672650156498,26.898228441364466,32.797577792235614,41.020573501645565,46.78261110286755,44.31015550904636,39.912574584684606,38.22032545779117,34.592263273504706,31.764655753742776,36.222458513468275,42.41131600884184,44.260266454174555,44.1833468402608,41.54681471340729,36.66710063655807,38.62724762084725,48.18298146249902,53.47470762225896,51.78118692313094,49.20905950441616,45.96136556254011,44.181168920469446,49.58837423955927,56.001110914284446,54.50342271762319,50.81890123817514,51.019387266743074,50.23372472466219,47.88897069244047,47.671867234312245,44.743861834054094,38.082573029955235,37.02528693065979,41.23603895508755,42.378745654264634,42.29681816358586,43.62937442619208,41.288725729640575,36.38177331521024,34.17022370123035,31.93601630666283,29.28747722597806,32.56035417070846,38.34117473646202,37.81736828448107,34.14289735018735,32.49155231525141,30.267398478971508,29.093629067221944,31.766688681006833,31.932368150082162,28.339189041451185,29.261309389809814,33.082649119943774,31.442417124645857,26.429061310109162,21.874717306693547,15.913559965168982,12.511801537734728,15.83689298567958,18.374806339302214,15.581476468218774,13.890788843444367,14.29661911757322,13.2489602680442,14.817952798728047,18.916012616508183,17.038669091366593,11.006787666495633,8.576440537151186,7.224679084729553,5.593154121641941,8.581963469991067,11.118166953290348,5.443159228014301,-1.910387267654414,-4.8058161559045764,-7.091485483909491,-6.957262969148749,-1.6412062017902616,0.7538864343068653,-2.042373019852833,-1.7102993883175803,1.1968776937359826,0.9803988984138623,0.3982846146232085,0.2010473496648324,-3.745748093622958,-6.5769420505751,-2.5008189191236463,1.2879636288673892,-0.6475934080814265,-3.098146107943555,-5.91993566980111,-12.053889868061903,-14.547065896868974,-10.290364019399572,-7.7994098882905245,-8.279384242431753,-7.0758612936771605,-10.04117956897465,-20.598504794152312,-29.259759491679166,-31.414630398944265,-29.49238367883719,-21.507925989510827,-11.204982536463504,-10.204696723027197,-17.40281897217364,-21.5822756461206,-20.885454827658457,-16.84337596586166,-8.582438697089733,-3.850567609763498,-8.226992733459909,-11.111183378030596,-5.663273145980432,0.9281762364455515,6.174929596715197,11.673224323247847,11.191654519936822,3.4553391207409665,-2.2875596792734187,-4.526120253738066,-8.958715676205264,-12.595970300665174,-12.604736663193766,-16.107239130032994,-24.652050995930875,-31.628221998371405,-36.46061044396813,-39.56940018220387,-36.85510615355108,-31.353233367890965,-29.570240648647246,-28.287340685028116,-24.587747671000066,-23.239620483368526,-23.34918068358064,-21.607016185803573,-23.48310395642141,-29.108696124436214,-29.972222140264073,-28.27043145661474,-30.439214501717267,-31.728491995325047,-30.55750780957206,-33.689524544995265,-37.75974858605392,-35.12267877875235,-31.5113960342943,-32.385957243094005,-32.74603951132229,-33.69534052761797,-39.422509851524865,-42.08188432158874,-37.16655807712628,-33.684629922453425,-33.88753958210575,-31.83882668053544,-30.27641743570003,-30.80823125583841,-25.992189932270342,-18.2103129858026,-16.948664437091985,-18.281629200484044,-16.239367272502648,-15.867449469211426,-17.001099449567384,-14.35153305163568,-13.649695155078382,-18.663036754436938,-21.029043259807356,-19.7168106927857,-20.55758730172176,-19.504733503270117,-13.966699289615466,-10.992986482962236,-11.082973575191017,-9.642281316298885,-9.683086948493932,-11.517512387995795,-8.139192023547889,-1.64043888148532,0.34110317785505323,0.5453503658799658,2.0734787910974752,0.37563067565225594,-2.460192231028888,-0.2489149996341511,2.492075950480314,1.2729433973130093,0.7131643127594974,-0.05662408646018385,-4.868071356628745,-6.352403924724118,-0.36197191596027833,4.074585841986869,4.262964644379638,5.645616993748039,6.189235350220529,5.593020818452969,11.21622264208972,19.808989818576404,21.92897406549418,20.535504203973815,19.03168237508666,12.494368952027681,4.4040440953395805,3.0290115507988613,4.146798741684643,2.843619582182206,3.557126667297031,4.540357684957652,0.5330853532433222,-2.0650871957118873,1.3490988923624807,3.9039418868108338,4.917612098459694,9.759778608878468,14.314151240496095,14.994682553138537,17.235556814257606,19.42478114093603,14.734930061921757,8.185292709663978,5.82688936634104,3.7019521042728343,2.677282683723523,7.165872827428982,10.776769312959264,8.440049312938706,5.737611573360793,3.6519073208127457,-0.8416805803503429,-1.3491173709289914,6.164975679946469,12.822343293752844,14.160678620174782,13.470785112508919,8.37929539795541,1.0734673043773857,2.9147280206118955,13.016335781872648,19.68748671472586,20.342949060561775,16.396013431713676,6.298873282061574,-2.892758446843084,-2.184053023600324,1.4217563356376302,-1.6066135053706956,-7.621094172595427,-13.34763210581251,-18.57319522963227,-15.979010652268515,-5.002667249300156,1.5353851905849933,-0.3337619939100509,-3.6296080569041127,-7.383799166322044,-10.13287403644085,-5.246724779536559,3.0981557315428443,5.164421255951299,3.9546003967150045,4.009546406877792,0.8777821752728077,-3.2416128822938974,-1.3868235693141007,1.9600932722079931,3.301166216411076,9.159483116940882,16.82653129330858,16.7833613081766,12.971226323833308,11.576557543637428,9.218566629224124,8.30371183491412,13.846650092863088,17.78211797842934,14.335731524991061,11.715749752780926,13.317787079762475,14.79232907867819,18.108017239907113,23.196355975998095,22.52542968787011,18.32192376109996,20.12244941494646,25.881101770820813,30.877183883874707,39.7623085158316,51.48031059205843,59.22047153678959,67.57689509958234,80.49122910390882,89.6798723078692,93.79009282812405,98.81904100188048,100.34112572340482,95.20347226031573,91.61439414373929,90.27985599489448,83.88092742564747,74.62656789162753,65.6824737084454,51.87969619287892,35.639837730579266,25.594775303763342,18.47522640120829,9.568035322788353,4.158809765390054,1.114655604649934,-6.212517158904355,-12.92564969828237,-14.645612718667943,-18.33814563962326,-24.83174021341637,-28.99229850088684,-35.109901466852065,-44.781921936518955,-48.4226038337347,-45.07518677582866,-43.666482125400464,-45.12544334557718,-48.62010498122153,-58.19553346731441,-67.8909042128567,-67.70529934953561,-62.92268865838759,-61.86449097203898,-62.19485991568219,-63.367527462402734,-67.5636532628672,-68.80095519535806,-64.10090271385428,-61.25842793611439,-61.35085567910444,-58.10274281047364,-55.00292257128415,-57.105177797488565,-59.45690734022474,-59.655469437633755,-59.29127934497543,-53.27424662779542,-41.333579676804334,-34.56567079503894,-35.75889843446996,-37.38327169267306,-38.44239346150585,-39.67028125518946,-36.97659399379279,-33.885725477927835,-37.182023461056595,-40.67469732445993,-37.29785918324241,-32.19746784472017,-27.57254579019063,-20.022129022130734,-15.29940053625161,-17.884372595160116,-19.045934850648745,-14.884395843424823,-10.585907495822687,-3.7222851039019322,7.031456390880173,11.743246378585042,8.822569815409214,7.2567397809678065,6.564659086334431,3.9147859063344477,5.264126561547108,9.942473839244924,10.591198228998605,9.363016716933151,9.25713706402461,6.0707117598017,2.8053848348886974,6.5472327165801545,11.527829799865376,10.239804255141927,7.728352421633069,8.436077023915141,11.185349098934568,19.07703962407663,30.645930217742624,34.09253555080857,27.83621729110753,23.47382944284364,23.58192803419157,24.242956666682026,28.226720763159957,33.43907751478868,32.23893295363159,28.66435178102501,29.007533846864064,27.58622941343701,22.496427211856215,20.652671130549795,20.75356090222301,18.462987204123237,18.600112971309123,21.268044208373595,19.167988649550786,16.201398775191038,19.303171627380884,22.34312836303508,21.47695101466654,21.35239173172901,20.351714389716648,17.740726408094456,21.031931287333936,28.145140604062668,29.18899556591755,26.268992376149892,25.105788161450047,23.11949140964564,21.170644438572428,23.445760772903444,24.83211602337572,20.60894206691605,16.476324493650694,13.87726123969643,7.89065927847863,2.590487273674906,2.256818498265315,0.6401810040746453,-2.392034515198311,0.35389671154584,5.43885777266246,7.317943135724659,10.106822516329911,12.760606929975904,9.441109406017283,6.4452895588194465,9.477827002682355,10.998229052766739,9.953382890660617,12.755922158592275,14.081834857654806,9.363260717467448,6.895078958068346,8.634134352940524,8.650814603794451,9.48522475189496,12.579217719138384,9.887938150529655,2.3722177959667854,0.4010418813097204,2.49928755921722,1.6435832571716888,1.0171729141872925,2.0157384042310618,-0.2803250042764942,-2.2698036982408976,0.6289556910061138,1.5807581757310372,-1.6540249130929414,-1.6484363793879047,0.2442380444850123,-1.8714821951979852,-4.145765573823277,-4.381805095391007,-6.603548584682991,-7.5706365186706694,-3.932782091727562,-2.8139785677746536,-6.614500995655003,-9.180085626137037,-11.152980742645738,-14.797838383018924,-14.388743668382702,-9.50300213282909,-8.814575575784188,-13.731987773550237,-18.78556122407094,-22.14826192512925,-18.861546975137724,-3.1455490092121643,15.286452572112374,22.739966476041293,21.530966856823095,18.600024434265315,15.254388332859314,15.701759359749744,20.781823856296327,21.65845257695686,17.934710035975794,18.598655487083388,21.509251042010455,20.079252321744136,17.439108533573535,13.919342531324066,4.66209321360886,-5.451583984639228,-10.720715846524056,-16.54930143994499,-23.979183335564407,-26.57276974187537,-27.290014158310886,-31.206654541038752,-32.3875053249632,-28.67708851772216,-26.709018385943573,-25.509215812043237,-21.607405016427865,-20.79217940161309,-24.373111753289017,-25.41271890754055,-24.83732001600194,-25.636090039581983,-22.21463172980171,-15.438074772725816,-14.279680094401442,-17.14975743506901,-17.678713270358585,-18.131435598175553,-18.666037417749614,-15.282321397021008,-13.267915121356129,-17.42294260866059,-20.359223668610994,-19.45234805683319,-21.057455665620655,-23.106937587486946,-21.086851642488043,-19.984264683989675,-20.58670131413909,-16.971985531350796,-12.520401926088002,-12.26035612805246,-10.490761778489334,-6.700420677762451,-9.050385549995653,-13.926198404947534,-12.720083570970342,-9.235718963140664,-6.21729818820786,0.4071617380207946,5.9645424453779805,4.641455945991995,2.9048026822816593,4.10252480559696,2.023481730572133,-2.059807690685892,-2.7974659901071304,-4.555023651892123,-9.018736933817177,-9.012449534244777,-5.212538352311685,-2.0360015163879166,5.07100802128468,14.396885771607554,15.034872465954532,8.730568367404453,4.208478750649426,0.49511818838821353,-1.241166890023999,4.637046228413068,11.531847706632663,10.903179022185643,8.580578823372191,8.98034843234756,7.549910522697058,6.707571812326817,10.257473134379001,10.904875814274394,6.342679488182898,4.487888542903436,4.6343734792974125,2.9014799355277576,5.127638268033332,10.857830000472648,11.100693405332878,8.846741734107987,11.217991530398198,13.144296409332377,11.47880244515717,10.887933734169318,9.00128545948439,3.485226815862588,3.1025046784234576,9.208284460117126,10.548042497181758,6.0396107333822915,2.916570933304472,0.001792413655852254,-2.626538453685975,0.6231935313556098,5.04375539980644,3.51442327695103,2.401554373483237,5.745785483915465,7.803828132867443,10.560783318727532,17.81591541392587,21.622777867382347,18.023094828832118,13.426888292931345,8.66719674422244,3.1044051408132427,3.885094112101954,10.341000110139698,12.110050207705754,9.131284621612167,6.742114443007422,1.5842791770479345,-6.361978185172891,-10.120435685751067,-11.047903425887561,-11.527166758974621,-5.018651301281148,6.376829586528044,11.42907295353222,10.593403577880878,9.354098992389286,5.705243123226333,2.546062206551483,6.498124866972264,11.417703381619367,9.679728553448744,6.747324499294116,5.72094201615998,1.835421444245119,-1.858832524876021,-1.1208134083556776,-2.5944434120475015,-7.603954932259698,-7.689359730789041,-3.2844342092280945,0.8875803494334038,8.208262623169325,17.227540910876993,20.55288612894157,22.63018574000751,30.281399024746353,38.1443562778931,44.6452621833405,55.439465013440056,66.71939350031776,73.3391155364173,79.58156744679363,83.87147763887059,78.33185124794088,67.4805530594187,59.44199668355572,50.305250384072515,38.63622013733857,30.605562585099452,23.763358096864675,13.949939151253679,7.039551446618596,3.191116969964187,-6.1600113305987385,-19.04881184912878,-27.90582525145981,-34.77829824336941,-40.01824797916162,-38.34063868121079,-35.94597340040843,-42.253030927036676,-52.05310388541285,-59.645431656647396,-67.38496894132929,-71.60789608998262,-69.17736185441592,-68.91837655551193,-73.7138329446881,-74.5498007819598,-71.12260928280014,-69.66062407756462,-67.21722902003332,-62.33826362186916,-60.77646063914045,-59.64880402111759,-54.16490237340353,-52.17414595801327,-57.32925870724913,-60.90546055243668,-60.78698882637632,-60.5224515333011,-56.758525737781724,-50.275973980564196,-48.88356108699867,-50.655719645068395,-49.328269867108176,-48.25103437129583,-48.876190167947904,-45.73343645174364,-41.176451968988616,-40.22698444692007,-37.56155650004639,-30.905340510205303,-27.270977935567743,-25.836293494356656,-21.25352230846284,-18.205357240268548,-18.664382845654618,-15.733418925744786,-11.539948163530362,-12.036343075921216,-11.180611533850248,-5.677448556603009,-2.855953134922471,-2.463472426451733,0.7546309041793864,2.387226192246483,0.5229123930084045,2.0390059388889163,5.660648137335805,6.1361854951407695,8.600284729702839,15.075459854838423,18.20370220092849,18.1659736575756,19.584429837902714,18.621354295433328,14.289968920155289,14.384982554880787,19.200133072023423,22.400146814744737,25.493599941101113,29.059700765381002,26.864450473691743,22.024467344400797,23.077792852281235,26.66054457196462,27.301695134453137,27.13653564671167,24.91871170260143,19.550921478854033,19.869939632393567,29.279729116352144,38.31456932492594,42.28757905092879,42.8730816940202,38.25249590271246,31.60073626383131,31.544992341770218,35.51054044109398,35.23614813078315,33.07059041609656,32.2668669125731,29.456064821597657,27.274210043408704,30.146223073594804,31.462986898369422,26.926548828964584,24.189439362883718,26.02612717209969,28.09871691917875,32.1665759450772,36.9660337068159,34.24383405968213,27.921526717060143,28.737848278895154,33.410077383029915,35.036703740135145,35.33727819576696,32.95218078491109,25.504159230164696,20.332808365342544,20.384767886171606,18.160927341201543,14.35000458229375,15.661758941178705,18.50026499926228,18.419624910158348,20.10387196032175,24.523104382710684,27.56903671384322,31.044107432912874,33.955053174403325,28.444608837666998,17.52300195858796,12.751401270346646,14.794521329048681,18.40185444992011,23.018251555751974,25.01135110732658,20.33113965401432,14.851150350107773,12.494199263691584,8.761428525249189,6.192301941285102,10.927166354182205,17.172377877328053,17.914738825320335,15.372347043837232,9.868103563678387,1.4450385212806558,-1.1817274402852405,4.793630998412205,9.825132327016304,11.561627501606344,15.206313773251221,17.000867590430627,12.892579908889212,8.625493945842699,5.328344196856017,-0.8632833963141389,-4.997593540850309,-4.091517867925445,-5.182621525204951,-8.188546200933708,-7.484578848889722,-7.764582515248555,-12.207554126206466,-13.92379861769301,-13.030948325933547,-14.948180064582088,-15.622172320247188,-12.36320303945363,-11.461004119445601,-12.409517817154924,-9.135958647551556,-5.843622538778762,-6.533164838925183,-4.271450448303623,1.2076406488411038,2.2955994257515853,1.2562452272646283,1.2729859934284884,-2.633295283712597,-7.820866315034006,-6.597358202965692,-2.9275972557980503,-1.9264080887750163,0.2578242499824397,2.0482077703196735,-2.206763919196044,-7.436151246894468,-8.94399378974428,-11.417346787293571,-13.693097952481585,-11.53611873605957,-12.047131746416895,-19.878302574969613,-27.27900690648601,-30.768834499233,-32.78534079931889,-30.47530989200002,-25.52821525613254,-27.35617430433507,-34.30574813130037,-37.115100926231094,-37.287477475579344,-38.37291010112878,-36.72701596569506,-33.6224899226493,-33.152716229172285,-30.415399636367,-22.967590905031393,-18.330054676402845,-17.556459098160644,-15.623172903473296,-15.844796346330224,-19.560635638049508,-19.31171859933898,-15.93777799985259,-16.89081234760647,-20.103519417078267,-22.203663795978507,-26.391445037661377,-29.346455804646503,-24.34741073296332,-17.374666870001573,-15.393297864978084,-13.232988997489844,-9.668678606848234,-9.869735013280216,-9.594500515964773,-5.085226252540009,-2.8657106966259565,-3.3446521095643216,-1.3849433248348764,-1.4094104700210488,-6.201086095025223,-8.242832119810757,-7.04298245592107,-8.572348947771058,-9.638038849864804,-7.544117735231121,-6.955658389122042,-5.664697670124203,0.644784973472329,4.479201942191548,0.4037291919138777,-3.9683689308466708,-3.735014754007956,-0.47839441390230175,7.891745554488456,18.262070843659483,19.30314949098485,10.939629185145952,3.5757991048070523,-0.5691386156079764,-3.111597107213823,-1.0035639348663536,2.6773956944111363,0.7306635918243092,-3.376606512905322,-4.608741816690994,-6.728719901130418,-8.289197193711123,-2.829151267991235,4.771633804413684,8.1157083385672,11.538628583811525,15.109701543195266,13.421764156854975,11.192901346358207,12.609475656455846,10.95119397131794,6.255327783140676,5.582237919081592,5.793795142402128,3.141294902816397,3.334824058005985,6.6419454659212915,7.620645377644756,9.345698396508192,13.845441074207294,13.408500749076602,7.661294549932656,4.68846906210161,4.38695922934526,5.205202437801349,10.410343501701064,14.379488330183547,9.514234721232395,3.0274529303682893,2.5080919420453105,3.624650504363739,4.9239319192758675,7.971562189201422,6.26674068142548,-0.3666827248766533,-0.23456640206263968,6.8163192877003675,10.464947753459194,11.012491595613854,10.46278083185358,2.991965649493825,-7.605783094694283,-10.380658555616545,-7.339045472966994,-2.9779655799499753,6.133856607165079,14.8007956158188,13.387648196516214,6.953870125392963,3.6386006721384714,1.4419120276744937,0.3365650219529075,2.4858823945772706,1.754846458361889,-3.5317374907797996,-4.134726097538772,1.0865583887672174,5.940696979489501,12.96016335177149,24.137941769378756,32.92164179457297,38.92328154598116,48.03184065643539,59.254684100941674,71.05899893274459,85.50607421588433,95.6529894310732,93.01508710612347,84.84321731699706,80.8031787550724,79.20406091598429,78.8078733418505,79.43670135991454,74.16002102035641,62.92204695157053,54.75797817412996,47.12588878353546,32.2003339509609,16.201649165366636,5.870826007081034,-3.2069203909168444,-11.729888227472278,-17.27958653736541,-26.76219102598815,-43.21740793985866,-56.781001056016194,-63.943820580198675,-69.84828745944175,-71.86527418132474,-68.80833636558579,-70.27094859223335,-78.0721666079736,-84.61265016948983,-90.1096049112262,-94.91968484839003,-92.56152185170284,-86.23451904133671,-84.84333432170061,-84.98835371857069,-82.87490670271576,-84.21843687013126,-87.36714779874364,-85.06398553997956,-81.0852138644263,-79.37584037024254,-74.52610784006828,-67.70425066554105,-65.17863134010368,-62.28650321998448,-55.59497232523205,-53.40417864620694,-56.41555490730904,-56.125452159896696,-54.20802554225471,-55.03760769811953,-54.372756536935015,-53.087693021995904,-55.5477454024661,-54.312538718841544,-44.059112498473255,-34.28052265578161,-30.077108830285276,-26.389413294557034,-23.859005521966203,-23.533929181191965,-18.837773514451328,-11.145926857423934,-8.789128224693581,-8.351191242702711,-4.603904798765348,-3.313606374674296,-4.8920395687620575,-3.126657203096202,-1.5026192638750757,-2.6061513071037457,0.5493903916327385,6.462780021165951,7.1794144398577,6.45557158532263,9.430450700438925,11.504394282833957,12.787582312539817,18.499613698683824,24.348834702274463,25.63096658191504,27.803480884032005,31.887599788025867,32.02623325518045,31.74327526287995,36.865350058670955,41.97524987016132,43.88609971363856,46.27552448308303,45.9638407306088,41.38396060838049,40.84438299710304,44.54709381612897,44.59748693600679,42.89898701739469,43.26567570580101,42.23792529586388,42.10404859485671,47.420852207867775,50.81763191782371,46.536614204074546,41.42324203755562,39.5719080487182,39.45767737222239,44.44368252958375,53.47606562727685,55.69183843312105,49.59745957586077,44.494544090631,41.23985290299933,37.201542090730435,37.02474158714779,39.729116064154994,38.35211442637536,36.3844488602181,38.530430724637306,38.63055168052204,36.45489001518646,39.33602242651006,43.332703931911006,42.17399563100642,40.47875660691947,39.75149167597555,36.43692071771284,35.342212716877825,39.51570552791467,40.77419390276312,37.42039157887099,36.81901625849552,37.49864613901907,35.29485080224872,34.71966544467793,35.57838470952443,32.05448456103758,28.755756255659396,30.906826048089084,32.051446212822455,30.44024615537792,31.814442273068885,32.64773168444313,27.60140148115176,21.618966928979585,16.835042310114112,9.627575750514287,4.824051271389048,7.40377002431325,10.411265848179584,10.463490517055648,12.48205600169042,13.322511276617957,8.031914090121207,2.4483268320100326,-0.0004629896566095415,-2.165441916827657,-0.5220604880618248,6.5359997597598944,9.846440385265062,6.230770785126682,2.987704492274106,1.3216677367642418,-2.065652959554781,-4.310454617218934,-4.5165776109414235,-6.453628657871922,-5.780000077869077,3.4020286379279248,14.385023158968533,21.455486001833343,28.819991535322934,35.4025396172468,36.64188117202944,36.270527071134026,35.58009603467607,29.651427201780905,21.888195353624813,18.18718924462919,13.961828498432453,6.431957581771945,0.41170658910252367,-5.647007582705546,-15.170777348021524,-22.52815749746449,-26.130011826097054,-31.906880843010995,-37.48631786345888,-38.47708484261259,-39.70204365075183,-41.403577879313424,-37.65348244786803,-32.97818707203315,-34.830005183956764,-39.527218363666556,-44.39229081611142,-52.533277299672974,-59.01010675221292,-58.27207502636558,-56.919511115295094,-58.20056278348772,-56.156016485373556,-52.70929504522945,-52.841602310025635,-51.39346300465486,-46.55664876070215,-45.262371225597114,-46.40771220063363,-44.78512135340381,-44.32569868132894,-45.32913007248064,-40.626447253160016,-33.77715039236615,-32.31315037566194,-32.075298910150806,-30.816412517621476,-33.481162831980576,-37.13204478461219,-37.01743005389952,-37.45156824830419,-38.3020618295857,-33.315171372316776,-26.79814177302437,-25.75716481527594,-25.873483573400932,-23.770377830723675,-21.748241654282896,-16.833115852300047,-8.238345984629015,-4.785319426766797,-8.99750464920277,-13.23695256120175,-15.551235223600088,-17.687729019973425,-15.711913570907829,-10.776966920323883,-10.505309356152855,-12.373388077833326,-10.128493209386882,-7.992572732468857,-8.021566071854922,-5.505581726597003,-4.087621289113628,-8.354468623487927,-10.427398094632355,-6.261010275904104,-2.5856926724937654,0.9409960766942702,6.623218125453869,6.503325516895171,-0.0011590781468071576,-2.39476122630056,-0.21679095991460162,1.2466852598162474,4.279047757558107,7.382700468588292,4.121258530878322,-0.6448060907719655,0.5237960375723707,2.5757597774534045,1.5897380979388107,0.9482600594181019,-1.4641157702452352,-6.570537950834332,-6.174144548554517,0.5110929679514311,5.318165973615324,8.532187538372304,12.512397263987657,11.867148033412649,7.725989984545397,7.57372036558069,8.848181863791751,7.404132095833096,8.058474648579796,10.466118057944447,8.019464720541865,3.608435500771049,2.3541818042780305,0.5214274860069906,-1.1126024762145792,3.7396735036122486,10.573460670816608,12.217095810722597,11.779829446815068,10.902439493160376,6.875344445005059,4.4129968069747,7.678742799961252,10.644283209473857,11.111578453855241,14.11254729993349,16.695892876884493,13.463319774054412,9.085246640926723,7.055997175685002,4.62236779397913,4.505047519832047,9.063353343265142,10.610597428992907,6.513478689875523,4.636567276640406,5.565981045006503,5.044958357295511,7.129961888546473,12.315310132994792,12.948934566224183,10.645160580449186,11.273881306387512,9.75623581486076,4.303685448606049,3.167667565785995,5.863064103155004,6.627938623676764,8.895199413857565,12.802579359214464,10.407517180067453,4.018769956067605,2.100702924113355,1.9889104804280355,0.6174397928330708,2.281312669985018,4.095672976876367,1.894853016724835,2.988566381283119,9.020151900298549,10.728995783145942,8.42219566145917,7.163500513462053,3.3051341976046604,-1.3109527424062497,1.3797429484383086,6.472516783246001,5.953442335812952,5.123886062563255,7.613713588703109,10.068859860552791,18.224339097830047,37.08901189843435,56.25947474956807,69.42167750041605,82.94629563840833,96.35068678366532,104.32308798867396,109.40908965118723,110.43726722429334,101.53325692823532,88.97573034973585,81.23664710891387,73.43942162575148,61.50596230479099,48.90234856847332,34.23777759117145,16.977463451263183,5.100017898319625,-1.0539903015562517,-10.24407784577354,-22.131060528396254,-32.788812790296284,-45.49855374289345,-58.598620643958554,-64.94029910921867,-68.02185199177622,-74.6559121377793,-80.25832954850273,-81.50269792259796,-83.32269015972042,-84.55589111212647,-82.17764548028835,-81.89952011729301,-84.61366682180524,-83.27850436546643,-79.74712440377297,-79.55803826773644,-78.12794784474625,-73.404723062181,-72.10837296645632,-73.422813688616,-72.5074125480284,-73.41094212125216,-76.42642540724889,-73.85863414072452,-67.40634472533833,-63.44307706563987,-58.401161010758095,-51.032515748955845,-48.789263131298775,-50.370860995574105,-47.95812625460816,-43.570969872320866,-39.92075171985789,-33.45347424260268,-28.290184089093515,-29.62962560786733,-29.46271203787289,-23.169166651471684,-17.84722626056056,-14.128072714877163,-8.257424923129737,-4.392625339649742,-2.5288557133325043,3.8295891549297316,10.75547666532897,11.753326364378767,11.6507398432469,12.59635627127666,10.564593920936703,9.900383401277056,14.915607871995606,18.672031583468943,17.866601406518313,18.07176997425351,19.067463759435995,18.57638030889867,22.08316486204164,28.72037069964393,28.833790534046187,24.49128621268305,24.64727034728384,27.55508743771052,30.878168894166592,37.27956339457543,41.378138087855504,38.270489842130324,36.21675424028863,39.4095406675995,40.465960630458845,38.326113391485734,36.41082954953187,31.466826081906667,25.955628755187718,28.684074407860805,35.293688841237326,36.66303561426301,37.04294716051683,39.62631694519303,38.540457880841,36.147365240363776,37.848598481515396,37.62849312166934,33.758841973848654,34.690250991817194,38.83854652473754,38.94274048326013,38.8984312637253,41.2261228869429,39.87597674008076,36.36269454508699,36.19936520675246,35.260274088383916,31.739181894993557,31.590701402763035,32.013202353716125,27.064894752743037,23.072699770435797,23.993593869063847,23.46586947803626,22.429974459488548,25.465729610478864,26.440706816124322,