47.391572687097465,48.672963028355696,65.62587897635784,67.34539879637737,64.3854705238229,73.3220286968968,70.38680860657098,54.81161934310076,52.25166670825264,49.63879938983271,33.86332495945518,32.632257088229224,48.34519661454705,53.44476162373077,55.509511905894335,63.6008633008005,51.96053248648302,25.746413223225552,19.613294602332875,25.109711698358964,23.784672270366357,31.22766582891643,42.19151282571095,33.95182410147674,26.52918091011398,37.109874976086004,37.833271276471564,24.744096349327044,23.757482487721646,23.943147497990807,11.094790804670902,7.228655455434649,10.01831174434127,-4.427470716750966,-15.304715930919109,-1.2136347112001724,11.132108478068504,13.28822092439974,23.12965489461383,22.151950841441444,-2.751390420766132,-18.192721107629218,-15.11296594896054,-16.626505364259607,-14.04154173196818,-0.11386066474338907,-3.659565756930038,-23.577665805095712,-28.678657046857474,-27.417703974357433,-34.892491487686954,-31.028033483917916,-19.693981569983507,-27.238804624781515,-37.35666839758801,-31.60961620054088,-31.52994549959986,-36.55094202423284,-25.22182549576968,-16.92338411010536,-29.31608025625511,-37.653868821022385,-38.53347697877882,-51.72552068528063,-57.68732056682915,-40.48661517450216,-31.50698587103697,-38.964789971581375,-38.949072727493856,-41.0313842137063,-53.216729404665145,-46.64391078962993,-25.526538080696966,-25.197309317706804,-36.01059405337291,-36.44269423658875,-40.35502434324235,-43.47439449870313,-24.401180192799682,-4.549402508262675,-7.281489553274631,-13.299678410204445,-18.59096583845951,-38.65333401725839,-50.47366053150546,-35.51204135867255,-23.365664291245444,-23.241798466249612,-15.173077188933563,-13.231753743966205,-27.493574663575874,-27.382338367979205,-13.660929036753316,-17.81286115964862,-26.083854362869324,-17.88913696555624,-15.22653127834134,-18.698411554622684,-4.664660386409347,6.628320957217353,-5.56540477460046,-13.882101494381258,-11.475539521635092,-20.53980885402369,-24.343329325483438,-6.025241727878658,4.873312722305751,2.6332327367666206,12.989947275691868,20.42316631943926,5.747745844681839,-4.351360549261382,-4.323670286786606,-16.29992839782462,-21.697114815535038,-3.888233056305377,4.019119945538112,-9.194563457068025,-19.11567467795291,-29.892532826296428,-45.41136254859941,-38.0088655236598,-15.386144761128062,-15.81691592273767,-29.765548628797468,-32.074242270092604,-34.10143721404351,-33.89926979778467,-16.652120196563704,-10.457726218582625,-32.04019461711708,-42.398395986314064,-29.95197926972533,-24.547644020246455,-23.787477384198233,-19.681625787751166,-33.6700057028056,-54.74692386749753,-50.200512151349955,-40.01969735784586,-50.719274705486576,-60.10697993215615,-59.941392998272775,-67.68463276814161,-68.38661861203295,-51.15842279722369,-46.60822594669083,-59.62579711552608,-63.6461679734288,-68.25277373845955,-86.13396764449251,-90.94028247317709,-81.67728735300594,-84.51379543352927,-79.65914817624599,-40.451557685205245,10.88427548332366,61.374065327080736,116.07492261736779,143.70123995428747,126.52441098300322,104.14051533852302,97.31851818329126,90.97413687589668,94.41458356853076,111.79493135618262,112.4838074528524,96.13802262755857,90.18811113096041,83.22360367368707,59.94987005555677,40.54533110419858,24.050094435071017,-8.873735426619664,-36.149048221930606,-36.72398921334664,-35.19591841717724,-39.710556826529356,-33.28235931115557,-33.397913773263916,-54.77048530043558,-68.40194430407738,-69.15807210342574,-83.23548641893004,-99.50986961358866,-101.20165173174067,-108.84703192358614,-121.02948615970311,-114.43865444506278,-110.97681171890645,-132.73237908209603,-141.97033830582527,-107.28114142456764,-37.02962714560299,68.24216734483187,184.6669995185903,239.58771669863143,210.34234522336078,152.0489214530155,100.85526549192261,66.51643151316327,72.66914665303135,102.49176302923745,99.71149220096031,63.914291861452796,28.9112529162323,-15.347848315305411,-74.0281792431347,-116.57744591783243,-146.29330114713886,-180.28175425001461,-184.8593617424424,-140.03852059823947,-79.42672464388625,-9.353498011337221,83.88232031119205,159.5930151087142,180.45395026495842,168.66658820183338,139.24934113351895,98.59441648773728,91.00565629235372,125.41352193703749,143.26290862337095,126.25196773020122,107.95246535900236,88.32063037003645,59.2948327299913,38.845864810447296,15.345704804221638,-30.9320932340908,-65.78270879321622,-63.238646566403105,-52.989056277711974,-48.298384829035506,-35.97200558492831,-34.105186816426375,-54.84102642784178,-71.42865167035225,-81.80163802565073,-104.79215704258094,-120.4322170882531,-115.04447345395542,-117.27406851342631,-131.02899998520166,-136.3634934707326,-146.99219826922536,-166.59157668407332,-158.5542339279139,-114.3902677003652,-55.01264083468516,20.385207610595565,97.29663674858813,130.58487713205872,117.57767116186737,92.42881672586569,60.375166775449436,25.65335294094206,14.011084511552484,16.675414189047636,6.506742000166018,-4.530068465838875,-8.845589413435581,-30.53455684941162,-64.10988719725809,-83.57187666999597,-98.65130501246627,-118.79280308721582,-126.02897732223832,-124.25302273109676,-129.9110019113657,-129.73262054297155,-121.22857177700605,-129.81551427554757,-152.16293048419712,-167.87071748339883,-184.9162734717927,-203.80103755861927,-202.42087615926738,-184.37950004222765,-167.1261207228359,-146.76523838668533,-131.69180048612623,-144.14737178928655,-165.69789748583327,-161.38848293213755,-134.23520593444908,-94.74025273431975,-41.62647176145614,6.035167588275181,33.52380565311621,61.615669578213854,99.53624423855167,130.40474558712063,159.50649947472485,200.2155448701613,237.83504824413578,265.0246459927244,290.27236871939357,297.46715390028436,275.19044927177845,252.93016010482427,249.2463916658571,249.67123140241102,248.77279938003602,240.07493769799248,201.37614416491584,145.2039628960965,115.05426461925381,119.14893239714206,141.03081606917092,176.4226994081223,206.8832914097156,207.77745335174856,193.73745164337822,185.57065282667355,171.08058891718554,148.93234963299398,137.49350127204184,128.22588639930672,110.4035407646524,104.71282114336793,112.97118222693388,110.69652909914463,103.91054865868117,105.85641543627455,96.91431494497127,72.68472529820922,55.26080442525164,39.60444945887696,14.21439114714644,-1.0058161977039366,-3.637164435295748,-19.132336463428516,-39.32589430590859,-39.81606871324778,-30.152659180699906,-16.269190226804387,16.840115921246603,55.12794541769888,74.44843402993602,86.40525711567285,94.7548579520399,79.00793994525011,51.09959984492867,36.66802306184391,26.062198114913393,14.010159486200383,15.149912991055032,18.37964490628988,9.916056803822308,8.661068403009367,19.563264074670187,24.634078551498845,34.92015776620441,66.77293504688858,99.48587454405289,120.84667735343314,144.75420545745334,163.9587441844622,166.6039124473049,170.38088763530655,179.2325487511755,172.88109472008358,160.3643874844116,160.28828348044993,151.94343658910037,118.43753575287363,75.03813004387388,24.07855991238464,-34.02003940804445,-71.59745405096479,-86.15393211892301,-108.67372627330622,-137.00704116130913,-150.9341354787187,-163.0793564488841,-182.74868556126435,-195.21665960693576,-205.16435946937423,-221.74100553693043,-222.69620534362798,-198.80469606581318,-174.52235115501404,-156.22054957768873,-136.60412615389362,-134.22822095835977,-158.27775276521237,-185.41117743938045,-205.21673989227577,-219.98887034462837,-216.59512208007038,-198.79091149526252,-191.83397717122858,-192.80741159660425,-187.2239118309121,-187.88523047014473,-199.29414122237114,-205.17114455235082,-210.91590654748165,-227.774829608324,-241.25387505363474,-248.01866584453327,-261.45433130927233,-266.82973764382535,-247.9569884310809,-227.76826931356788,-221.91726589164625,-217.7262364942557,-218.7416591708661,-229.7072323472454,-226.43452258916471,-205.22482102862807,-192.87656399024354,-186.6234929360386,-168.34966766298436,-148.7137219538223,-131.16480211332586,-101.00954929451822,-73.37679173900182,-66.87344914901307,-57.60303496281824,-30.26300412673956,-6.553602882707134,7.334212161910666,19.392466743439364,19.40191470340213,13.071451850929005,25.615646096579415,46.30350998277859,49.154280240181606,46.13542995669638,51.626765874250765,54.845399865657875,59.69787286177452,73.8295339138035,75.57638120189601,58.0800077745637,45.0439723771559,37.18909981542497,23.383868274659157,19.574615921641904,30.116090552223103,34.2252827482221,36.14634619504418,50.97104049222589,64.32264439718932,67.63850616499901,72.65625165766585,70.60637435627913,52.28957382332087,42.07136820212847,52.49877658536252,66.36212343740142,82.5330194478826,105.48289231819601,115.17518470245426,106.3914550136257,99.74110805767914,95.67288820816749,88.25848959599003,94.73325298872176,116.05938760844352,129.478740215779,134.69208213474712,140.0506694729024,133.33588564374867,116.05889703201927,108.09985149396041,104.41631011704293,93.6650953082105,91.88878060529919,102.95294803394833,106.45201849927436,105.67572629808615,112.60538229975018,111.32618794833343,98.8547863104969,97.50781237065256,102.20218775208939,95.41547843834844,90.4848237159217,94.49062059918003,91.06287037966756,86.35410962193612,93.57980223580432,93.9298162841657,78.80994500491141,68.99137900739419,64.41506888189429,53.75125122675434,49.88699323951329,53.4102204838744,45.58544542460874,36.52766974223436,43.401202516457744,51.17672304166669,51.998588996017844,58.35240457235891,60.93142663776213,47.50294792717159,36.68660475081623,37.39755938293026,34.667611707462925,33.66912749997239,43.79328147062186,45.04826102962369,31.471360804656573,25.73335844521319,26.371895372992654,17.424078704476777,9.46860947558591,8.51717739030515,1.2747436057169197,-3.04912731993458,9.945660309957212,19.09837704859606,10.83563133726992,6.221708512634254,9.95945710357887,9.913480026050754,13.838380079742766,19.22685438304261,4.827744957868681,-18.55137417587201,-25.23959602737223,-24.043128516967858,-26.701360176013765,-24.112992120943698,-22.32158957485968,-29.05261121633726,-22.97693001848336,2.834154610686989,25.155990170238333,42.21641530291405,67.52948037217539,93.10066895526174,118.28325382285465,157.3359559018572,194.3751830584664,205.2764506135133,202.0795091310367,194.08208762211697,168.55171807895172,136.0459346328098,115.3556679074785,93.51203279687766,64.80480507518985,46.879062011560734,30.714639346219244,-3.011592973909039,-38.66478975434191,-65.98102208431467,-101.15406919243586,-137.79541834279792,-158.41274414395642,-175.237200779862,-193.28127230600913,-192.29435346721644,-175.6342334567781,-160.59589820938714,-136.68059141158514,-101.27870967590106,-76.93758701926647,-61.41782687543244,-40.16414188299879,-27.137588031917502,-26.975972185644405,-19.059474418357336,-6.6665092232988385,-6.638199558874014,-10.60239754399977,-17.38849070230202,-43.22854510147136,-74.65530470680002,-88.30061631639668,-97.00507207683705,-113.53458045163711,-126.75368259727192,-140.97687388358338,-164.631144614555,-177.44650826800293,-172.9677394210716,-174.9098853446326,-181.92012971204946,-175.92889512904674,-167.06309965183326,-159.72160985709405,-134.80129372799217,-100.64844816118855,-79.97641900134519,-60.695765193132495,-33.513821213104166,-18.10454957706236,-12.792532627924494,-1.1505772917540185,2.3980458995611493,-10.359364295464673,-15.412108298638081,-10.307766414896637,-12.888614189343016,-14.32558818725426,-10.381806632128882,-23.55629734868193,-49.814436549849496,-64.31379812229898,-74.04020571212989,-88.81381344303384,-94.95396758206908,-98.90154067065862,-117.16308330854602,-134.80797019392654,-142.98833591753686,-161.02782976767526,-187.92308586463574,-203.74697173857095,-208.78362957732026,-201.81904176784016,-168.00450548057137,-118.34060479536106,-75.15837676971191,-30.276514862549405,22.796172816318347,66.98552521074105,102.95552226487023,140.93731022631582,165.93836661419874,175.04337311466054,191.58101537929434,211.08835526417778,211.47965557028542,200.79839488973306,186.70131938770115,157.2284653978516,124.59079959153581,108.58954708416735,91.57002367307162,59.32957127119197,28.90260638814091,2.501220171533535,-28.470858327157124,-48.070776006844014,-51.71297711140935,-63.13564136194081,-84.85673338628922,-104.39742300668819,-131.7144732728286,-165.70168389962348,-180.70603820576193,-176.44105191894147,-169.09791639569067,-149.94829303340208,-115.28964227283645,-83.56465927635938,-51.446443191197275,-3.4175592250761184,45.83592694251147,83.4203704060746,122.86513217692192,160.48322180128912,180.03581571733423,193.79758988017414,211.1248345123706,215.89460515294346,210.69785463151283,212.76022258831892,213.26886063787833,202.1672060046027,189.83811354140275,172.32064529891548,138.35694243119679,104.51974222800055,82.90856733742231,58.38914374657531,31.43633702784514,14.676832254082456,-4.527997727475435,-33.21105097000616,-56.63724814753293,-83.14159804821679,-126.58807372784149,-160.83587894029304,-163.82921257894554,-148.44946469277156,-115.74088619261585,-62.69285660965257,-18.469713605268243,4.850282089135016,33.62348485276096,70.59760140319683,97.65790934032196,122.6457137949842,150.9161017518749,166.90020757998144,175.9147792605109,191.68121001952485,198.02255191109677,184.16502080145122,164.97277390960852,138.25152625068642,92.34042031325964,43.84180703322206,6.244704571667305,-30.521351535145776,-60.10509862981162,-70.02384058518132,-79.2962957335415,-101.33482167813973,-120.68178063034044,-139.59191131864526,-172.50709440637337,-202.42739619311817,-213.29499193279526,-216.96593261406844,-210.46698063628827,-181.5468035287597,-147.89318106379193,-121.54779419779985,-86.45820260323148,-44.42666574815981,-9.563728990494276,29.04948130266731,75.79324363898735,112.53136662076741,142.10801311029815,176.71304038943276,199.57935065431673,201.33540878841808,200.91911215358473,199.21094578296928,183.68198182754702,167.51499338447303,159.2107867324936,142.60719001168079,119.84010486829253,104.10032117575683,80.84981964122912,42.12967823963237,10.065301026292921,-10.665556946764545,-34.067869291763344,-53.65095820391467,-67.45039210709125,-93.963372135031,-127.36683724175613,-146.80640468638757,-160.10208821393672,-171.81954256224256,-160.4428307890454,-126.87416083780118,-92.49462876547526,-55.21857572727179,-15.152916236158507,9.596777877993615,30.42797895500523,73.44619196046372,125.74982665504778,166.31488950837596,198.58677794445094,215.80099799436704,208.75153376108645,200.54415554207463,206.08192045601592,206.83505618331333,199.8387819475517,196.900501745542,184.87667359102107,155.32362705874678,125.67573508269291,96.60277282290049,58.32428808217033,28.645400804855875,17.4838365141756,3.038162838079124,-20.75604586757828,-44.079507687570526,-77.99747736116994,-122.77192063548836,-149.95236737865088,-155.47001030648175,-157.15720458773447,-147.48318839343023,-121.35651400977042,-98.22983603806814,-75.6377927889411,-36.668964489566356,5.195264309877535,37.873622858170165,74.94926287052158,111.66218188986744,130.56865863683151,143.1550598186078,158.68703559736514,161.03300612676205,152.33642880422155,148.6059234466477,139.8374756847934,118.37427851699849,98.82069854936978,77.2717622948982,40.41959403653773,5.384376633027486,-14.467369122946248,-34.89065883597549,-57.524616852934315,-72.35925529673386,-94.0023376175709,-129.00552067311216,-156.38697660194342,-175.4207533205996,-199.89545514559006,-214.46355669269474,-207.62971135444752,-197.72096325694204,-185.12966714104255,-154.5673997360646,-119.74367842510222,-92.61693120130464,-58.63247541432452,-23.023213495895313,-4.607959766257551,9.669756086384949,31.720022530274072,43.06358873262598,41.233087821245036,43.83430399213754,45.974856094621614,42.05339992730825,45.76080614626406,47.89623567650192,27.90161957933514,1.8074744463458208,-12.810502616256429,-27.874769665007996,-43.45076034310757,-50.44498611014849,-64.24504660162403,-91.02156564705786,-112.29832443410257,-132.19118423771855,-166.33088166679633,-197.97125568659754,-210.79314129075513,-214.0392631499143,-203.0470829567205,-167.0306632639922,-126.97701526723625,-99.50193425335931,-69.88319970653285,-36.06312335659892,-8.623188282113475,25.085500351961585,69.01603089742387,98.30379527884458,108.43009373337722,115.77289390648757,116.26060756692533,108.16471913518934,109.09136876895576,112.7146727752251,96.91964624649323,70.07376380290333,44.23551680437285,9.69342416298073,-26.622096310709573,-47.974101696293815,-66.98453307475282,-93.25203158119531,-109.66051023182109,-117.23161394395372,-133.3353515228114,-149.04982724478577,-155.16253888764712,-166.23493164666075,-178.76519061386654,-174.9063426069492,-163.8037956108207,-151.71825429599144,-119.06237150501764,-65.62007268594581,-7.992754033507937,59.52257846605965,135.76501042385584,195.45169748394224,237.53906345017842,281.3923839561051,323.1048015907154,357.8194949559421,395.57042047853383,421.05607336305684,410.154110264195,378.6907704373674,347.5685978947452,309.8227411073275,269.3880231697161,238.6766852007002,204.03097088259057,158.80890337075635,122.15305732476259,92.00894263446321,51.57563016078791,14.528924725449883,-4.28500932908236,-19.475755798614717,-37.99667694604733,-56.37296965237072,-89.11984153242298,-135.6013399826661,-164.72341651430372,-170.37369940092577,-173.52675105822323,-174.19179699071103,-168.05607615433655,-166.67746496683822,-161.90631524654094,-137.082879074035,-109.2394571658684,-94.98551467647081,-82.40120200387653,-75.35742747779932,-90.1818041425215,-111.53771878781546,-122.98574916411117,-134.39667426454338,-143.11498485317568,-141.87613895751178,-154.83534253145692,-196.84157582459812,-244.69807674269322,-284.16988479878177,-317.2665822714938,-330.91349095232647,-325.2966151156228,-328.77795846948123,-345.34970225811674,-354.710411147755,-360.2632418646966,-369.02423970600586,-369.3779363039423,-368.64026278530093,-382.9252156057205,-395.0817703117702,-389.19026064147636,-379.0002698260086,-364.4216306775016,-331.54426870495377,-291.9043818267088,-254.68447737254272,-205.31505789047333,-148.3589359619713,-101.60680941703515,-54.406995721758996,1.118720081163957,44.55069632829402,71.69283715036977,96.17148760680323,110.44436200006001,111.12805192348233,118.50506243496935,130.81734794729695,128.6976959578016,121.58403064193247,120.40464071118404,110.67084040920768,94.00426243258997,85.15897199204544,71.5339607339762,44.11677269910179,22.197940726211485,7.602530175529596,-14.915130084399703,-35.02450708875006,-44.2443982529828,-60.94602144097561,-84.35265727760037,-94.86790754234083,-100.06758532603233,-109.04869329303868,-106.0350938213936,-91.11152372059541,-76.03056509470913,-44.91571212892588,11.595124541338249,69.5398648352984,118.57114942773026,167.8721798482175,209.6575891486053,241.27772397055347,280.7896356471601,322.90567735225727,344.4842959929926,351.2815201058454,354.32764478951077,343.2622049028494,323.8922790123664,314.9533494450008,307.1953056822312,288.947160723933,272.39552341480146,256.04022316194516,225.61956446047714,194.3269311668853,176.0767619207427,156.74121607112187,134.3578130197749,121.81080390273816,108.00824605683881,83.34886185032812,64.18745926410674,51.3643092784217,29.791256167663477,10.343219077416872,5.883847862305664,4.7941611932681765,10.341060776007044,38.915731092611736,77.22368183317782,110.398852138325,151.76537874522822,201.3675677186428,243.39029821684966,285.9654214001431,335.5185848719987,371.8079503696763,389.97868198682437,403.23719083805474,403.0580311920531,382.0728655341203,359.27298906246097,339.41460151802653,309.2265000100496,277.79607890599965,255.0181040049016,226.6691525052912,194.036599506977,174.06070661018845,156.892256483471,130.26865871028372,107.91880198686889,90.29484842556761,62.36331205823619,34.46559746206276,17.532750825665165,-5.939836246857622,-39.86108631322314,-66.70313842792098,-89.02171242177783,-110.60716102295375,-110.40949499650463,-83.84433800561375,-49.328398381866535,-6.563377954883489,45.27175850682585,83.75260995693327,105.15846074235618,128.38409509300536,149.17687471715055,156.34123164584364,160.36875872638853,160.16830432042462,142.36060531962374,120.95295402369138,110.55495589786416,94.34326817893569,65.78106163675267,39.28579371624311,10.499754124822282,-25.62396826636866,-49.91208500780495,-60.75540237693322,-78.41276444092796,-98.61027956028812,-110.94228467552469,-130.15296968514303,-158.98526397535232,-181.46524213433787,-205.27228450975932,-241.07176198652695,-269.04997555240413,-279.5384685755058,-286.2239576888077,-282.24408898613893,-255.85623030025332,-225.10123347917158,-199.3552445585217,-164.1124334708922,-124.77420640255016,-95.2226699535705,-63.6448438137767,-24.82034685699067,6.146809107775143,32.75868217624866,64.14140769531706,82.11570573774952,77.52216861045486,68.5559614342748,57.90231446517302,37.03925214984168,16.083444513848917,-5.327924505863428,-43.42900407625633,-85.21408121514037,-107.28554508634714,-119.5144199977236,-132.63792643562465,-137.0664021431487,-139.35355574014176,-152.1548642054273,-162.42091755228256,-165.65786164763045,-181.35517391801764,-207.20978033256796,-224.9201683961726,-238.48445210543096,-247.15366917967182,-231.10114353727923,-196.8677344846215,-167.1263715932742,-135.16594866720885,-94.45750188719066,-59.781692639024854,-24.844679663995713,24.310069789641986,66.74879661585531,86.77750304827617,101.53969677294714,111.43493543935325,101.80642990090963,88.69385969141369,85.10936473651634,70.09920755662786,40.56530207642324,15.413360023655297,-13.209583135748428,-52.06458902481633,-77.67166266228482,-88.2487603010328,-107.53234203755858,-130.98069969623384,-146.96923898458778,-169.26008863526218,-196.33241559857504,-208.84053471365695,-216.12527116279594,-233.4162088700423,-247.22075456865423,-254.86717291681987,-271.8721087910108,-286.4425603229585,-284.1936704170207,-282.54766916726294,-283.04792548666944,-264.6817409150377,-235.6305143714016,-210.0849060642177,-174.93752535799263,-133.08724758835862,-104.89257045252118,-78.86193506403228,-40.160585225600926,-9.376204680329439,4.495240779777624,18.195724325340045,25.435189297474775,15.402370206611694,8.090624037375525,9.175026493838985,-0.509040137865326,-13.073135219406407,-13.245581713392124,-16.643335142768493,-28.131545649065107,-30.795112123311178,-31.440633788069896,-41.12937725827865,-43.20132799078279,-36.02995809130556,-41.419373128693934,-54.75700493697467,-63.401667418294174,-81.11434830286512,-103.75635292023954,-104.44725745383845,-90.37259591503447,-79.9381662180179,-61.438864947779734,-36.663917446598205,-26.522478649187054,-17.156554388962306,12.257581681907046,45.32475398152276,73.69665038138109,109.932187807215,140.51554173381086,150.59637901844607,160.62048414374533,178.43137294119512,185.52390308047256,186.8012081945753,192.89169214855252,185.352063668113,162.27134533656735,148.2672558159655,138.55841479528425,116.96882411402021,97.47852925961175,80.82838334300254,45.18548015273399,3.9806906272273146,-16.611966022335476,-27.10552063858215,-34.343174493790464,-26.854797237790343,-21.699692397648526,-37.719937101868325,-51.84676299299083,-47.642008188566315,-36.63546447522556,-12.038632062849516,34.15498759233072,81.08034797213419,126.23822675317804,189.307613646475,257.4998962745815,309.06229281878626,352.02900454846247,384.6325534140038,391.8761977679758,389.92434142349254,394.5251872416479,388.79182142317126,374.4725367899843,373.5545485729266,372.8733848207664,351.5346922859115,320.3496036260199,281.64150404939204,225.91505006489336,173.81859582559323,142.25659174209903,108.79111240288148,64.79117546910572,31.63432848773264,9.78532507911332,-8.87223635681386,-13.95609608317566,-19.343992021423865,-55.73821613421267,-110.17959280855173,-156.4999025143712,-198.0909531966528,-227.76346243269097,-228.53034821204466,-218.71779922200074,-217.79629299083996,-210.6829508353692,-196.31223451903165,-193.8202640439967,-189.68995658533106,-167.09669231442217,-149.83396401516745,-146.88398760505254,-133.15191568996758,-111.69780502717848,-100.78211608608369,-90.40648526559002,-84.2235386181809,-104.66766768351467,-132.8872787286878,-138.21616267311202,-136.20655169644294,-145.18854363306434,-154.44248378984776,-164.02518100298866,-177.2018763607015,-174.63027177787725,-158.36535091720498,-158.39946305567764,-171.7759287658463,-176.96593078222062,-182.65372426870755,-193.92649179564347,-195.77431712695545,-196.23476160100904,-206.38154396326243,-205.37439668968474,-188.0538393918384,-175.35777234613968,-157.77974458180665,-117.1388342410041,-71.91985921017101,-31.600554210087473,20.2630644152131,72.73066828378148,105.11862646500013,131.87976939425664,160.484261551333,173.5758124271488,180.94252175450168,201.16531248934774,215.03891491156637,210.531707677726,206.84118677418314,202.01029874107957,182.23570577528756,163.7987925423746,154.34427841992743,134.1910239151557,107.38363698604545,91.19202961753834,74.50788876669833,54.41664431177537,50.37557126091059,52.67628054944381,39.896726165006086,26.095653595992097,20.76425834557741,6.766113701787072,-10.431933630255237,-12.673186910251339,-8.263399789637813,3.6135664592125396,41.37986427465652,87.01733050295397,109.01648547368339,118.76519167042153,132.9346467540103,143.84481152784878,160.77556387210862,195.1050168756609,220.54360577061834,222.61453341896785,222.27613142195167,217.14304569718672,193.9032461057057,176.254831603274,175.41043488223352,164.98088814836706,142.7566666319682,122.49287525133073,89.21485213447787,43.955149260735325,17.87031067662864,7.272626776658955,-11.842997201869235,-29.90742522587709,-41.84253587491829,-66.87562108293889,-95.08872226150737,-102.79246415303764,-101.72597245108521,-98.8472844283773,-75.34162159483265,-41.59516464948413,-22.969746943454496,-8.339347608546003,11.90806620345637,24.173332115949517,39.83420741917039,75.67218486491052,108.65390251975917,124.08536708460397,139.22116232411398,148.5888162429092,136.31379802386198,119.96230583968509,108.76635419924202,85.61050491876343,60.15081472173672,52.14135920576966,42.60002818985052,18.29664546329264,-0.6417960471201041,-16.37606959535674,-45.17796525112585,-68.2643926150903,-74.57132068085588,-86.87766154732272,-104.2931271383196,-110.85164551069626,-122.29929747620724,-143.8425419894727,-149.324408910242,-140.45352092288684,-137.44040133991666,-127.38436034708548,-101.46016384720366,-78.88573979156558,-55.65471072240676,-17.558852494808335,14.344937575221838,28.72256172588047,49.00641511730512,76.73747535175056,95.886141496881,116.38350841723317,137.97558580571828,133.72470719115424,107.256597322302,84.13344733244388,61.03930436416923,36.24473176836451,29.021256891317726,29.417329693132707,13.05487613631214,-7.2179228590274285,-21.622528256953704,-48.92551642884338,-81.39925780100927,-97.08098308209318,-111.58719121180528,-136.0204698278423,-150.26358599161372,-159.38479553573106,-182.83985393704782,-201.62732065751445,-200.29078852324326,-196.57227138118193,-186.1248301834604,-150.48736828589142,-110.1254056515769,-84.07005858540788,-55.755926442243265,-24.37871035435579,-2.435420193019705,27.210977258843158,70.09283127371779,96.88740582481172,103.70605542805083,109.45226437628244,106.48452211174761,92.31385178482671,88.69364595374884,88.90934102358395,70.84569272861715,48.94237082960795,35.35639499893302,11.191887048240307,-20.062415672054616,-38.1843551827394,-56.46573546427128,-84.8605924366222,-102.98640169182535,-113.84640388854585,-137.03014436359425,-157.99377968036984,-164.63862461890878,-176.2725367204609,-192.35508652834565,-196.7785884532526,-201.9902147763226,-211.08890840785503,-198.81996771697422,-168.66327445374176,-142.86627727109192,-113.76621475679926,-78.78439568984598,-58.24173438844912,-43.120296027706146,-11.37855635856764,21.258478249792645,43.20860718425319,72.58424981768056,102.26731097326707,110.80970076019764,112.11117713281935,115.16752556030568,100.91511417729811,77.29876066916022,67.26369720579335,58.296646951188876,41.572266750992426,35.31726183451269,31.769122057663274,9.38327821003804,-18.034720783110593,-38.885866939368235,-66.63127894559973,-91.97275054368382,-97.77782528821243,-103.16197816263497,-120.4909601181156,-131.11054774582414,-136.59131095302305,-150.88787139440868,-156.999508215326,-143.40480264116238,-126.164497749151,-100.92032002156853,-53.82822431811509,-6.027486217567793,27.37834125525774,64.67267202543232,103.94689603884248,126.52923114131156,144.53424323661972,165.23913895646385,167.39173356203696,157.61315744932693,160.6039186836387,162.9105643263251,150.59161235858147,140.0513043047249,126.87136936382122,95.00783701877722,65.99401493405318,55.372833457842546,41.01555455846632,19.756756999250516,6.346648914148094,-13.672786580422077,-45.771465669076306,-63.327695072122815,-67.30970528869466,-79.47701521348772,-90.6151182294568,-96.203309269252,-117.08012842987272,-143.94276693989138,-149.69597004296566,-143.00022898772082,-133.48268365510768,-106.42768287609708,-70.36622977393438,-44.78445282994523,-14.382587533930014,30.14591791657235,67.17821393243167,95.7689669348094,128.9860049385492,152.51562939281482,160.83072685557923,174.45784883668316,190.406112348408,191.92307842916063,188.6199478626891,183.3382267506153,158.98412581190922,126.24062493077959,106.16886027412531,86.19664578172154,58.51623201809409,38.685387561442106,21.20316757070303,-5.292624604375083,-24.63476109772462,-34.844651220827444,-56.857940190164015,-83.15624447870647,-97.56358766014428,-116.61175525863243,-148.77904221384503,-176.59096385706766,-199.46482418982896,-219.70975134620124,-216.06662176784891,-190.00899531789324,-170.15905497918857,-153.21727814916488,-120.49388075920854,-81.36814623589461,-40.30042239463012,13.08226519043423,63.40641840229832,94.65876391056578,125.89627623047521,163.40180488299245,185.22090796362488,193.75576060119292,202.9732932960298,201.2134511610058,187.7135301815429,180.15440788542458,168.66273300358932,138.89830609338708,109.85211352769292,90.85543136849532,65.73068497460213,37.9222820094439,17.672985690984866,-8.413625961705092,-39.90824873480267,-57.587060413859845,-71.71449020354436,-100.43973479143011,-129.19193745895552,-149.1413068626706,-171.7920232686928,-186.62664343562446,-180.16973620078466,-169.9432234543682,-161.3825135748161,-136.48164661469332,-102.83006709498575,-75.13818937781193,-38.89377039378818,8.402760292678353,47.288087864071095,83.05403561467037,125.59321059524726,155.8720309875162,168.8613709931545,182.8622721568835,192.2151784588348,186.09184556643748,181.22578913581071,180.2777826147853,164.0100844795671,139.16346290317796,119.76705181753806,92.53666341739707,56.973175651298675,35.234203100146395,22.572404926243937,2.3509302112423214,-15.982141818159148,-33.176510221330645,-68.59732968987198,-109.66107147670989,-132.9281178695474,-150.14598816473156,-168.40323091207597,-171.5216312350294,-167.72207772200818,-172.93196187333493,-170.00175550652307,-151.26931558279045,-135.73464377543868,-117.52404448259449,-80.28676810855296,-40.20260692689643,-7.561623501646387,32.177679650550566,71.69233499714063,93.70363042650045,111.10956009412172,131.51400112357894,138.64890742643735,137.72192834102702,142.99940902363468,138.40231508574607,117.34023708635107,101.00572998262336,87.60216307700655,63.00686857048609,41.12082270018499,27.26574666892367,3.1692418027699585,-24.097248607669098,-37.14976224033501,-51.16234842027318,-74.3741531508237,-87.6868570628547,-95.25582566168165,-114.56869981581823,-131.95520283732856,-138.80429737599854,-152.41974249850347,-166.04604269124965,-160.53664585727657,-150.50059029937728,-145.05393909203823,-123.28159750957585,-87.06605279376684,-55.21906607055322,-17.92686908736598,28.25373190203789,60.34839846874348,81.67689320527018,112.00925671137514,138.39555338414266,149.6036085909309,162.59112360016766,174.08427854495054,165.7925981604111,151.7080894134296,143.87598344672057,124.39739195800448,97.08897500507214,83.36542601052909,69.73826619535396,41.77732428251087,17.88000263508828,-0.6520497509765639,-29.443377440750346,-52.24850040381143,-56.74744582955565,-67.05500083653914,-88.46094682988571,-102.76382186443699,-117.49638365564225,-138.30336220418425,-144.07345623409248,-137.93939855682837,-142.90793736785108,-147.98851256299915,-136.5924752515864,-119.4743165356236,-92.24851025644386,-40.17985348581345,15.972351830547694,57.75835589793588,100.49843649035002,142.7042588104983,167.0587232360968,185.91141407366436,208.1200624934924,213.16678301641565,202.1475545134797,195.43531555113603,183.211259947459,156.5193910988861,136.61977400372322,123.32410508506399,95.63955222088788,63.60271180343378,38.34474672473991,4.269600438021708,-31.55011664542212,-46.817018186556965,-56.05753064598072,-76.31016209386907,-94.13519898610116,-110.31963854156325,-137.70088623066164,-159.10404832663048,-162.37526271115559,-167.12834123126376,-173.57757534971023,-163.64845565481713,-149.2697162018594,-141.13415687179355,-120.22595724959247,-87.51497126766662,-61.695301235168145,-31.24300464804133,12.839911088421998,49.89406914590736,79.88912531638667,119.1889611815993,152.32728483783717,166.01961372108497,178.07080251204803,188.12155438262982,179.3411772918411,164.23669049720434,153.2471918424963,129.1075850980115,95.68647767694851,73.84778066674207,52.383430447823145,19.571517910576837,-5.525658636870317,-20.8789857814205,-43.79292903907176,-63.991643488366975,-71.66570654423126,-86.35728221849638,-108.1868462712965,-117.89722873636737,-127.35819792111121,-149.60054971275926,-165.3376089828825,-169.74549965237773,-176.35221586069548,-173.1691769428207,-151.5123129238458,-132.12426489762277,-114.73077285448917,-78.68847688090437,-34.65761659649932,2.7361975622093677,46.06751535751659,90.20546725457274,114.61846657781419,131.12099337747716,150.93029331776998,153.63959342363478,139.5166281357404,131.69438272376246,122.76116081867754,101.15056876577172,84.58980832798164,73.9447654856333,51.76365965473899,30.96959265252938,23.304044719048218,5.822120673030913,-25.341166090250926,-47.02045302512674,-62.87142331591585,-83.67097120352662,-96.58124405804686,-106.45296854699052,-131.74234879648526,-156.30379276671243,-163.87985720293977,-172.215853597758,-183.45192447661555,-179.83705728261327,-169.73811025150673,-162.01378117710675,-140.94009271069726,-109.98904400494709,-85.75690090888915,-53.19361497858719,-1.9430597894779602,44.42806215857529,79.86753249562396,117.43321576520455,145.31535907088028,156.55707759729233,170.3415087758056,183.4873303107163,178.65380613871048,169.75032168081847,166.70914261962022,151.99627219990407,128.74251914798916,113.0227599546574,92.7315524161662,62.67400194275807,41.685094659015746,24.69998759364701,-3.912398350032502,-29.20003393277953,-43.43580232381227,-63.15258950982972,-82.43287705990576,-87.84237400746734,-96.11691183003089,-113.04958536408755,-118.21312801596659,-115.175117257941,-117.64640293579956,-108.97763535306302,-81.62628346491806,-55.306717156062014,-28.556469729768637,10.245805892873694,44.81809308023022,69.12138980620736,103.32155743115995,141.94551406678664,163.35660338076255,175.81371776505188,186.76677811454812,180.72892691391547,163.3712036389742,153.50731009917297,139.07159869793043,110.57787538497591,88.05067478003812,72.04246603345533,43.90305152824333,12.784597071759748,-12.980887916792087,-50.41779527244912,-90.90931848866201,-107.88781988041865,-113.62265952857345,-127.2311123371919,-138.85331260832706,-151.2472423613701,-174.76959358171533,-187.63902895351953,-178.86907728350974,-175.20229255841676,-182.19708041407202,-180.93447252727492,-176.765116428221,-173.6218000104581,-151.3620778855081,-113.17174832815135,-80.23606354507407,-44.39564009984902,2.051334158123975,40.3637310122705,71.76488945635079,112.82904198413661,146.9099487942007,156.28300328785556,156.1926717848619,151.3986725234247,133.7616684043822,120.54528617858068,121.12983279507506,113.33182872797836,95.1996891308093,85.07597183962473,73.91529920805856,52.20736425064171,37.601838772980486,29.48338645892467,9.516047092843554,-11.68421787439108,-23.455658600681417,-43.93606774385611,-71.43256501356181,-84.55664836079534,-92.52310579917807,-106.9413277097305,-110.1355233921735,-101.84553852870604,-100.43348273099302,-93.19842141591238,-64.10014953759182,-26.61695778759254,21.112619787310575,97.40883584321722,187.26813684270547,266.9875977873283,337.8096317113124,386.1691100663519,386.8836554109431,354.1823473557654,311.8031284469331,255.63702531985143,194.73303321195957,150.58079516300603,110.46651719631501,59.46199323060537,15.020270509583177,-20.38811272107671,-62.842717484021975,-98.70972417826604,-115.09696941583648,-132.97462521824602,-157.19675036326254,-173.00553931780343,-192.78044603554105,-224.7242563103208,-243.6243316666044,-242.6713691592607,-239.63469165490574,-230.30243121870973,-211.04873921347522,-202.66870890565284,-201.3391881806443,-182.24670112088035,-154.3295870872665,-131.125884583118,-97.79285892008761,-57.727161982982295,-30.710801589925154,-6.478051182232202,21.600920152733355,30.4408417297156,21.29286823844061,17.687891504543234,13.925404711636375,2.390098008184668,-1.327077972744429,-2.522886276417424,-18.25358428633576,-32.211420264633766,-31.863124941666484,-37.49176336402346,-52.151657121755704,-61.24900467221093,-75.89664173217759,-100.30016051711334,-109.47861449432001,-104.12070389810725,-106.50127476088994,-108.75886879493689,-104.24972273590781,-113.38462638631893,-130.3226433990263,-128.50167741710266,-116.56966316538713,-107.39241275563604,-85.30587205908022,-53.26246087671632,-28.903583674910312,2.237909350312397,48.966988062756116,86.25613442397284,110.83706031681542,140.2530404367012,163.43217711496837,171.38368872044146,181.67472632414103,190.2761106965287,179.75298226537006,166.18143460446524,162.94315222084305,151.90806918188028,133.15396647168194,123.69577562201397,111.0268859536365,84.82046027731542,64.79288682420098,52.00980237436384,30.016936072327447,11.170175293974088,5.690435899649511,-7.974413660565217,-33.25796532225267,-50.19518853908863,-65.58830260280858,-89.41071923877563,-100.84781972039963,-95.03763621713964,-91.30825814405964,-81.66165877850389,-52.7952517599841,-23.99599928510441,-0.2860119089598294,36.799361117977085,74.56604187400505,96.00681337007134,120.4153653094808,151.66643950040498,169.1754341571226,181.00966619159405,197.27794733167502,196.67985784648891,181.05414687578946,179.72147898404054,185.93496827131423,180.83471871736478,176.21509499081117,166.6059729831318,127.89478456205757,78.37040279928678,46.18700238550201,19.96352396137113,-4.947491729215937,-13.316355221627479,-19.152982230580793,-40.7208420465147,-59.784052564265885,-71.21330593334625,-97.14594345401295,-126.55929108441673,-134.29739301524629,-132.71128694526388,-129.97830083261508,-111.98287538127167,-92.62705968835708,-87.59182341483807,-70.61390372776287,-31.63460916444324,3.1515016384713883,33.41483630674363,69.87124953873206,94.5646228309229,106.72258360150184,127.63004546983403,143.36632768791713,134.51582997284274,121.91609996507347,114.81533508042388,96.66075568278094,81.02750054754276,85.10996060858616,84.72859656895255,67.81074395615661,53.44018823583347,34.94012004737775,-2.9695440805040985,-40.51705713114022,-71.25092251801063,-117.71373055328517,-167.17176380229174,-190.95561904889735,-202.84226235544418,-215.6264197754361,-215.20785538849796,-211.82098489390552,-221.89893053766588,-223.51101726454877,-205.07118303308914,-186.07111671342415,-161.74779112152862,-120.29281992043488,-86.70446470656583,-72.00509227727412,-50.65591268335438,-19.184281864853027,8.995977120867051,41.09553792116925,70.00256158076401,71.61112304621187,59.69897871066465,60.08230050525479,61.68399164402284,57.5405786294511,61.57725001721773,62.03498147822401,42.40607181687929,20.075078447200987,0.7491318709397023,-31.108696023579093,-58.17412824033832,-60.40074233821994,-61.71596614854082,-74.72224578123935,-82.00637825035673,-92.42353433023315,-119.40236766600704,-139.84958771154695,-145.25866001515527,-155.58140972797906,-161.98997461791765,-147.07134175617557,-129.1705447670012,-116.69256018675749,-89.44750510769319,-51.1752163687963,-18.483024753336515,18.34754244293984,58.97557459970074,82.97713221266808,100.59873019113965,130.950578411308,157.22092088881635,170.02221863440775,185.26786648920688,196.1773302487403,189.81476262363208,181.73295610345156,172.55467676551353,141.72658427618967,105.30974625219588,90.69245307974832,83.26079308805295,71.41792842010717,67.80676921332906,58.78570458385969,28.6897971095474,2.4045768202996562,-10.551436268980215,-34.11068087096878,-62.15450972955751,-73.75776705912219,-82.51421009861222,-95.0415145955552,-93.73942571758707,-89.73478684747693,-101.48619567508388,-106.33843597454545,-89.29245135705648,-70.05003539744004,-49.18165578245555,-16.37782708347762,9.041415540610448,21.441045476761975,46.726372737058945,82.9329876328939,109.30299393307206,133.80466034214302,156.4638868817167,154.0087376079675,135.84316677853883,127.07602730612048,118.13341306778014,102.2671246540554,93.16589294053873,78.26240391289423,40.77917947434288,3.0278665738307904,-20.937387460854424,-45.85860270000738,-63.19517867221396,-60.02380396607643,-61.4767146244094,-80.3243350826077,-96.70380618298256,-113.8698565352958,-145.58363225789563,-174.86458151659014,-196.13734773523524,-229.36383157001427,-261.23548691498615,-261.5222789574082,-239.5315626415229,-209.3469323434905,-164.44328084743873,-120.10722445441279,-94.54863865477654,-67.03413192940059,-25.05975251613185,12.673636757961374,48.23426379763745,92.93155348246263,127.3957046050509,143.21577624872558,159.30584857649183,170.2012593244858,161.47138144290938,152.09321312420917,149.90078088029304,133.28697343090204,108.11150314058895,93.19327814845599,74.02975776783833,46.46674792556196,33.28333276598113,26.34069867405528,4.536934712570368,-16.35995824047649,-26.82707749528879,-44.32109316893283,-59.824227303478466,-53.94986055421178,-43.77184041820176,-38.191132147442545,-16.52733819386697,14.105850039447674,32.01416671328831,50.40367294585245,76.51075261598606,91.47907160142526,102.7257082842782,126.01462657172084,141.1226947062101,138.57829781933944,139.55810829204512,141.29249697161873,129.1606106204032,117.68966303176336,111.16034286641784,91.45006904885773,69.43175198952406,63.83209497476783,57.71341258931297,42.49055131882115,35.20242134500684,29.55962470163911,12.320727995653105,0.07387598722992506,-4.029044860360392,-21.72757142735075,-45.698414961042126,-58.153977053737975,-73.22763498817011,-93.28122967957282,-96.64675267316241,-91.34684895025715,-93.63813957469159,-86.83297303125745,-66.97769696317253,-54.601099744982974,-41.867431028602,-13.39186529642786,12.939804762799746,29.898281939031712,54.127343519914305,75.38729105359221,76.37294095448343,73.80960968027884,75.79474442432848,66.14761640314788,53.17890159503054,52.65129844699119,48.0735292623568,32.50905713108392,24.242021930133998,16.055323495149494,-7.916862312765393,-29.04578199989118,-37.14927148658443,-50.97000753020834,-67.0557969367428,-71.84131423112073,-82.00633108523955,-102.11124693836464,-108.53857382458986,-106.57495057461999,-117.00109139648323,-126.04363088566784,-123.31817292366068,-124.62440613711382,-121.79343030050318,-96.75902720961506,-67.63145815095586,-45.90199996966222,-13.44146168869546,23.94781258144942,48.22780665634305,75.6230502306016,114.80760546683663,142.02993031738902,155.36217482688676,169.261787064316,170.73423599408633,155.9617859837748,148.13851788020875,142.7802107877763,120.48458420136183,97.03017266239118,84.67728684205477,65.9863017556676,43.90070530174928,32.27498883519933,12.8694803885477,-21.27844189518066,-45.16704260689974,-60.48661181199334,-85.61991535069112,-106.37121406176061,-114.72402205033069,-131.16352156747644,-150.6470726992359,-153.90074559337887,-156.79087855291647,-169.60202244228077,-170.5383575775842,-160.65690052990067,-156.6411514384174,-142.6507611430925,-109.8494147504731,-80.80883937366515,-54.400415812778704,-14.065647306217627,24.05089056844408,49.01072229027035,78.98304092143309,109.82259413049006,124.1188111083878,136.77745051843678,156.36796283500118,161.07757640143444,152.05180684985524,147.13824422138921,134.5830967668199,108.6223122623872,90.4756914748643,76.34417910067747,48.61345130651371,22.55118150257853,6.858493037799866,-18.252443686966274,-48.082471972399176,-64.42669686803968,-80.15959446490929,-100.43805996996139,-105.19413319703084,-101.55982816896645,-108.09474668018076,-108.77946412815339,-95.75302036896068,-90.10752344505315,-88.43755242147034,-75.4442967369139,-66.13445329199814,-64.41684382717466,-48.625867118955185,-26.128862197327184,-17.14960324082943,-9.130943972108373,3.750236519729695,2.570263104126531,-6.218741740567465,-5.28703029410397,-8.035736847418454,-18.704782782066236,-17.74067801391884,-13.7253142431989,-25.743659976521318,-38.18794456587391,-41.334308005766275,-49.98965431568537,-56.279590868259035,-47.31163717325735,-42.7601609413567,-49.072412589977155,-44.507315566072904,-32.50973798039979,-28.195820850033773,-19.213498826899706,-3.089995763437804,2.9727834581500012,9.486775936631407,31.925143051605932,50.39934012693207,54.383415756892695,60.629262338543015,65.44123405155156,58.39126163791008,55.85155924698503,59.151126721126445,45.90905398629333,23.67329579751035,11.255662613786747,-4.120185266152731,-26.156048716504376,-35.354846650763506,-39.262458064783026,-54.70901985895706,-67.85928270787619,-75.01379346042174,-94.84622979760796,-118.3899227151219,-128.18689187278613,-139.88701023728146,-159.72657962094183,-167.9028165056804,-168.99211208798386,-175.5685757083917,-168.90339812918202,-143.77671920675007,-122.36362909667696,-99.24906485140528,-58.4110057081127,-15.827098291673794,21.640554445873228,68.9709173004183,112.70482754527127,133.4151463731709,149.0812889492385,169.75508794044117,179.34378384689572,184.51786222731707,197.4058318335379,199.4751756214024,185.46383862489466,174.07115955517088,157.9851984225558,124.29173158927563,92.32382680110888,70.19334941058318,41.92143463796038,14.65346405667966,-0.7180243327017621,-22.85316145491169,-54.80650929331374,-75.59352632936914,-91.70554291341887,-116.80179325875866,-134.38915850681013,-139.8261737322332,-149.9163381258495,-156.02171929356132,-145.49024828544054,-135.25902405976788,-128.09087468380935,-104.00316394760716,-68.95531948136171,-36.71356299546545,4.786751231751914,54.52277498100734,92.21508307090076,123.99152960711248,160.61326168966133,185.20915303799313,196.02898254735464,212.42389171797856,226.2157755230831,222.96467928751258,216.8663254823396,210.25588284229198,187.19646504582022,159.5092026735477,142.6128100897127,120.0152115744788,87.73214694790042,65.45524632273856,47.189550443185134,18.334737514885727,-7.650425183111622,-28.265736572704295,-61.09278739289414,-95.17148862245409,-111.99042078740587,-126.26763688463677,-144.74159242994241,-151.09132157573097,-152.28789125027862,-160.40369998221576,-157.06938586710166,-137.14492461802678,-120.43441629756526,-101.18168660267183,-65.87493569545042,-31.073681281126333,-1.8039166760079093,39.660636056780476,83.73700927417894,112.67789589111369,139.85281277450161,167.9050201060461,176.49913042208323,173.42173119099712,176.42552949779497,171.42139750989531,153.27702467546197,141.2090559569344,129.13051128953862,101.97307702624865,76.1767428436058,58.56088647070045,30.741057561052678,0.3037952277971563,-14.975845466527147,-30.818591350120432,-56.250175636889054,-73.86291201109647,-88.34034354348401,-113.26333762506671,-131.1228324739043,-134.76286421928722,-144.51579253783072,-154.51271294781304,-145.67377898874275,-131.12816613523535,-118.9093561524024,-93.39263398816671,-61.799107240594566,-39.44939827845569,-12.041998713372468,24.817799687544834,51.306283116012864,71.2273584693336,98.55913571898712,119.49915156670752,128.26572701829988,141.43309552420502,152.61143394630315,147.02260705228687,138.71453877921246,132.12162358546624,109.20162921584188,78.56966747274107,58.63346718713855,36.13465162069394,5.589858078041913,-15.157790401462957,-33.239122383660025,-63.19286715663131,-87.0953430665338,-97.56510093248114,-114.06677857809319,-132.14873282963276,-137.63991258104986,-146.28713291613602,-162.56745280705414,-163.69069825370877,-152.06127826801873,-143.2264650369632,-124.60239987444795,-92.6715276925302,-68.2526608943026,-46.86971760817845,-12.564254949041235,19.35757317907143,39.25937770323322,62.19444247578092,82.03829483637573,84.6033579005828,87.11682296302916,98.0258922911938,96.70955261878099,84.45271347760271,76.78356783014081,61.492260715147935,34.203200877991904,16.70762205918352,6.035973175746321,-14.322905470727623,-29.01466824859046,-30.062655111050077,-40.2833087170194,-59.908647779054974,-72.35139805389943,-88.08811419429205,-110.68536190415885,-120.41241317498287,-124.57808758533528,-141.72295565026866,-155.31171260257523,-153.5521868291513,-151.7565360537564,-145.498681031252,-121.98556949355046,-97.31999590973886,-78.11047081837773,-46.740416236969736,-10.136109139144097,14.851540742935008,42.77246444003619,80.3837892564972,108.34515425976937,128.84015083786582,153.06489094559754,164.70594103761573,158.85238230300882,154.98701670003817,148.57603164462915,126.26182608273075,104.46513676541366,90.66018474993301,68.02475153241973,42.355862743561886,28.023529242982992,10.85957179971802,-13.120298424152459,-24.67308925056404,-30.789047691257455,-49.12088876912455,-66.53876984794064,-76.22973511790806,-93.36125088642552,-108.83588851535492,-106.02907277889061,-100.81722806989495,-100.50466417418504,-86.58680972693855,-63.61556141596446,-45.82003901876844,-19.527811271518406,17.675840144305507,43.964668107118015,63.17399947150313,90.69438750834361,113.73232776423009,127.69539633738839,149.3423487158684,168.95039237888068,167.4115411684326,158.48972377560276,150.79886860022225,130.01036129953394,104.03119779182794,88.1888459829383,67.57062540534885,37.09158873560473,17.59484768472154,5.016608883402915,-19.134069415795892,-43.64644018185967,-60.61604408530449,-85.50442335218028,-110.34788255368912,-116.56436092940581,-120.73190822852095,-134.36408781423518,-137.32863552015831,-129.0711938480623,-123.5204361880885,-106.43817183790257,-72.35473913163797,-44.19619275083569,-20.065855266439684,17.032954387200938,52.26345654088109,74.02787077590533,98.06945890053186,122.29254676252911,134.44823107223638,148.98983523989838,168.90596870869524,170.24550935026085,155.1256337656329,142.60128034115547,125.55912110059813,100.58209051833548,82.34838709393804,62.41700877005688,27.35467141680934,-4.2605156685706564,-22.857424677086573,-45.49923110903948,-71.30592048609714,-91.77766825756133,-120.94763523898473,-158.33790669025439,-180.12423557585305,-188.7005309249568,-200.2944476472681,-205.2533873912371,-199.23833883550975,-196.60999248559804,-189.5797656656138,-164.67325812184788,-138.0041757518152,-116.48478547545503,-82.74343646393396,-42.96210212302772,-15.747391965543823,7.898434155415196,32.848760305541774,45.45904649321026,54.40549002028527,72.48602857544269,80.61820531963042,69.57383141254273,57.72243294220735,44.534637037560145,20.662087516673722,2.1692566410482255,-6.139835894851944,-22.830878120419577,-42.31630638555149,-49.58562840298957,-59.36432044236824,-78.89849009749848,-90.99201521836949,-99.44751661219445,-116.66949493207083,-126.51669272790477,-122.90129445993443,-126.26522023616698,-134.35593306805748,-131.89214983553825,-128.9453373885404,-127.06853574648466,-106.87535465891135,-75.71795758124537,-52.67596745202573,-26.39740824466984,9.846942404048713,40.35478445492662,70.31605348698109,111.75747061576595,146.9934654232016,167.89437097221946,191.54046281004813,212.1183817975134,213.39759797077386,208.36597237447043,204.26872786498853,186.36773540417994,162.4493593114534,150.32881463596675,139.15573093680212,123.1072463250961,116.89871364548948,111.32488288897771,87.60023158597019,59.656067646081986,39.22694234590111,14.504083968573113,-8.58335128655638,-18.091963505987636,-30.162079504692695,-50.19684175800212,-58.18735699900283,-56.13442657961876,-56.11706157180396,-43.55500727528069,-13.892230753068677,12.621716764365356,36.96742532136836,70.17672803810969,98.83031594139007,119.72498354508745,149.77443696308978,179.8799073361919,192.07501491378667,198.9087261508384,207.16070208055865,202.03372823859638,188.82549644736935,179.39383825274393,159.7647092160929,126.29532532410397,97.36436772800704,68.80899729854269,28.60532646659112,-5.879229529380514,-25.17131708442659,-45.90927647208228,-67.19432108260492,-80.51606079569922,-103.62470858797872,-142.39659105889572,-174.63518622088614,-199.46767550484324,-228.2842684373884,-244.21452161330362,-238.76224936832818,-232.39252354397115,-224.92184789395557,-202.35603200198003,-177.88414994545073,-157.55338516433065,-122.7653538045883,-79.08102490433825,-45.522005933876045,-10.658564921893047,33.368030089135274,68.58904491376072,95.33869207738613,123.83669154837737,136.9648892270706,127.70168568447107,117.9971129015083,109.78220483980371,91.19883602124747,74.25234134906903,62.61353270055956,38.10604203032641,7.6090735271875705,-9.485737199366675,-24.542045691696682,-47.49677958213063,-64.60237837429257,-78.42228124789483,-99.37141371778894,-111.99062273670269,-111.76351410540576,-120.64493901371677,-137.36247409472466,-145.3004386638941,-152.25783896577548,-160.76917439160118,-153.8700677385829,-136.66694393358583,-122.4672852725859,-97.17425103934471,-56.46119259368493,-20.690144289838884,11.75979894782012,53.750043957029334,92.60681919305574,122.6015421823488,157.99364695900186,190.1550494427613,201.5423211294169,203.60074411184388,203.59743419051347,187.75050136525624,162.11301041922445,142.16001542484906,117.72603662564191,85.3104484803155,62.90123121237008,46.544099800403025,21.491680830272344,-0.5406944317509739,-14.788954869546352,-38.346599143465,-66.81120397644443,-86.50174901042848,-108.82739396563764,-136.70811237505455,-153.14056097152368,-163.2954986771795,-180.25046703403783,-189.8402502342263,-185.52402835086048,-184.13127159894898,-181.76061287500605,-163.3577872372114,-140.1267659089134,-117.87421525042544,-81.96726284343909,-40.840969269824065,-11.823403883341244,18.855632788311922,58.43117363447494,87.26396531749597,105.27175934786524,125.3800433547847,137.21962901645185,137.64103001515485,143.2204417149307,146.8586031538521,131.71981944857347,111.47163917233385,97.12982716178797,76.57528768580676,55.265966329779786,46.92579787196851,37.21089424959007,18.413041217945143,8.259013272894936,2.8889124679412834,-16.656845538357434,-39.71400432227037,-54.94043302546642,-75.73811084628709,-95.9934899455631,-95.27515222277948,-86.94742988976151,-85.62362524843053,-74.05755248010733,-50.930932585180024,-34.038374144794425,-14.733726707097443,14.077429109451009,34.584582699111174,52.098723422153824,86.48655450386221,123.12648631681431,145.1961656006193,162.4702954201922,172.25904522692525,165.37206711116625,158.69985996888542,157.93606171219767,142.010614947715,113.99207759647186,93.55570696651529,73.65633826280842,48.439236372841606,31.132245070046167,14.471271584998163,-15.20991859755048,-39.76694862912814,-48.09760578087562,-58.24867207098741,-71.10583336247888,-76.77461033261794,-90.81111608304363,-118.24315805294827,-136.57247437377862,-144.45026384802634,-154.6510883215077,-154.96321294100338,-139.68644492018362,-125.5476221089142,-107.65879975013581,-72.2562075552339,-35.564096515781394,-8.091548802126177,24.690827380823933,59.82572087790136,85.38782679529848,113.48730207874142,146.7099124845918,165.40173318763135,171.9643722396324,179.02556111736072,174.0186155779681,154.07877309570208,139.31799147834832,126.69180698040599,101.50698551021145,74.45973442181801,49.88895727645618,14.579461196778693,-19.97120176400106,-36.00826061152747,-48.55892122437436,-67.59227710020238,-78.71874790114254,-86.55517646586325,-105.50301042505069,-124.11755262049346,-137.00843405977028,-157.8861462832908,-176.76041765509254,-174.872569288421,-163.62093136963392,-150.86715701109478,-123.12368714510112,-85.48526451525784,-50.782150615641356,-6.531829224188519,50.23768920172181,98.17441020043022,135.45268593177255,169.89243601874665,186.06952788888722,181.99676320129487,180.73432729647635,179.81608129199313,163.8396071123667,145.47642500548451,130.5330572318865,102.61807487243405,68.20627319055839,43.00569552606218,14.82191886882484,-20.191071015024704,-43.14096798282308,-59.618437851026954,-87.07861166167349,-113.54472880696761,-131.26105709348437,-154.60496532117767,-177.1562126150386,-183.9679399633029,-188.89583617320451,-200.65004203656594,-207.4689611610824,-218.1575452824287,-243.66708872484523,-258.2462795800649,-244.83582032584314,-220.41665042756262,-187.4292016117319,-139.9895779862765,-96.46339580038895,-59.58078418483792,-9.547875049142228,40.208104049046376,63.78478271687131,74.72787875607978,88.98797941587152,97.54273656028653,105.01127141366015,118.13327252611954,114.43824608029209,86.37510571965005,60.160280649888215,42.814885568662056,21.309689028182238,0.5511552411560219,-17.41735860199601,-45.336573358789735,-73.94791544427926,-86.08037847595922,-95.05660618326206,-113.53549484024485,-130.9880400890804,-148.76702982185606,-174.19456860589295,-191.28965418424673,-192.93387632772922,-195.46379704160708,-194.8924371747689,-176.94585027950342,-156.09575019493772,-141.1053243913718,-115.24263515863362,-81.26638028493741,-54.4169120898991,-24.607434740694348,14.551754943111863,49.602417966633645,87.47847538446663,141.97724433736525,191.6154468812166,216.50804601935818,228.9467770034614,232.46461668917468,222.40067005329774,217.30328163903965,223.06722000961233,217.1003931726217,199.94163055595394,187.93872819891473,169.0945149146446,135.8840628690743,109.81336040270939,95.07175484015598,77.97434184678318,64.95891122141967,56.2160341618475,31.499138727961007,-2.147061172475384,-20.046169734506385,-28.974846022554082,-40.6020180423018,-43.97986799981882,-42.10905283527875,-47.36248773383572,-47.02213528040044,-35.387058127106044,-29.27564456200587,-21.257423775153434,8.751311454256532,48.28493048862414,82.5797553063641,119.0008565196542,152.21377671293843,173.2798020755964,199.09121772130177,234.61486721072123,255.83007244532845,257.0786644349421,250.82999572709093,233.690437820333,209.1996389952609,197.25599036765897,191.50013947229675,171.38827028493176,145.5280729561988,122.79996281051992,91.56197548619107,59.07882073574741,38.87958501573656,14.286972435637937,-22.25443652330697,-50.810203512981076,-71.69993785417715,-97.65457918832922,-116.99810818548013,-125.57300452839115,-140.3889904545702,-155.3720343997289,-153.20474213252592,-145.01730264556903,-139.15621284266814,-122.79154226076068,-102.7249281157644,-93.41235832246188,-77.23197246564122,-40.761733625171544,0.19965624474610344,43.183389529957616,92.93112255931162,126.56341473153155,133.4425303965554,136.55998442268907,141.05978909303218,135.6779377551459,131.2297363559118,130.5217576932788,113.26966813445027,84.40697230725124,65.49962450204657,50.46081696984258,32.30048646670869,21.424375526052216,6.995493041645094,-28.647985712909684,-68.41355354813301,-95.32149293347291,-119.5439304190961,-140.68839315812247,-151.79668946848642,-169.74804444175277,-201.0944606343113,-223.68217048370659,-232.7873468576801,-240.45350867032627,-238.07432395160336,-221.2390973800692,-206.1181063165828,-188.77629605151236,-154.30438193008285,-116.29831275743757,-87.15533739411809,-55.63313240467921,-24.461099609611196,-4.519434851202132,19.09797364984488,54.00611163063414,80.45425527480027,96.2553518039578,112.45698945530029,115.31687514278231,97.69978330399162,79.52268039110194,64.2095737139476,41.96911271337399,24.934113345170434,17.686153302059843,0.5797113615529641,-24.668654095761884,-40.086360267709914,-54.49993788561176,-77.59763498170885,-96.09601033171154,-112.11043536250821,-138.198764804576,-160.10297891876354,-168.9575896366596,-183.06970735105304,-201.34269374376663,-205.8322878636598,-203.13762114367955,-198.27668912413128,-175.5786740044789,-139.1744133945135,-104.82386332479848,-61.88059320165344,-4.462524698879751,48.1423669299305,93.8181105877012,143.1198556019852,182.28056097319376,201.93292060910665,217.28319139863154,227.17582034709602,218.8584378666926,206.39997608690882,200.21167712928138,183.59046003142333,156.32688685660224,132.54292302021784,102.63545486305063,62.87100534307279,33.46176212909029,12.793243629698296,-16.186437589546912,-44.179092275640215,-63.019897372213606,-86.13740090040717,-109.15388954641219,-117.56568570193052,-124.52571169114921,-138.71518417689316,-142.36245537254774,-136.30019295874092,-136.50134252319612,-132.01839662193888,-113.24277036425218,-93.94758967339945,-67.65514221204866,-12.123947971529947,68.49673400210462,165.66824512373034,281.00707157436455,386.8383862254384,444.04283953707017,456.2370027231122,444.0018786968416,410.98209931987526,370.2083183935509,334.024596213687,284.1963431588878,213.11995638217002,144.441098437155,81.43060106277477,8.662373515628275,-63.110965445473255,-121.41189172847662,-175.43836665740835,-219.72980125595757,-243.22450484396145,-265.41970661393344,-299.1076550574587,-326.334849889271,-344.47236752526004,-365.70848444190165,-379.5287426040887,-379.0716028023858,-379.7004301812443,-378.229375731328,-358.6475684064532,-330.0189057014078,-295.83259501899335,-233.85698942109252,-144.84956361867782,-51.464240745575886,45.90196328411282,145.27006446035224,224.4160262140469,284.58466265362244,341.4381237366192,381.10938887240354,392.862089431028,395.5820459344853,393.5447990698827,374.3352201008741,345.28434456166417,308.09757964018195,241.69354100332458,148.74701542724415,54.444862807954564,-38.42149201650655,-129.70614102381973,-200.88888597769653,-254.30999742304567,-306.9928370593444,-347.7882704602532,-367.3238928766309,-384.97201644390157,-405.5243069062617,-416.4833149852865,-424.304775769236,-430.9626670424525,-419.3247317167071,-396.9233228363201,-386.53522220779337,-376.41278261658795,-345.5053016019952,-295.7409599117131,-222.0240374122464,-119.30623861580827,-15.021823346143819,69.3604829745762,143.8738169976759,208.00358011812622,252.59637702963184,292.15232310073884,333.6630517653724,356.7591850363184,353.54149399814236,329.65156214068816,276.0884123396913,195.8708816319196,118.61730913941003,54.794390634258185,-6.725774840143972,-59.46383810873351,-98.77623953055593,-139.8630066144267,-179.4064275878109,-201.58681693234809,-215.2513506931345,-227.0981894870192,-224.9421808685647,-217.108819988545,-222.2088037542713,-228.89803878594438,-224.27455657806323,-217.12797847615315,-204.47865224804568,-178.82604760997341,-156.44104380474704,-140.94338825850906,-106.76806308440614,-48.52817934802157,18.98096474414769,99.73580020480954,192.53950828153512,273.6582040809394,339.91959439002324,402.3252414994084,444.68046332308217,456.63968004785556,457.9149656997452,448.8905329102074,411.4025473847901,355.39079406776375,294.53877763978477,221.72744819764543,148.66462991545353,97.19409855040338,54.11020074784187,4.441186769821128,-36.15854712366278,-64.26169012155484,-93.67204598901385,-117.71396884774995,-132.06848780418727,-153.27976555372896,-177.06736107954032,-184.57220074894826,-185.78133839574082,-190.62197109743155,-182.14160966875943,-159.3865708333011,-138.05389403879036,-111.50496826190924,-76.20356688903537,-49.11859358521082,-23.881399037824572,20.638891467851998,74.03315851468592,121.38408229580912,171.5105257060601,221.2068186183605,258.22738791493373,295.8179078813393,339.62860127927996,363.5025418916201,356.9056645704497,331.2590641487109,283.3539112542794,218.69327425420158,166.04383862829772,127.71417536988264,84.42597716689193,44.461673529567435,18.21444975849569,-8.25722755226479,-32.20567476145206,-38.47271265290497,-41.468187771882356,-53.748344839821414,-59.513187661180964,-58.76008027493469,-64.74907166064624,-61.95726038986413,-36.82349942659607,-4.7663023772605255,32.36275738424007,85.98718402446029,141.77407429102522,186.85305397674315,233.48992546262147,277.03214884627005,297.9598699959229,305.98784819624916,313.85642347712434,307.19554343722046,283.6843229414867,255.05953648777626,209.11701376910605,139.90845363207893,74.83607971629715,26.472615349605935,-16.477710429114946,-49.649201557435866,-72.30761368769478,-104.65998162595565,-142.95037085050285,-164.03882334957544,-175.380969550773,-191.39944143217855,-201.4090739815693,-206.20655031329224,-219.03092858815052,-227.73952991187315,-223.70039040693348,-225.95117057147473,-234.09248895331893,-225.97410501586737,-204.54656362047717,-178.76210473849545,-136.86659485353823,-82.06254438152266,-28.899364067613256,36.254244589630325,123.27172823232166,208.51698015892276,278.91294845589937,340.19607356278624,381.3467983613728,395.71837278811563,398.4349451586206,385.0082671043017,336.0399422014138,262.3340024498524,184.30448128247707,102.96134521937503,28.05695626062836,-24.913103992546397,-68.7539438208208,-116.55505185998878,-155.6858075282599,-186.1801115462793,-222.5316464004788,-255.71615071194233,-275.1704940745454,-291.9449668630025,-302.60749788422424,-294.5523244504038,-285.7652927323046,-290.88122578227507,-289.2677002542425,-270.7574458891007,-243.8759061362138,-199.12319650874286,-136.58879400928106,-83.57871503267495,-40.939922107854734,15.782372594855273,85.19368695824302,156.90160005677728,234.90347756951843,304.35620845399364,339.61195161044,347.7856297334504,342.1115724193795,311.4508788922997,259.0490530010982,206.7547264250598,155.0625602412058,100.60991982236085,55.858165478547534,13.693749080852234,-44.10542998365765,-102.94924605447137,-144.48197909721654,-179.4895466166199,-210.75698180511725,-229.36147161606974,-248.007933979564,-273.6016892389801,-287.80591399568067,-290.7987206154053,-299.08887822647216,-304.4537874054881,-298.2696550498357,-294.34676762971526,-289.9714124381426,-268.2006785621107,-237.33400883129661,-206.4363237654263,-163.07147367236084,-113.20052247478696,-76.68589581004599,-43.274886817529556,0.14451128186864004,39.533050032178515,72.62367716475121,109.31930235536689,133.17415293141005,132.34023351564593,127.20867894286116,123.22679507508093,105.96768931281218,85.60009765128777,73.41156685691811,52.793061948618245,20.129261792660536,-10.361541787017616,-44.17212848953532,-83.26551228993884,-106.1850725782548,-113.21296122035773,-127.970976470306,-150.2548054675327,-171.1508030050631,-197.34303710474646,-216.97304442385857,-209.4614317637337,-190.6032414529056,-177.24255550090805,-154.40738622117692,-120.33809882048385,-87.76648388694377,-44.00868661958525,15.023567551611325,62.053650805824944,95.42425438949853,137.73984226431287,179.189895116836,202.72493004836605,218.40655799635613,224.2777268200256,208.9107705312691,194.15770341287526,197.43485542407643,194.50960477052476,171.18335727998644,140.39591310235045,101.36594687288019,55.99398035166843,29.32883832873412,22.762158112548413,9.426073244732446,-13.79235475076024,-37.77682587850883,-71.14649715179424,-107.36899734844937,-123.89927535869177,-128.26136323557006,-140.6624422914146,-160.51705951178207,-186.9099498656775,-213.56531838356238,-213.28112802999442,-177.2273768366843,-124.84943941615839,-69.358326682666,-20.39118346869838,15.458010535718888,54.74644113529439,107.99509163437747,154.8617618610878,185.65710353315038,209.88058999674354,218.56405572343408,204.95060223484566,188.39754359453931,172.7054656024741,144.45703661989296,116.07948242299116,99.19463355997294,74.62213660386195,40.20510510128862,16.733827485158468,-3.7936783529047204,-35.86748993345847,-63.40073469651875,-80.16315429048889,-98.08589405973648,-107.61798512196832,-102.98237345974457,-107.6398020324058,-125.0992861468483,-130.76961576898037,-122.95081630818649,-112.41464506156237,-91.73039566635198,-66.02112535197782,-53.25508652170244,-40.57978696817395,-8.35305629607456,34.784970773266366,85.23519573322966,147.75869280344847,200.85496550793704,226.38660470906513,240.74166885269722,253.26293492760277,253.5816802050038,247.28784588350663,239.4197823318386,213.78131247365735,173.19372631618955,140.41358984276246,110.46236314100983,68.75846776742101,26.5248547250754,-10.946214557006343,-53.05139099200918,-88.0467639342396,-104.84161587782883,-121.72902910404142,-145.56124602831608,-162.9882809148064,-180.2406058964287,-203.01017164522898,-212.54049164151874,-209.49405961108383,-214.21056328283336,-216.4866708435618,-198.83484203290374,-172.49364906417003,-141.65011764813835,-99.77443347048836,-65.45880162743424,-48.00926449545109,-17.991728279728935,39.18176890680941,102.12666834790558,149.4799274082802,172.06007042536888,170.3486457547191,154.51744252445712,140.43937384523113,136.62695171172624,127.54274579005197,97.86884237398016,64.71835205360661,42.9728960467058,18.3886216081063,-10.429686855924947,-28.20097004717006,-44.196006251443926,-68.84024540860409,-86.75094477474931,-98.50386562232852,-123.5488262513375,-153.11685504987932,-167.9027550017604,-174.69151406199464,-176.05111238578223,-161.5178454283126,-147.06702986855197,-150.36978659725705,-149.76312474696695,-127.20209934927685,-92.82990221955701,-46.67554392309295,12.815898603219086,66.89834980861653,116.14823526820405,180.8783958176458,247.94968460336335,292.1011357442336,319.02212709509524,333.0787382110989,329.4815052382849,326.30697224422016,333.3088871431466,326.3917947445039,293.6956184609958,247.5539534845941,191.1864913420728,132.19405580381675,93.16881298479286,69.40475586454669,35.102995100791645,-5.713897886827093,-38.01667281820451,-69.12407986301173,-97.44796022154208,-109.48568048916849,-117.37167258318412,-133.38144200195904,-141.6401300512514,-140.8723306033437,-147.77942162542448,-151.22648754729113,-134.81657227113564,-108.12275746825375,-68.32884124711366,1.9269241809695998,89.74026193562389,172.99961301539787,252.52416246251246,319.70100696616754,357.52316136264466,380.62261736128966,406.71575507549454,423.6824421219457,427.96790122649634,430.6981884698911,419.2046095397013,378.34486554674265,319.47894682765167,246.42298779599156,151.92893681992172,55.195027593872354,-23.461027745793587,-94.80634458254313,-161.3643417436291,-208.61666739913193,-245.83292794210638,-285.35536963313507,-312.5297062713056,-326.6222440871642,-347.28163984832094,-366.6788978813235,-368.59367914077404,-363.69465719106523,-350.30356566543287,-308.372991377031,-249.39793534664017,-195.47374260840763,-139.4968226012303,-82.43426747549782,-42.7357486836347,-11.606221580117595,25.5271709850179,53.91866868522282,71.06402229605196,96.68156671298874,125.6426438827637,144.22427490071027,162.96788111214283,179.9408935993004,175.66610341804005,159.11911966985804,146.88398233379775,128.62973960093242,104.55268782324217,91.57752329351747,79.34337877928715,51.47772664863729,20.467542234382556,-9.756967246366408,-52.209752740421074,-97.01144246864682,-133.09352756327203,-174.70330476351626,-221.21368058458543,-252.56330167633354,-270.92192901704686,-286.2373103225789,-289.44152544080583,-282.15524124474297,-281.8506152179927,-284.5465209261188,-279.3818139941124,-276.0199386178765,-272.3722871641782,-250.8898237306687,-222.0321781280204,-205.0057577188745,-189.4861228414918,-167.15977350944115,-144.83167070636563,-112.36826711898507,-64.57380724660041,-24.949408062373486,0.2432885700802494,27.87039947663109,49.262104677509065,48.07431799078464,36.01771285341733,20.677006444552624,-3.298865886419451,-20.825748116152404,-21.472732679112802,-26.896956362559933,-43.92244685907333,-53.51115901221345,-59.88747585087075,-77.33306989091675,-95.16247521956498,-110.33373896561291,-135.67448593231583,-158.80092562973303,-163.20651892107648,-165.38532420365522,-176.01253018474105,-182.34326123464217,-189.0350538589445,-206.06262054936624,-218.01099375448592,-219.98632022219726,-227.28850163022042,-230.6056745424076,-209.48305414348945,-167.86908679529236,-107.85124736144081,-24.853780321433323,57.040852223029574,111.2970799512818,146.86870116490672,173.52598215926247,185.81347124933794,195.07040272928373,211.21214701509868,217.27557803832607,209.94734518067258,207.09397114665632,202.59570638208933,182.80911664158396,160.2315648799908,139.09189930478976,103.30928726365192,52.60037640277283,-8.806667373319584,-89.59791631422533,-174.10503661426063,-224.1309582942526,-233.74662257919402,-224.36682927557803,-205.99068147483808,-189.70183151967314,-189.21095868628757,-190.21296347874568,-175.45835265754735,-158.02558746322637,-143.88463787103458,-117.54735828885813,-83.20400811668503,-55.19076014129111,-25.44571758605057,8.21434950321127,31.519941922249938,52.9464914204567,88.09604412397809,123.37051403829545,150.17018358788465,179.93606148929825,203.090599826277,204.7824575076457,200.98473141322475,200.7340832148955,190.03910307549816,174.73891706237467,168.4085835095885,159.99631569853173,146.81462461057097,143.01638683368407,137.57046570653472,113.4710354407803,86.64012671352872,69.27712181799596,50.32388116283799,33.96626567809041,28.77536864019021,18.689317035573634,-1.1747185928398522,-12.48056766130587,-16.783561260365364,-23.947892627804123,-18.94901524713739,3.2983422012112085,24.683708939969208,47.23688175049687,80.63130215924666,108.81107387982436,126.17671575941507,150.56208486659307,178.39299594738316,196.89230929796074,218.84301586842236,246.31513119977214,257.7549222748999,255.75570707541794,254.73244220776505,243.42710917278973,220.75671542658168,207.98797062624556,201.08974360237897,184.093796464869,166.58640564312108,151.76417316786635,125.5958418137,97.54925561396692,82.93698979864449,67.60747052908674,45.225720173519214,31.54714501389286,20.75092420275295,-0.8823830027486741,-19.54040976208268,-28.55353452783035,-41.64383243955689,-51.82442812465181,-46.13754485963696,-37.76248534162916,-29.346120392859916,-1.7784611836730093,38.65761512543603,71.38408341510903,101.5082113350914,132.01970973650978,150.36828710197761,166.15860135720033,193.4849026175617,216.39510356091003,228.05877641089398,245.9751945641228,265.5406157844596,270.86095617146157,269.98435574309434,262.64785081338596,233.06251097391979,194.82088240697144,167.1318169023395,130.80026738212402,72.46882617388587,10.974751681656473,-47.2366502522697,-101.04656987903653,-127.84193497016905,-129.1814474621335,-139.3740415978969,-162.65729190152186,-179.54120124025025,-193.00250013719065,-203.9645657862204,-198.74104169777672,-187.8841496914176,-188.5197478910447,-186.31304676082726,-170.06653187002107,-149.87951227896798,-118.44685651684739,-64.5344357881905,-8.540330068925648,33.242348160368216,68.86082188583865,94.48370010104072,106.00391565472313,124.22761430705968,153.77160464743258,171.24661958332703,172.69404021640935,167.55605466660353,147.8017493762762,116.8035695262814,95.97223394644499,81.5991136418843,61.477148815905466,51.2152660106543,55.343727046325576,50.41213027858275,33.546352310109015,15.650291768103727,-14.504136859538225,-55.554432956273864,-81.62985830572141,-95.21572200824659,-115.70408787284923,-135.28493966001324,-150.60017889483933,-176.32127964632622,-201.11888115409096,-204.41818157043429,-196.03443861090238,-183.8830005864532,-158.70094050782308,-129.8478574641722,-108.68525544461795,-79.46182320580482,-39.15156540322663,-7.821745070901986,17.589025126800646,48.614248681013514,70.10386766177017,76.19251320993314,83.60975646060906,87.93383228305463,76.08185661830922,62.01096303547219,52.462973339063836,31.163021606764794,2.5642088888658314,-18.662067930555303,-45.82602113975964,-85.41842848011427,-118.744621898667,-150.57447519780337,-200.66435530520957,-258.55039011619783,-311.1157376441182,-360.3108069252866,-387.67181084087036,-378.6877100494702,-362.40411980347943,-360.6691039893691,-357.1721958921014,-346.9211654222256,-338.24034754529987,-319.07070624079773,-286.4419741446052,-256.57576921894514,-220.21011434450682,-161.60844748137086,-100.65513217309902,-53.67541912769877,-9.971519398836488,28.243169218034357,53.89061248615199,82.80497333174982,116.58987658211566,132.32921124715398,132.01821764600479,135.1449627560892,139.79991818595425,147.5419267593157,172.82304064500354,199.5657297990466,200.09537729715768,182.09662597129704,153.65705568328912,99.36778075261151,26.340775461487972,-40.26854964183918,-97.54494638164121,-138.59367545248782,-145.05677158977713,-136.46529307929205,-147.19512563597866,-169.51293940491283,-185.12773773298937,-195.38157199575252,-190.20954274952325,-162.1150719897125,-136.05557761019207,-124.64780059152834,-107.62686191714894,-80.97816503972669,-53.91111902707381,-14.714786265758741,37.39435830522952,80.33394446873935,115.54056842124791,155.83027880124237,187.224967210611,202.54658799193206,217.4897487154011,228.55460621640896,223.9607049015092,218.08252837744914,218.3818657777788,211.60586991560794,205.41317655110717,213.8187231305989,219.27317821859342,207.0337174251291,186.07987968526066,153.59144967390148,106.54235450933044,69.87497906731154,53.819110006353064,36.58255308562179,14.708052761230048,-1.4775783565462919,-23.369298418167386,-52.396467728652226,-68.69904999949941,-77.61546140539727,-95.68332268435691,-109.55743144302895,-109.46776074215028,-108.29215121588412,-100.97402996273907,-76.08505940633736,-50.73595048064877,-34.6956013534885,-13.208340491737125,11.914294300804581,31.94530268346628,60.57358980434443,98.95373158179272,124.5054749990246,136.5945676412871,148.28954296346734,150.14543809793972,139.5770833616525,135.23945577178623,134.58573718138564,124.30653269752364,116.32389249838988,113.68051172166932,95.35214952622044,64.13644837154482,39.04714664913524,13.873759298312283,-15.525776124900718,-32.79094482587653,-39.726518450602896,-47.42537341852222,-43.58860058352923,-27.173288558246785,-21.401831448736903,-24.237020828805647,-17.283907305761353,-8.33151872931412,-4.702262868534583,3.5068532732635664,8.189843393502864,-1.9968184732792675,-9.98597753818501,-8.26976844647443,-14.405994376799002,-24.68875461464184,-22.70246465478108,-20.901813945398423,-32.03442950017875,-45.491164276102765,-62.47612158204211,-88.52343032481025,-103.57462210408472,-100.69554211045674,-103.16883428351241,-114.07728610927822,-119.28776279209723,-126.04046737844574,-137.21705858318583,-135.62884143242394,-123.1992027624949,-112.8398856938705,-94.10280202457116,-64.37089326699562,-44.39037066270281,-32.20781763788403,-10.249542389292815,13.209504743046022,30.325818360186762,50.9147734683391,65.27190695396433,58.42439155788462,46.84313702172121,42.767277998996654,32.73567663977987,17.889583069003756,8.910810027872206,-5.834896153734126,-29.194451236256914,-41.524136682340554,-46.600402295540825,-62.73615651989107,-81.22512200252484,-94.74035724183948,-115.3787684168446,-134.77734740616012,-135.8960908130104,-132.88771577654023,-138.80593910085716,-142.27655519429265,-147.28024175580157,-165.988559145823,-180.26837988676738,-175.4891727798327,-165.1737553335705,-148.02001783260016,-112.10198689409795,-72.60687829248725,-39.46187718862646,2.375476275345882,47.57095316049404,78.98794751635562,108.93610351161757,145.48452815598563,170.69254585206824,184.78361753175642,199.5843011084466,200.99656492864858,182.73969583404667,165.85792488447498,152.2248811759403,129.11514950676693,107.6764570180735,93.22565053831717,68.11140833268614,36.89848466740797,18.501581907569395,3.365098221989606,-18.207722713162777,-34.59547406900279,-51.73986446738108,-82.14404800301274,-106.23355594775724,-110.31391011851787,-112.18322615316539,-114.57689744098775,-107.9749711922157,-109.14850986245366,-124.81771063704454,-130.07354780145133,-120.90803114695876,-110.90510369581457,-88.25928663662964,-47.5201375436332,-9.153048271335123,27.89636198479413,77.38957320380851,122.39794258581061,149.37308896753015,173.7798626085823,196.89371805653104,207.9050010200251,218.81753789192402,233.97274610158905,233.433625179248,217.64299685014214,201.80026564037445,178.19501479889448,144.69838882053324,121.85130529348483,108.58008226117104,86.72005750339608,60.9189383918962,34.93900304284763,-2.8839557171162387,-39.84377154926151,-54.55690558051059,-61.36638653721783,-75.26359717317038,-83.69197172860315,-87.88593283296255,-99.95071461291923,-106.63983833234666,-100.59396432872276,-97.1167422829585,-88.25558137252547,-54.69724807098994,-11.980849285665311,21.725756283157946,54.65136449147979,84.42617560115488,101.7367509843992,122.49419876306045,152.97311514250555,170.9291944257351,174.7255942064703,180.44277440174892,178.7330109875203,161.50001116559113,144.39522066922828,126.24209099345943,95.53045120339819,69.12105385697319,58.49130498448736,45.145235872347236,24.779358156701548,7.584297480921087,-17.116327512682115,-52.56847019058299,-76.52984609512849,-86.73416808782835,-99.40898441106756,-109.38599632174325,-113.05986152197154,-125.54030102062966,-140.77121045444989,-140.12197170493437,-132.28402788696042,-124.80228675599582,-103.68326752645919,-72.97379375969942,-48.17372443214197,-19.284627082970413,19.816035128398457,52.408957859028824,79.81035443932797,114.12254273087274,140.80089851408744,149.76172857086198,157.7673233037206,166.025821322394,160.47049113291322,149.31028500328918,138.1476654890116,111.45891755330486,75.61060429822393,52.33254565581669,33.727668414449845,9.339262156956611,-8.74211058718206,-24.865049373155834,-52.891552713995495,-78.36577074936554,-92.33971717301856,-112.48979284575873,-137.8705657074554,-152.55035651697457,-165.04953412915594,-181.57467437899015,-186.44406002290506,-184.23291239919607,-192.10078947002,-195.3182518379001,-178.7248149349616,-156.60339365898307,-131.0921783118764,-91.49149566051955,-51.59592317880913,-20.889039626232073,16.552234257102015,58.21760835235357,86.95826235747342,111.14037916347208,136.7541883572943,146.15097825711902,139.99911931699882,135.04160141654324,126.12234589845923,109.67131262336144,99.83063455373043,88.9065787000156,58.93140312579924,24.677320549123067,1.667483427376646,-21.15583966130281,-42.38665048640799,-51.844485156612066,-65.3157909948635,-91.78673661400182,-113.22592470028324,-129.15949643869422,-151.96401788284282,-168.21536620978588,-169.7487257221821,-174.85933815530376,-183.92239445457034,-182.45484059494893,-179.58347237347746,-179.65517495717887,-163.2730475136976,-132.0290238922758,-103.55932813666888,-69.81580838250449,-25.052252106067215,13.429048248095329,47.56286341109373,91.26256546906117,130.30553421870974,153.15174604626688,172.98354775907723,186.3079231725832,179.1054057910013,165.50383139657967,156.5096605419492,136.99490244413784,109.546286997909,91.27589993464464,71.77581616870015,43.38469332223279,25.398152704642534,15.966540639606599,-5.051416184296302,-29.025136023840005,-46.34616375285635,-71.73759501654528,-100.79077587430386,-115.11445858885673,-125.65134643491085,-142.73059543258594,-151.43353273647418,-153.8744641191721,-164.85860653943672,-171.69051569580287,-162.87239892657786,-151.23902083909275,-134.96731912133032,-101.82827075172285,-65.26363676143743,-35.47734077334803,1.5594373772747119,43.20058348037873,73.78297526913562,102.55624430355924,136.1094838497605,157.36975422433665,165.5476927783028,173.41704063462763,172.75305211347248,160.3929968794767,154.50951011292346,152.34059261425347,134.75238458040127,109.52124775916167,88.74794265110611,62.89098047182002,36.22426786776852,23.206183841217126,9.41243280441088,-17.817019906016007,-42.06720613654177,-60.290552388877785,-84.27611496667707,-102.59241426654057,-107.01907048387996,-115.86894404357338,-131.29757224188938,-137.30981262114219,-139.96356984720333,-144.50170093778917,-133.99180866362744,-111.45472048460341,-94.77205629107911,-72.80408297237398,-35.269778838808016,0.6327937976413196,32.97349693142674,73.02319780134994,106.37151516843807,123.58222103467645,141.80943064041588,159.26825242251843,159.83665225802034,155.65556591730427,157.83027029674776,151.21490848169185,135.71808454754478,125.24321302402748,110.4307545121053,85.74951930191753,69.29032890253359,59.47233236680832,38.00457320185522,12.5512006780739,-5.707442931927039,-26.771568682248194,-47.58337105307722,-54.83429514170116,-61.32706219877271,-78.75662845482361,-92.00766456994208,-99.3509368652046,-114.88240849032654,-128.02294162345746,-126.8204718040185,-124.36849954981932,-119.71134140474271,-98.16905875429939,-70.77757740806848,-47.32464540419486,-13.435140033475463,26.271495363663828,51.124049150079564,69.14730321527725,92.78168347942218,111.02424515690058,124.66428705598017,143.53664516051137,151.0693964615284,137.94595594435282,127.41069283283827,125.3915755985606,115.33619803580437,102.08894295334034,91.45384161325734,68.93082636342322,39.885521431311375,23.891487541694254,11.248310403031919,-9.46276972113294,-23.984719439538157,-33.28170306390272,-53.47772020490942,-73.92395486935376,-82.5156060465868,-93.00168072322187,-106.35257230496407,-110.51342151973171,-117.11141150272164,-132.00867162793327,-132.31987893330617,-114.0516455368184,-95.31430870446165,-72.97888352921774,-42.8189665897703,-20.44155361889288,-1.9342601926746914,30.274097073141775,64.68926082368826,87.43796812698838,109.26230585451522,128.14427891478368,130.1054464495968,126.39767759500921,127.11076435625552,117.24510136829433,96.90271210519198,82.83691913781439,69.54583471453424,50.07029289901009,37.8771254025104,28.878931782679977,4.2701051019972525,-25.67253077438283,-45.31000481109912,-64.32776079400755,-82.4925358589974,-88.1026569764189,-94.03290234416292,-110.70631388640808,-121.54581508713666,-123.76791373723108,-130.48024736586606,-132.93038773575685,-123.84019084871643,-119.12594260848273,-117.64149103185616,-101.92981922297054,-77.92095835804105,-53.44274194582779,-17.86393296337271,20.90780847896013,42.63341485992073,57.201782291353766,78.15784799223007,93.28482778567898,102.21646924848434,116.88983422221686,123.29839574562251,111.88586184864604,103.10239066854167,99.51765354084573,84.33752617314195,66.05014371930632,53.719583307083866,33.16797128428472,8.87278519957796,-1.1862038454592896,-10.234306853510875,-32.55737771280401,-52.296199901665005,-66.03100811189846,-86.51999951380094,-101.62609023041168,-100.70523403319777,-101.91853268925772,-108.08555212940348,-104.15987080732451,-100.9314383394036,-108.50064267606949,-106.22901305206403,-87.51488351280913,-67.29522184275885,-40.50104888122888,-3.4279381994247924,23.722380638252428,40.0061127862771,62.377965092684256,82.59118901176105,92.12487476532797,106.25544776860282,122.84368777162496,123.9746544805141,117.15622242745623,110.78693800041657,93.66188560866789,75.40212881301849,75.27073185512992,77.07475916942569,63.21788906176251,45.73761812569136,25.921537422441,-5.297929938757381,-30.52905593479825,-38.35248433114775,-49.284611589212695,-67.51554998914499,-76.43838405943134,-84.30684245574007,-101.58215061067855,-111.21853924875742,-110.38948852655471,-115.22235311777263,-117.16995300399411,-104.5647589844975,-91.61785754862268,-79.07266408013598,-50.427185563096444,-15.71957928262017,10.307374302407,39.09216787786333,69.64539179001615,85.68317646554985,96.72690331109686,113.25019775109818,120.41332551252178,117.99560258914653,120.75958795064263,118.8825295538956,103.22897063256706,90.44365943986287,81.39205620492055,59.69993271146704,34.07784226362581,15.970839141417473,-6.901019924255687,-32.923193011576004,-46.9231596022722,-60.23175516751023,-83.05125449425033,-96.29611280849858,-96.61851443749948,-101.99952186335395,-107.60486185341401,-105.46632882521521,-109.66516852033817,-116.61130256418792,-106.24420543224501,-87.02358931608033,-71.35943134313064,-46.23983186425809,-13.543291045633321,8.520002799946363,27.838143986511053,54.07963565206221,72.28207329027549,82.7207125371621,99.89286237439214,111.82666187747462,107.96293008036203,106.64065476424094,111.75056527112994,107.83383701173895,100.74030527529567,95.68018576826191,75.61369145548952,45.42889123545116,29.689793342556534,23.168068192308606,10.84491230266957,-0.03583115012353977,-11.859560363100892,-37.81214202279654,-63.603393758309075,-74.07089276000676,-84.38563629276264,-99.02148282381893,-103.76220907388992,-106.13266036698901,-115.45356356138831,-116.91011222402824,-110.00536082781265,-109.99208405436255,-106.57266252720743,-87.00099206651839,-63.89396503494212,-38.64416384592625,-0.396078815590279,36.7214051696649,59.717786072302395,82.47456726181892,105.81698958808215,116.10405173383032,123.98907952643953,139.14998515631885,145.57304076641452,141.36432453497574,139.66529860768864,130.5842977619235,105.53071420436646,82.21742099547305,65.31378695928834,42.699939585865536,23.569115534994026,15.736042660675945,0.4815434174973072,-25.851572172332617,-46.13510029136421,-64.10008594090354,-87.13994895338968,-101.51424540389107,-108.65372048235669,-125.1839850895115,-140.03674998978676,-137.91258526876595,-132.46847018839628,-128.74670302037106,-115.22318790905092,-103.00609794545971,-102.17908313806561,-92.17169790345906,-65.2677184360337,-36.161458751469254,-1.007187473818206,43.87197834352116,77.68265716234568,96.89673125442393,119.02439832475915,138.0056471619868,142.57703067454347,145.2549311552628,147.5717931909051,136.60350000917614,122.94161486251117,117.36090022082723,103.4398092454867,78.31064568469426,58.21628308327898,36.86426645026117,6.380458759628053,-16.062851568370515,-29.504293468220745,-51.83818455121992,-74.54106143056238,-84.20309616441904,-93.71796539507592,-105.27356032546814,-106.36280101707287,-109.4469945622443,-126.54412072278654,-138.57143000516737,-137.2047236105903,-135.00855655929996,-125.75159280440604,-101.46876190366444,-78.20650453942896,-59.42221927312008,-31.367535575366052,-2.507294027880569,17.00710911675887,42.217437484511066,73.73499871790018,93.17345837762794,105.63539377367034,120.80511256336501,125.98476849146017,122.67146255043123,127.38781605848303,129.3263985016854,115.34511605000583,101.17750067816252,90.04086345708298,67.4935217515726,44.736098791476095,34.905709143743515,22.142228549579848,1.872368485038109,-12.350613916136089,-29.03385708134857,-57.37791123316282,-80.02576508241864,-93.84379386419535,-114.85823352140625,-134.71320129744447,-139.955006154587,-141.75123265552492,-141.09733551538952,-126.03474007717335,-110.47278615718987,-108.31776889191552,-101.72288956058907,-82.21369442134004,-61.393473637819014,-32.48333534988257,10.019126740851268,45.659056138474504,70.12625224389193,99.47897353080384,124.88232560869541,133.11320205242208,139.2366381782567,148.21965249292882,146.257437500045,140.8464670719474,140.54816062330065,128.6862534785882,104.7076485310892,87.83793813643268,71.84957532399781,45.30801168272863,23.428677668684642,9.555225602393552,-12.584237786569824,-35.58210501177094,-47.70930048509556,-63.76189883945979,-85.5584776644857,-96.01482596762172,-103.6681080326657,-121.20934438281388,-131.66659623927734,-129.21496307907464,-130.3713891248908,-129.56875254616662,-116.12262991591558,-104.8826965701644,-96.22896695114676,-70.28887997313907,-34.746488042452846,-6.229933252135924,24.55231957002819,57.64756716872461,77.84272136838953,95.05000930593673,121.3453385677859,140.00162855695967,144.83782627720228,149.8456880561305,149.58078314547623,135.63536333064715,123.2743403690255,114.67389674971562,94.47957877095025,71.86365548845274,59.99492965820812,44.916197666862374,22.833807893294,6.833280370755293,-12.945505232779713,-46.83604672263225,-76.24026878259674,-94.54635436612588,-114.36321763586483,-127.07287191500711,-125.1670014695222,-129.10540568431392,-142.37089834810112,-144.70129752472286,-139.16895343221483,-135.1623293952654,-119.49722733132845,-93.82466794211783,-75.68384290034885,-54.73282941816593,-18.23193546611814,15.925791744013878,40.37603409512829,67.75986765040392,90.37317417059708,99.75817429677778,112.9857095116999,131.94614763453836,139.71639023796016,143.90884864816832,153.80344748409942,150.96457677347058,131.99790417656249,115.14847906593215,95.71218292404353,65.6155142901855,41.850938509461045,26.47781265592615,2.933422046330721,-20.30247473895816,-30.868390046323693,-43.72018698811635,-63.77047124159148,-76.7300073221443,-88.71147179480353,-109.94600080183116,-126.28265436025094,-135.55310239479545,-153.37499452094326,-168.9693508660689,-165.12627982235898,-153.04269945173084,-136.376123687553,-104.2149220955196,-70.33865036409469,-48.196092894877836,-20.853473282342687,15.444755891432964,43.544476461223,69.44646679923116,102.52920615466715,125.65313847482945,134.42811150244788,143.51469018752314,144.95400046041118,129.3302279513133,115.65491176819084,110.91060918755336,100.94025219402577,91.73340595539644,91.04909373971965,80.3595890480562,56.03800317427182,36.49155848573839,16.528166519377994,-13.773160659773755,-37.56380257087987,-51.28895296126697,-71.35642208778795,-89.20754006187191,-92.48133817444136,-97.61818782248804,-108.75367359434566,-109.9563727592063,-110.38603115244824,-123.40675833867802,-132.62725824713752,-131.09959307198469,-130.3459367879794,-118.08058128274175,-80.418869700186,-36.752746611983696,0.6768639039362041,40.3544318340961,72.84540493681577,89.4845085169829,108.91112225779618,134.55932330411113,146.11991312990168,146.53470682748917,149.1539121573422,144.42132529316254,131.48225937809138,125.49250157775363,117.51878212914704,95.1642413133677,75.05485963003089,63.26129920541002,44.18436309237714,23.135018474637903,10.564342085999964,-8.505863001688116,-37.889664498710005,-61.85724333613235,-85.60432905385812,-116.09197972500431,-134.66879296054887,-138.05269555049225,-144.67936729576184,-150.88105793327097,-147.49872397067278,-147.3716111763712,-149.19599336302713,-134.72650136283946,-111.40839915220522,-91.84281830545831,-63.52700931866341,-26.34417712188333,2.285448506848957,29.820716946597077,67.06735839426653,96.41823818270805,111.89663386938726,128.49878092470215,139.59656451745403,134.55578390706953,128.06907877878803,121.90336286252789,100.08660245174909,74.26106442438709,62.59642623412869,53.280952488324324,40.253616394821876,34.216322318944066,25.092575562441137,1.653930459944088,-19.648476542011128,-33.85988805962433,-55.87032030958134,-77.80744212206582,-86.76011461673993,-96.22251690822314,-109.70416814413034,-112.64743584484182,-113.2594647838244,-123.15961284800433,-126.21108512817304,-117.09556639966445,-110.58285457973184,-98.94699334287773,-70.4454294698748,-40.937638727257145,-14.687707042542591,23.587689903320154,63.803202261493254,89.55418710195325,112.7424806751265,136.44815029074124,145.05131596657463,147.17919990544755,156.80183337881738,158.6571828407829,147.10560483513117,137.75281556614578,124.52677916226096,97.4243598157613,74.34052648042898,61.33954065135463,41.52671915044661,19.69044396785602,7.4919783209499915,-9.911127053627274,-36.70256579622044,-55.92701227904442,-73.34624730679192,-99.18806033557011,-115.53652973632249,-117.66307846067353,-124.76504698316724,-133.20639895521708,-131.4330338599874,-132.04590923778892,-134.04916749752238,-116.73780288289731,-87.60264610376974,-63.92243903516301,-35.77624018207146,-1.3818823583933,23.426939670988766,46.564559722804155,79.84925655651048,106.70691645779206,121.44462458655806,139.49663384060437,153.6578088784555,150.22104746607286,142.54136825592434,136.07832702235197,118.12195564371959,97.9136050603523,88.15112263431193,72.74728401110755,46.33788382452701,27.027386994191943,11.126319136412107,-14.03645199025325,-35.68282587167202,-50.28944160857874,-73.58608655014284,-96.498184981738,-103.56400463247914,-109.23095452129438,-119.50497778091346,-119.13438255762868,-115.3179415711935,-122.01251699966849,-126.26082786950388,-123.07277876084282,-123.76968835570958,-115.31515821675441,-82.61611246831605,-44.58509174513152,-14.968368755355751,15.63912412266366,42.56197852933561,59.215244362032365,82.5713839361882,113.79797994630533,129.58719369111617,131.0390746684086,132.99666088315178,127.95501403276089,115.35826208022141,111.1850233637008,107.32764917937328,88.76929398525489,69.23231622308535,55.09003580219708,31.632443081346906,5.398128199779297,-10.364611165915655,-28.89912913817912,-53.939116980303346,-68.5889918323115,-78.5564397669558,-97.16456929519913,-111.16834152680879,-115.59038282131047,-125.58363220004118,-134.9322212444248,-131.28511095261052,-129.07183430386394,-133.19280663500325,-126.20826126989255,-111.06834504440678,-99.03848331775993,-77.52968607328452,-44.323215765682505,-17.568129996018353,7.226278008056514,40.597677451433164,65.8841659297115,77.88216073505713,94.17243217670344,110.65117318197125,116.00420431035043,122.5382204661814,129.66325476472772,117.98825477724989,96.17705809921083,83.48260997797112,71.99632896623929,59.42937604262505,59.3381380925314,59.82890424231401,42.910610223945,23.10536062268152,11.682673587383842,-1.0038017756985487,-7.62204338670154,1.6138358397799548,9.048916491280178,8.380457084216161,16.703113573954514,29.270845971039293,30.848524891022592,30.834500561900036,32.744001967310346,22.961373886260503,10.411958905128158,9.64519441897266,6.241540449657884,-5.724933855027428,-9.871757214337197,-11.959289522192048,-26.076692100751867,-39.67885453863133,-47.75060908811161,-63.10861957464068,-76.37263282750867,-74.7708802128033,-74.99180656646017,-85.28961456110332,-90.78543952850038,-94.45723292265913,-105.57737862609757,-108.6425634677496,-99.40722659680628,-96.59550162450573,-95.78912352932548,-82.35313921110767,-68.03574667939121,-56.46514457493879,-30.558126752751917,2.9586149831599418,27.03470038816721,50.41226852214608,74.21950484191711,80.64066945498206,77.53867656732196,83.6418234049789,88.85678984775791,86.12853069367367,87.50536699736983,84.86883950468317,65.3490501798129,47.342366059912074,40.56830340557618,26.275304055152255,3.6090236176477166,-16.743030731992516,-44.138035504503165,-74.23041616700588,-83.48031224395328,-79.9468760732463,-87.55756717994703,-101.5567576612514,-115.3128114742817,-135.05859401640595,-147.94759738624165,-142.01440667398526,-136.22300513324646,-139.08670340286693,-132.82954432014088,-118.7372893034907,-108.73766601517119,-90.81588953505401,-60.38558835143525,-32.50878791112488,-0.10347954473165633,49.74210610057135,98.41283458012008,133.44101284498072,166.17167991144674,188.75186344416656,188.28337369456804,183.95362510254324,187.16053501843984,182.26643245043817,173.1155071945238,172.8302557059003,166.70132546347907,147.389448048808,129.67637021930813,106.48552351804084,64.60080745423252,23.85827946268411,-1.6738399468392515,-25.61716821421884,-45.88786547317959,-52.79902676982908,-63.6313387845013,-86.36794641539464,-103.27609998738765,-116.76351075206864,-138.40493016596312,-152.14305098184158,-150.63536148818744,-151.42739177688944,-151.54305241157329,-137.1809242287175,-118.87231138747119,-99.45241133323657,-62.94330239581091,-18.401992156292252,15.058572521326834,47.18214406710929,83.39871238449066,109.47512414170885,132.0259146836886,163.46123674252354,187.85029529822765,197.2918904374754,204.69853553355998,201.45534766627648,175.16551730815212,147.03086890704074,131.7250864464051,116.53225422617854,102.78896662020873,95.64053936117196,75.06239009382618,37.41271114764008,7.973380683188243,-11.62083933392883,-36.16646085509118,-57.3085492196916,-71.83034789854868,-95.14306755009827,-118.41965600236091,-122.65642326790172,-121.45576918202785,-127.36664085441825,-128.91467929048238,-130.93102090583068,-143.33398272548217,-145.19425743017845,-124.96312798464221,-100.9751136727421,-74.25853090084604,-35.81604230941554,-0.973532057823908,25.96546305705327,62.814982009769,101.52573686031103,123.00322430727678,138.589373347381,157.0308755533421,166.44077772283114,172.44535850579632,183.98876511347572,181.36553711173468,156.61861183532014,130.82791569015754,106.96613368530417,76.04673367532864,51.84541339920503,39.089829569136775,19.326307092063125,-5.539063403476733,-22.683998438818417,-43.901062330420984,-73.11895556538931,-91.36711255504511,-101.62599469867888,-119.2594799940566,-133.45091161278327,-138.29285531906365,-149.44531967370372,-162.02428203329325,-160.89534546160252,-156.70107612397098,-152.84728682760945,-131.91764747124165,-100.7611920043913,-77.2030625951215,-50.32038672007671,-13.585024359942599,17.90343799271562,47.98006664427262,86.79286260503609,116.94749856754844,130.80722445809602,145.36677032728625,155.9824704860572,148.2442113839837,136.21697833560978,128.4768209227235,112.10903432074241,93.98970063493879,86.76761573406043,74.31620997978759,49.34744002327042,29.480893688117654,12.730363825666213,-13.064739025142337,-35.87885432197178,-51.76871303955005,-77.04715021749278,-104.55286821839493,-117.32258980925894,-127.33711896928438,-141.972239570367,-147.45277348816913,-150.85942004492216,-165.71379686647703,-174.0397765616146,-164.05909193687143,-149.71360113377492,-127.35045446293574,-87.11672379179262,-48.92612104912934,-23.605925533794924,6.22832818914725,38.95756286334422,61.58208380784238,86.65519007689491,118.08130633217158,136.0571617665842,143.37402252930795,154.22552715648953,155.37556764552582,139.93210128673343,125.40467621013612,110.19396038717676,82.36818894273497,57.23428994039297,43.569133611101385,24.203388256763617,1.2135346174658146,-11.81384149241954,-28.21455025223804,-54.407215537223486,-72.21747684555746,-84.35333868008274,-105.32058087298958,-122.80608022698456,-129.29342461385517,-139.92287059602114,-150.83934763264926,-148.39556982328173,-145.6408846737793,-149.55240232538827,-142.70462939854724,-126.13991449397503,-111.83317899849132,-86.98315568139165,-46.60580493528268,-10.234302198889687,22.036703350860023,61.409765760352315,94.24721515248646,113.62320859128398,134.71301140370824,152.0920717096586,150.75121825061242,144.1992549516753,141.4979392353972,128.56401423388365,110.20771855708125,100.89271850991986,88.21758067633908,65.29285442429466,48.07212576211003,32.98218930106917,6.312619261841498,-18.106953763163453,-31.303860187257964,-48.79595902421392,-68.9830070178692,-79.861202009595,-92.5273152405256,-109.44915221134545,-111.59418896043421,-103.72157454782041,-104.76488075197476,-107.78948740351878,-107.01449442316868,-113.37717652415043,-116.59013392325026,-100.16667881274117,-77.54757405264118,-56.40666999259015,-22.59396786504329,16.735745506641948,44.61803243844615,70.72024380063618,98.9029213054893,112.80696216094395,118.55746966021984,131.81347411400623,139.61006709004266,134.73044423352525,133.8118979947468,132.83547076125421,115.77466405533312,94.39188574750247,77.28756563552689,50.88698345908696,22.299409666396706,9.103249955166962,-2.2164318345787697,-23.627238374807355,-41.84900135757211,-58.897715236704556,-86.20617838571737,-108.2368480448569,-114.43942444174495,-120.41547324007905,-125.81595032335625,-119.54020047875272,-116.1558058794912,-123.63538143893453,-122.73842296585016,-111.3130726004607,-101.44121455116833,-82.53767715921771,-49.7803219733331,-20.89175713101801,6.858743689016426,47.04940253114779,83.8901812630109,104.80588567028298,122.50632345665588,134.51385001518565,131.6066903312436,132.33866242550954,145.6090201585965,150.18436704392124,142.0303993003945,132.29647768995596,111.75863414275705,79.93982275406836,58.40311427504507,44.24788445710108,19.80732614666536,-4.200311276891587,-18.731205268301863,-39.034397170562606,-62.87489613522928,-75.74871135447606,-88.10795281807879,-104.66198762296091,-107.77437932634982,-102.60466118236482,-107.49710424560494,-110.95300445330443,-101.48876572620757,-91.03222270249368,-75.37155149421585,-41.99041506755526,-7.705778515722351,16.698441535533764,47.38798527381244,80.34990913703695,98.23127948755881,111.61246394288386,127.58952730440727,130.4822360899779,124.92073194852813,126.18726430999348,121.71467904433511,104.33968794403174,91.55562756209471,81.41719606259319,59.83808487913508,39.734566251902905,29.37181929356488,11.778806873133723,-11.913255298930695,-28.339117720049593,-48.776579406370274,-77.18740889699016,-93.30470731365533,-100.17462199346205,-117.00657650135194,-134.75747213179338,-143.8284039025976,-156.01883780422884,-165.18965074937478,-156.87969454299932,-146.2344412370625,-142.62310427070258,-127.85661043584724,-102.3624016802921,-81.21586734796026,-54.50506273921199,-16.005175452310226,17.246711654818842,46.41061441568457,83.31191703894585,112.10327824007457,122.4177368028976,131.53876236831013,139.77410818798498,134.84917969526612,130.0118187113755,132.55242490332415,124.71361521868874,108.85370012993349,101.05507165086804,89.85113235338876,65.85989414240679,44.49477532995864,24.12392139873746,-8.609384729898945,-38.62820988437874,-54.249860617979344,-72.05940871311616,-92.54067044002144,-101.77054236816171,-111.49932531986386,-130.3600937052765,-141.63045708053028,-146.15012750399805,-157.32168239093,-160.94921645526637,-145.84843992499634,-126.88732967790114,-103.58825068707603,-65.15771306065724,-27.066281765309725,1.2600350855788216,36.836692101961916,77.23474764415568,105.04735104407283,129.76539878617345,158.17214699197348,172.64362131056964,175.32829809001998,181.66439490930995,179.6338347827912,161.94467954690606,147.42722452551962,135.2317013106131,110.66256261899781,87.0937543547436,74.4101803403404,55.339596860720654,29.80021587553268,12.01033060795687,-8.87441937857534,-39.26774732798949,-60.9883577561566,-76.34008770478573,-101.45030943450777,-123.15686990794526,-129.95060024788918,-137.46215832411713,-146.88972571969757,-146.10792185629145,-144.95663674952465,-147.7720546316133,-136.33124151144057,-113.44546134747941,-97.02818537804635,-77.78334625085738,-45.19056690791621,-10.899258487026033,26.812544431252263,76.81695623972384,121.37034554372032,148.27288451634905,172.15352437285085,192.01187979145,194.4791989092416,191.959513703948,193.44514370305305,182.9972803230549,162.07452965880407,145.5786854786945,124.09768639103056,93.02940236805793,70.86834224212983,54.055459220778985,23.351090910655188,-11.262230213542992,-36.83336452333692,-63.67776918545376,-88.29855189155622,-97.83966216801213,-107.65050618030357,-128.54657472282776,-142.7251717321154,-149.3377340524168,-162.5312446164255,-171.13378239406973,-166.17637523842174,-162.06237301783534,-155.96154777404362,-133.14113106822046,-105.1130838903134,-79.98123429134259,-42.64073030317183,1.345050176808897,32.85435269476652,61.25782149859688,94.95312285090245,119.37603204695651,137.5916189591048,162.99741917838787,180.97701605023735,180.34882404857495,175.6154307669736,165.74967981483184,139.24416247129236,111.74612946691093,95.02088378316391,74.33530393485552,50.50545445548206,36.96348236800698,21.98493627758427,-3.3039966222765633,-24.00933144693722,-42.260388573861995,-71.08703672991916,-95.17967938611025,-103.46717188945047,-114.39756162976711,-130.7827440443973,-138.8930305158126,-147.793786202796,-162.40102508297062,-163.80989089298714,-154.35645844606876,-151.37044617655437,-142.91420003163893,-117.4339679703701,-90.0537590823941,-61.50138991914744,-20.37744458205947,18.9968105820897,46.194354791851275,76.28707614182034,106.26774250027916,119.824372162414,128.64266465792102,142.2074266287775,144.26234170510517,135.981609711419,132.1104165456177,121.6917542918918,98.154623730487,80.73373499046366,68.99652657614479,45.87799466689904,20.910803680541655,3.206641219171312,-22.111988665020014,-50.87079608850219,-64.38953681067467,-73.71406728835518,-91.47959365828234,-104.65318544775937,-114.3150600666041,-133.20921915311334,-147.00406852252578,-144.7995832765099,-144.14851203495925,-146.7106735316801,-137.0919787986056,-122.97953799273759,-110.59320670486488,-83.69342126533644,-45.07129432194347,-12.730117149703704,19.750465049054615,57.0697308270124,82.41192184350697,98.47171070718316,122.06472850251515,142.7134335916315,148.91464644605833,152.4400203274437,151.4252376039577,135.43333495822702,120.6033530247272,116.7358401791659,104.7605392085164,82.65085263799817,66.0865317749004,47.10254957419511,18.552242543252504,-3.0002791970756313,-18.58028596270585,-43.358815077202266,-65.77070866827273,-76.2697946559426,-91.33444142127915,-110.34854967159454,-117.09131159707913,-121.23770454770475,-133.1170643598766,-138.8879567358159,-139.02585881746512,-145.6992451678371,-144.35689505390275,-123.62995371624868,-100.39947914015207,-76.69178616955926,-40.420407705093815,-4.971790599582339,19.054219750561046,47.28945011899608,79.2468932015454,100.41449163629171,120.47473471227752,144.6851969965738,153.77641761103058,148.6160986175534,146.87877433181833,141.40147766042813,125.59318441778123,115.37276844462622,108.75248907644227,89.25780797812465,66.43115852826871,49.75735788880952,25.454993675630078,-2.581853458893642,-16.45243631526634,-27.41766999808835,-48.77592797946178,-67.18711329811653,-81.92650802396601,-105.0882761833889,-122.67787868009151,-123.91572524266746,-127.52898561452531,-136.95461472813452,-137.78739300202938,-137.88175527493632,-141.4229258577486,-127.67581862200072,-96.349447119046,-66.753136401523,-35.46792437036429,1.528486171749508,28.65125131147524,49.222585927878896,79.53038333288696,108.6884462931398,125.4754475678936,142.49826253106923,157.3315552991382,154.23233996615514,143.27326975269665,135.09996218936988,117.48141606668308,94.3268329826233,81.8621445533824,68.56800326635192,44.14702152741245,25.75879215150433,15.091092798236506,-3.6318327203136844,-22.669064689556826,-34.69252170636992,-55.40310418764442,-80.96272102544307,-92.003473407261,-98.45576174861588,-111.65494440932059,-116.8100727862988,-115.05227830894458,-123.06318993076916,-130.97596083226165,-127.27294685947057,-123.7995516992793,-116.28597661664926,-88.40033852017467,-54.27413461116187,-28.510829872168454,2.9810535441521893,40.51464941162492,68.44187315686739,94.15888345857836,123.04655843609474,137.94683058943704,141.4843463383356,151.77780824336133,159.02416970407654,151.43146959827752,142.14949636070907,130.52089526560104,103.62260570723426,75.78863910051882,59.756429383133764,40.8168790433834,18.894928843787483,8.093919870677585,-3.0840590506351613,-25.05559864819243,-42.2189183749935,-53.53693585889471,-72.90472055100489,-89.22957709468993,-92.0167165223324,-97.5755300654578,-107.9157320006891,-108.74136659757093,-109.57178163447485,-119.07485876317782,-119.70612009081165,-108.94049112864404,-100.674415023903,-84.55257745447261,-51.76631166632878,-21.17657001352777,3.75626303870361,37.29471370704967,70.0996781297919,92.7681590910661,119.09328460046315,145.3599404722479,152.80334153428052,150.33512414280656,150.04906651792052,140.4832817976875,124.44563755509861,117.55665325617842,107.7087388130775,82.81039434267716,58.64981953497764,37.78262668872992,8.491451172007071,-16.54689019914657,-28.05117580600103,-44.30883874491612,-67.58246834340135,-81.79792770319902,-93.51690835374319,-109.74365536567525,-114.04368330084687,-108.25784969585628,-112.10440011309552,-116.99569039256815,-109.1098560646176,-99.46812973447956,-86.60936027019794,-56.84337754695537,-24.092738348855818,-1.2097864659412485,26.638380648136163,58.198157851327096,75.37488828423723,86.1155221544577,100.5530891627607,106.22406237583264,106.10812008982249,114.11246398068798,115.37093426776252,97.368938295336,77.92789393488808,61.95552333392847,38.32547346497874,18.95150766066492,12.062338519844172,-1.5968172949627917,-23.555454684348884,-36.9221140564817,-50.74360522697408,-75.26481454744325,-94.01792320713936,-105.40159630499133,-124.05794572158551,-138.16133293781186,-135.75405469514035,-133.5982085703957,-135.59026845676954,-129.08261569063012,-123.82447406490392,-127.00153067217155,-118.72377242888143,-95.90747356562517,-76.06806021075931,-53.72865750802027,-20.644932740116058,7.779824516565022,30.432810569026774,60.59274476561799,86.03043351818765,95.86537494454137,107.51265743893902,123.09430917581726,125.08036829748485,119.61510457866132,116.29665283900573,102.68227148310882,82.65454908148874,73.92830617954095,65.33882915814817,44.65580287692751,27.650537112888625,15.79314639979561,-6.28829280864645,-27.96970923972645,-37.247899478485024,-48.90508433580139,-63.877400679939875,-68.66959227745056,-76.47702277194105,-98.36795432478131,-115.29200739204462,-122.64354625788437,-134.01634325137454,-139.0851638423207,-126.75079082600254,-111.12393033822029,-92.23261401492431,-56.77971968101873,-18.9823617398474,6.765476973156536,34.992291526913064,68.93737808492975,95.05187680652557,120.35487703639248,150.06640291414016,165.15660731531239,165.2447257275983,168.7576045619369,168.3385334611226,154.6426083068067,142.92559611268564,132.90386739045596,110.02306911173906,86.38783055876132,72.92462936930664,53.55166857265295,28.210126176476876,12.55789906681016,-4.338795058014506,-32.25027895924872,-52.063724896625466,-60.72633240605979,-75.35435052575437,-89.51501772201189,-95.5365252050413,-109.7785587924395,-130.3902752691485,-137.3353583727187,-138.29579424355506,-145.50438229282543,-144.13011511195648,-130.28975941271403,-116.404915569819,-92.4428457089392,-50.35130073072996,-10.663322287793548,20.73291907414663,57.329846075108364,90.49975357060674,111.34612945609919,134.80479722654445,158.90789299632073,165.61138070333635,164.30360425814632,167.46803414351362,162.03096391728582,147.92141646322312,138.99484610029714,123.79908972169957,93.08978261985544,66.29244373024336,47.79014145317908,22.423542319298313,-2.0923454132927333,-15.37685430988632,-31.61032836918138,-51.788057279515144,-61.17690978154611,-70.91608466662848,-93.64650064832148,-112.47706353593671,-122.59840352685417,-138.07504575674994,-148.87932702184503,-143.29846751487182,-137.45085086933076,-134.298164659019,-119.36067596025747,-102.67238614635212,-94.17529302234257,-75.37717658596225,-43.067602581619724,-14.516281613720823,16.255204732554006,57.49115181460684,91.99588981783407,115.99666212280161,142.3231403049491,159.93608355992893,157.39751771476614,151.30140603569288,146.5987479473414,132.0091155635159,119.20647421602047,118.1366868281502,109.57591891512621,87.68770259137848,66.41534956874773,39.284756072201304,1.6532290675137489,-25.35920329735988,-39.90305723762268,-61.18350293591354,-81.9441949370508,-90.94664663307927,-103.59039994493605,-120.98570706429199,-126.15455226716729,-127.9466521819544,-137.47071105282922,-138.83499626099214,-131.39558707051097,-133.13455845025766,-134.77768331275692,-121.38294630806783,-104.00997559828649,-83.51934825196197,-47.39670890006269,-8.839698698444678,18.083243449866874,46.63060639118617,77.41184311621086,94.44534462604886,106.16662830042243,123.18342522960515,130.59006008850352,126.63142020258708,126.13198958725866,121.3132559134198,104.61074706961969,93.53026723584372,88.64127897758414,70.63543033270741,45.9342292837891,27.15369091176618,3.339449660674954,-23.488401434717233,-36.8729273577262,-47.99383996728939,-70.02672510687403,-86.6749573162845,-94.019780755057,-107.73948981548918,-120.22892159760767,-120.73952162969638,-123.72210837764034,-129.1318553526493,-119.3660925189092,-104.73758913095247,-100.91834683520365,-93.77713598008292,-76.66312125892091,-59.97019680186807,-33.948786575822666,8.291335599132523,44.18572688944243,66.3273363513459,90.15457552144206,110.2516700497788,117.72295150511387,126.29527754291225,135.64436730784857,130.35287985840665,120.47832562371381,118.19320918981686,109.3154124256769,91.82262841169177,80.28216222769852,65.75549884049809,38.268470190697,14.951794293831773,-0.6481866664681841,-24.194233283417095,-47.47903441242188,-58.577805323583775,-71.47995450747625,-87.32613794368991,-90.10834204422872,-90.68410969210665,-103.67882608350115,-113.57738043887059,-114.89057906364333,-120.95666050923963,-121.9267154049088,-106.54062390154101,-91.75002259952544,-80.49522202464775,-55.85718036377003,-26.03563164375548,-4.077237186753349,22.83019318979143,54.95740910757883,74.92688802977078,90.64276863334732,113.9914845124635,129.38512911877638,132.61207799173752,138.13062057958462,138.1223997750925,123.34077838466305,110.95126358862613,103.83318023025927,85.71961406281932,64.46355174442813,51.29317329469018,32.117112120464085,6.235961613449044,-10.289600366218817,-26.223344313605768,-52.266607655850336,-72.49206946452986,-85.03664892087295,-106.05503947898845,-125.37754300973111,-129.4683805798387,-133.39451887664876,-140.45849541547562,-135.7978929419,-128.2087407459539,-127.49037909776501,-116.51316698968112,-93.99570831322262,-77.92957201738176,-59.878807011272045,-27.67086631246692,3.8898010165896544,31.717433336851773,67.50863020831613,97.63739630430734,109.14776898598763,119.05867657086765,131.6069946722258,131.9113000373301,129.05329202668722,134.10690812252565,130.7987264824987,116.62368273911252,107.57264169857831,94.53725868813902,66.3107226907454,40.95551079142689,24.152471072672533,1.2747899350509453,-19.755003116823584,-29.237892346279732,-44.21550535508474,-67.16657070418483,-81.04897857108392,-92.48952069517674,-110.86949156349877,-120.34132147140953,-119.84381929049844,-127.03905258954009,-134.33996301727802,-128.76869300320496,-122.44312900322264,-116.798561761099,-97.68653958469812,-74.20146797625713,-55.904895960214205,-25.98665566051672,16.020875523208367,49.092129753229145,76.64686739971532,108.9920247247248,133.09850080719815,147.62468714225238,166.2028805145365,176.93407496540965,167.08484515419514,154.9461633767846,148.41178791008434,134.04663526082234,117.34042002893378,105.86173549157765,83.52547951724661,49.91297213114056,25.411513728909757,6.526757778043564,-17.76043358464424,-35.63871606335832,-46.61310589791419,-66.02191351904504,-84.75312561345102,-91.37304418962844,-101.45399967969762,-116.50451206332404,-118.30867299471231,-114.41689829214769,-118.06922111918304,-115.94314650400939,-106.43144729750477,-104.48902354459136,-98.1111417734663,-72.71415303452203,-44.23544173557619,-18.003861520746682,19.061513759721457,55.929199528352406,78.44345222360107,100.19421884341381,123.32716868545728,131.5139681464751,132.73547575301714,139.38390867455732,137.90497828303245,127.39219767691313,124.33151824989665,119.3592494047757,99.17105328479337,78.20482137156586,60.23095136995908,31.951017979101422,4.6413758816574875,-8.642771270713242,-24.68340229988414,-48.21236574620556,-63.46914280730046,-78.0844726395292,-102.17161587468036,-117.18947026419193,-118.6514614840398,-125.03944980917925,-131.54036604682042,-127.3410383651352,-127.07251733049647,-131.46948358933201,-120.80516267252729,-101.42042606403511,-86.79868687738585,-63.73825693743691,-30.231953331670503,-3.8661769743087233,21.060907320876932,54.98782782817427,82.68030051428924,100.78598667671919,123.06270060426218,138.49198485902787,134.3848101134991,128.1827825863378,126.08983936079663,114.27892098276867,101.39661475518137,97.61958228480917,85.75656827334218,64.0683989369844,51.2708922414401,39.74530733921664,16.741159721623145,-3.0271865400716496,-17.05300348438508,-41.240220179419254,-65.22466497959947,-73.97870774423973,-82.89384230838904,-98.78452889996456,-107.57033468902681,-115.04052883690655,-130.26101056390337,-136.78950544388877,-131.58150158485077,-131.9367839251214,-130.42697666189625,-112.58200916770912,-90.60575562334573,-68.84072734675685,-35.56662409508484,-0.8437513199711333,24.29870103425356,54.24522935521203,87.90724400871248,105.01789719089041,112.16330948142156,123.86742048464245,130.09309935280112,130.19710580931275,137.03572652018602,137.5707419653557,118.04042776639193,96.12514417681064,79.40806125534498,54.914620304260936,31.119469210170198,19.708831900092413,4.87067909814178,-17.80498230823269,-32.19407896756041,-44.792770908263094,-67.01551750467426,-83.41871027603132,-90.1324785207559,-103.44892389282845,-115.60768541859568,-113.71829189229939,-113.15439250533495,-119.10297008734969,-116.8115108170045,-112.46731984169801,-113.51679947825062,-100.50352158824506,-69.83467396771661,-41.64740277756309,-13.957441980777574,21.107226652487377,48.230138999692855,66.44453678851525,93.0807081366706,119.14867861625223,129.772872869376,137.28502572466084,144.272756528493,136.17328950314425,122.64669343294966,117.00268614907964,104.9219865050138,83.48736283625064,68.91705047811473,53.664712364816346,26.433623385973924,3.3999364860763723,-11.270373395722439,-33.21074868293819,-55.33094249236956,-66.85038773033023,-82.54252831522999,-103.07304045832655,-109.19721113307835,-107.65008014625926,-111.89834252661097,-108.51530033135916,-94.62348085034021,-85.33544862391322,-72.01543806444985,-44.01221033518806,-19.0600204233409,-1.3192053171672584,25.942581314847178,54.67979818298532,