145.78699892858657,145.790988485875,127.83267714201945,125.84813932948988,129.46843792863777,124.38495680125658,133.39564365226403,145.85705126488335,129.73113901392847,108.93686301240169,109.58790532396065,109.19173971414119,107.72299972116417,124.75166111470834,133.41485649361815,115.90766857357016,104.97786437544525,103.26304709529347,86.56196704538856,78.26579497185924,95.16604259715199,102.82999858998002,96.13986048163991,96.76021113526198,84.28682189592553,52.95345615738128,48.56589179403349,74.96157131574277,91.88929517105207,101.68421928440075,111.65813066004527,93.84200432231127,61.27940842686691,54.65322807124419,57.29590952088275,48.29040465547487,50.921071158037094,58.262298885764,43.039223540950864,28.785414815653475,31.812450281094502,18.91055443643779,-11.367404758626009,-29.18465165801127,-44.05971526390909,-60.07701247545429,-47.82624265295631,-23.868170209234513,-28.768197188553007,-40.35863266771324,-29.895809768726686,-17.64949001123626,-4.954851611978961,22.208883362742604,32.95740981689873,13.922164847430036,5.613578679767952,10.32950427049481,-4.639153673255485,-23.03634553994043,-26.62103793524338,-39.720477229355225,-53.959329263414155,-40.75194342591365,-28.975076140944616,-43.10433686243814,-52.514982563722704,-53.80432870779643,-69.03201863831204,-72.99498534775645,-51.206113812926404,-41.68653829866915,-47.01475583616909,-37.70303184360843,-31.501455865836775,-43.603199249323445,-45.240711187683054,-41.020422152010966,-58.31017405726391,-72.08566827696649,-63.52358451907213,-63.82397810521928,-71.35518348856236,-58.576331573119816,-45.02307618322357,-42.01486737917678,-18.63419579996305,16.2618639056648,29.029400885753358,38.237854280219146,58.645622682583024,62.912773552622916,61.98406716765986,87.27091995670858,111.39086459096885,110.79810510239318,112.06289369983372,113.34688304955057,93.84668908217466,83.0031997869586,98.88559773513948,105.4724865420673,97.59105568308506,100.72601207515459,96.33141352126484,72.24003221184307,63.9959995684746,72.04955421487149,66.19764295483611,63.0631574678161,76.24230995206797,76.21084166555232,65.98823803661261,70.75831934452476,67.60307847687413,42.48235720798279,27.87343769365519,22.24056935917475,1.5591098270073172,-10.600475565618781,-0.5588216225154827,1.9287039012516232,-0.3888815703273425,10.546375147047259,4.77301308313085,-28.57597788978486,-47.376555024828754,-47.63755165233508,-57.88378451126242,-63.84996061849316,-58.953545043748875,-74.79863273261788,-98.35543155450397,-93.10056492826978,-81.84293569969924,-85.71345356110774,-77.01344034344947,-58.96842197790805,-58.32279143778043,-54.286012899841865,-35.52119236916633,-34.5480709488546,-44.2999507030783,-32.89422825063925,-21.554315687357,-28.827298500086837,-28.329982684416954,-23.30816475830526,-34.55369526088668,-35.427141442212616,-16.054578593423717,-15.4654268050043,-32.9486441473451,-39.927487123661244,-51.8653181270416,-72.48085113282463,-67.87608095483282,-49.818228462865136,-51.949608278498694,-54.537331961510745,-45.1027341606555,-50.067964449648535,-55.880614789476176,-32.55341752871293,-6.375399182924834,2.4737198715271314,15.224587215188746,18.933909844220487,-10.70265803004663,-39.5061667355236,-41.972944585735206,-43.823703838809294,-45.650934972871966,-31.488260600923304,-27.461996625237802,-41.84594166440512,-40.15485674806986,-28.55583584181843,-35.38441954072383,-38.81544677870815,-24.035478338962214,-17.45246018896669,-13.96077676608473,5.0250528813299296,12.139311028965633,-2.5085620438258838,-5.550465953757899,-2.442517802403896,-18.94202987393716,-29.543741584823348,-17.111853458493997,-10.238803944952705,-4.465560561808136,22.69484113252914,42.89454892120339,41.610885877882914,52.26610016822301,69.05226569028308,62.362796273918065,56.11622466889426,68.9056318014601,74.22257032507923,77.56525006062726,100.55684542782714,111.80601246949588,93.29595029386064,81.54518966999952,81.64404529094926,69.93686354218825,62.3632524366519,65.05672113719652,48.54054888268223,26.513792414629187,33.12566728336937,46.386820718016466,47.15749828913585,59.30442217151666,76.11876283801895,74.0263815058616,74.20478371056441,81.14828949360316,59.17522567784656,23.305671037465657,17.4409693218806,27.918990916353657,36.32628841535588,56.92535336712811,66.86131122949587,34.47548323037334,-6.450466730665145,-25.007373711838483,-42.1040236881285,-54.70649572559857,-42.03717984116138,-31.010499647683773,-39.373637580054464,-39.318294037514875,-34.35794801376664,-48.12000953692153,-58.108519425052094,-50.79921449087142,-52.78356065924779,-58.58561380257949,-48.76291898705492,-49.60806227026201,-72.91533663271116,-87.13105392283538,-91.17477683250897,-102.14456309090835,-99.83581874064495,-81.7497103806051,-81.95473872169202,-92.66675207870034,-84.94474572254023,-74.39175400101001,-69.83343777383492,-50.93946616122717,-34.68947026114856,-47.27185722925405,-62.20301665260567,-60.758251590317414,-61.3863247022775,-53.14951952867523,-20.73395474812213,0.4669023754781785,-7.569842477435044,-17.639099006022036,-31.666165083628865,-62.723834138384746,-80.2904521553881,-72.96074576895333,-73.1324316123678,-79.17661572425673,-70.56123431781877,-67.57034497821533,-76.36396137884691,-64.97533149234872,-37.29601796121224,-19.003328818067835,1.4573948281634852,24.758495165491755,22.45747472667969,7.4150231644033155,9.516279214110442,12.46412752003147,9.62371791901015,29.665519238516318,64.7271251319176,87.5149503236524,109.21540991586757,128.4936970071264,117.16951387376714,94.44067203665324,94.85050466065651,98.08146617311755,90.1314011443334,95.83911400044087,107.84595963492518,101.36340894435935,91.75334998304812,85.27338785405554,61.62133642706093,41.041724365526704,51.62837480094798,62.26548583038088,47.15960549659346,27.841790601697273,7.3450096467004125,-21.60699266347092,-30.568060806081554,-16.14269897184522,-17.19867509608998,-31.181015195213273,-30.64762413668283,-30.006649543116303,-36.77829127639195,-29.100695684217683,-21.96870042506437,-39.08514643235903,-54.21826116525119,-52.792776250672176,-57.091877865987186,-59.85622128294153,-45.634477654190995,-41.24219657492304,-57.13607861871809,-63.382700523369905,-59.02479735681438,-59.70636093112353,-46.26391745013041,-19.275656253997358,-15.404499985301472,-26.37024804157833,-19.672520624629403,-10.367840739035927,-10.400771599237602,1.4246431595856057,12.544316849640266,0.6262386242738875,-6.3663928750671595,3.036511401813894,-2.7548983626814274,-16.763257410270064,-12.573924041226903,-10.297381425760278,-22.379127387349246,-25.766559020129954,-28.412831502414498,-46.480312235383074,-47.07995370775694,-16.47468347755776,7.430570233889799,15.778449409977997,23.00481743827378,14.85563122710656,-0.9102546435155361,11.415361320846639,33.60172715682341,24.847549901451885,1.625112490094632,-14.084216422470874,-33.510857067867875,-41.473767397945586,-20.01840447707962,-4.833529753811972,-14.985982619086663,-19.066422371908953,-15.985482832445477,-26.47106735813565,-29.177979695353017,-11.02891617374255,1.0689030131245527,9.655509488523077,34.93670742643399,51.506242858746,41.78170731079035,33.432857587512444,28.442027521414747,10.065941154794912,2.7357844439760886,17.342141889754153,21.879781474767622,18.75468632275924,30.432747213155462,36.594529323086924,29.840916486602765,38.739367163107694,54.232934046736105,52.60012243513282,55.68679210664719,72.17420170825487,74.60112582575758,71.96077469544778,87.94108088527065,100.17052412436293,96.21504536139287,99.67735982672633,100.27805673387894,76.81082210566653,60.30939072807446,67.74175443826434,66.21991286978933,56.34319151973598,63.529823054878776,69.40224741450336,65.55784396742071,79.94054901329558,95.07332111498927,75.68039439904592,51.42326067782233,51.21867507370257,54.274236826103696,62.885259082863,88.80958726958163,94.28556215920968,62.50125975676549,31.575078274683342,10.241636245807989,-13.332443802190951,-14.736455248611932,6.251383162259867,8.183623326303984,-7.470894192231361,-14.71476409357756,-27.49847821148556,-50.6465659500839,-59.249491157155504,-62.20538471967029,-76.43700135735428,-74.28839447481033,-49.13738576497401,-40.42413032489271,-51.92208998934063,-61.13733030647114,-79.83070213463486,-106.6479913964784,-110.09603441497136,-100.11078334515648,-101.84350269913273,-94.23336309312609,-70.54270962747536,-62.62925294755491,-64.83146422004485,-52.097705506949815,-42.896387571526546,-47.10472941492058,-40.02383727956489,-29.98789254884728,-37.35320584470004,-37.33748486380319,-22.852120773926035,-26.742354584240363,-39.92155372279814,-33.76261579285498,-27.047530408907324,-29.894157536578227,-20.772932731868917,-13.204306756104721,-25.815001527360156,-30.453045573077652,-20.13163878934133,-25.32390366339911,-36.176508218307454,-28.271416093355448,-20.87497215397496,-20.96033983236216,-7.00364222811739,5.175646914886234,-5.804378941694775,-12.019411880914586,-2.0177807013858566,-2.9908322305964377,-5.954398068590996,11.191628915762307,24.52072814968922,23.301528563293836,32.62469783940466,41.16779069132229,26.549809027726283,16.83465439211289,27.712414493081624,34.44139665571185,43.64907114426975,71.41994145514644,87.02642203737969,77.31688576983046,72.11712479843695,68.43505487336333,48.874313382426166,39.112317533037924,47.21052887438361,42.28394701189039,31.66334061323245,37.54850377146862,35.392139480320544,15.977451208022604,11.025660299748187,13.849244599102558,-2.3610797246141715,-17.378663821563727,-18.904079074881217,-28.142795024562872,-28.69082190606529,2.943120034785723,32.51900193318547,36.89042890488221,38.784896002988695,37.680040776061524,25.649136428382107,31.251129541155734,54.57258463861464,55.488957960150145,40.763571366927344,43.47550338345791,52.06335745216419,56.92051942442963,70.94321351005553,70.4298193974769,36.29619663936089,8.91963661691108,7.619914277026998,0.042683708521463526,-16.415747238844816,-24.19902138282,-38.523850164638176,-58.56763188922153,-58.794108031342994,-58.80649189279341,-85.5702405276453,-109.57023461133318,-114.18657769467407,-126.75265603835243,-142.5729063621905,-139.65136367488813,-135.1603840048722,-131.7111232460346,-103.86577231786197,-74.4579129403493,-78.89528408962948,-89.78045917486729,-82.96157182267747,-78.48180717254901,-69.92840909484235,-41.843780588756246,-24.78472398466816,-28.59717560138208,-21.330936407198212,-9.499440020971274,-13.533591703021749,-8.611581928932289,13.334792593705258,21.115525930918608,15.482267728997101,13.88750748083651,1.5032156919763757,-18.877060226251025,-16.81974158240075,-7.355039979739848,-21.284025283654188,-35.981388005208515,-33.879593479056126,-34.994181943871496,-31.08287687903792,-8.024538248711165,2.1017628604252647,-12.153711672306232,-17.6823658580442,-16.01449630582067,-27.518345809121346,-30.419537002911536,-15.604484916937373,-9.737565396224763,-2.378874027443544,29.806630118978536,58.99480743617454,66.8800600357298,76.78704282496311,84.22898501488956,72.04334324309022,64.21924952376179,70.01293436094241,63.070426347476854,52.990218171688554,64.81454324937728,77.48838878128566,75.20276929825407,76.04019736022363,72.38318391187669,50.35835986574131,38.22801099557852,47.16045996885313,49.73946375237958,48.78395454004155,58.92611086055919,57.03635392472846,38.32551884987229,31.391779075777805,27.35431985944549,5.419610070877333,-11.594184462463769,-17.93902753970921,-39.6685475053104,-59.36612701020341,-51.312266275124585,-42.795369271249186,-45.44523811482194,-33.60932401908741,-18.06619626517661,-17.889866884108596,-6.609757809280955,20.75990509633518,31.92029175812263,38.005617358478545,63.414610454802705,78.86490239382402,67.65687042212608,58.40296765533118,52.40438179580339,37.82523236260516,37.5443789512513,48.834082302475665,33.34495572463593,1.7594343051003865,-11.425658759926865,-20.84143392517553,-37.73726677202075,-38.907155054742084,-32.993208576768694,-41.690322969568456,-44.25626034202672,-36.743635146679516,-52.32890058183283,-79.94852924197687,-84.9823102192151,-83.83640441807984,-92.65376328272131,-90.93188324238166,-86.41884202535913,-98.08392131684303,-99.45564411756025,-78.641500882534,-64.33726458870039,-51.20908780405242,-17.13559084933379,15.310073660888108,30.34802497264581,46.734358997670014,56.85912817566105,47.33801313002756,48.56492541654879,69.17792154182376,71.49936214946976,54.74703636587931,45.04879034758275,32.17384532289087,16.150387542874483,24.31996260146524,37.266038083155465,18.89186444304053,-8.25305822505865,-20.847314957405192,-34.029394362124435,-36.31092133466268,-9.18221984634616,14.288006355381759,14.084999124637754,14.42643392838358,8.896418471844303,-21.08639493694402,-46.482637322152144,-51.937600327335744,-62.19592637305001,-68.6891977068109,-51.37878149635118,-37.156900650927255,-37.76846211251935,-26.084302469877464,-8.809686153416385,-4.321010488713749,12.121810813140746,47.510885058487005,69.95448601038999,81.7023103191751,100.17864024546753,103.65062989864244,87.45553001442761,82.3505899163077,83.11238979080034,71.09629235162507,68.45610240084076,78.5024797986237,69.19926923538975,50.348705854516346,48.26987268986208,42.41868819404676,25.16268602828378,24.19484374453279,27.179528345174838,9.950470755055512,-1.4588067030435024,2.6770402611301938,-5.746472471996387,-15.393232979836272,-4.694113568182006,-2.102771088471229,-19.99307365517402,-31.270811545104397,-43.07004000216047,-72.33334756434338,-90.4853739937922,-86.91936588947082,-88.7671917789189,-87.96322699891084,-67.17881889801454,-52.440645427907775,-49.498936917958325,-28.657045362966038,0.4771538472127119,13.118646458208817,24.36499890595559,35.80337522690659,22.58876348678497,1.6973537545393187,1.9289835042486625,5.172582020722689,3.3766915689394827,18.370234838798627,33.50223555656184,21.928698652366165,7.698113799942577,5.4877535744354375,-6.565530896687893,-18.20451824466812,-9.230117389117579,-4.0967423248019,-10.471080924140939,1.1702499592506825,21.502915308227028,22.528192761705597,18.522187090944694,15.469270693757954,-7.282563425748329,-30.90757015837564,-28.280743064835356,-26.570440968888636,-44.712201127015234,-60.17012624994696,-73.84387615923056,-91.79365081742577,-81.0353900924185,-39.28445357824216,-10.058190364908489,4.381444780066225,24.854623503949618,34.564331922491206,31.556431312576656,42.88445481668525,53.57144703758208,37.449646792096516,20.129888530436244,17.342995229764682,5.662633640118982,-6.399167680337653,3.8471151991271872,14.274505778519211,13.640032218359973,26.87285290153794,42.4866917567178,32.39582469928652,18.681563586589316,19.161655666564695,13.458957388921814,11.044244822801627,33.28131846911083,52.38395311629577,51.57433478396856,56.19444614726427,61.76444045233885,48.271784683337046,35.81662417192638,31.303569800795614,8.528723410168238,-21.154817350081323,-29.251033874895217,-30.432328117946806,-35.1188062996936,-27.77146649459249,-23.658794284446262,-39.737526801540575,-46.34907062149909,-32.38134235473549,-22.58852592218173,-7.618109307570782,25.829258910217234,45.62881685314105,41.22805264253424,39.350237720243136,33.82307612830164,12.668080727282593,6.183878050031549,20.858343568246354,22.299880321856577,13.832514521922857,16.57662014853266,11.232961841827887,-6.5502332272728925,-8.723243025910598,-5.911836973382604,-19.67301330322449,-25.050809638910575,-11.431844237833602,-4.78941494722962,-0.5739521458769852,13.946898511748572,12.471221313655793,-8.943534547123441,-19.0823282250705,-26.455370899230196,-51.777313714610905,-71.33255940758629,-77.75654114863971,-95.90204763786001,-109.76632838259889,-94.29404225928224,-75.90891114380557,-69.37435988602104,-55.29644300108077,-46.636635330046296,-57.2086097441603,-51.806766319545,-20.03154559122504,2.132840273599567,12.54173875597338,27.68820303516057,29.859891058021354,18.86106733027908,23.896436921848682,33.70409402515186,25.134624052677985,20.556643120068834,28.43883328713118,23.285090779973622,14.96273487817664,25.143043639080087,32.8322952855618,28.752044547041166,35.0412807346653,41.02712609661571,27.31745447789627,18.639034932477095,25.713539838968536,25.736813729718122,29.047835885798126,50.17537474323031,55.38536482349646,29.722806781817837,2.4107444748583733,-22.279045649287337,-50.924318357925856,-60.490883742619324,-54.848864294037824,-67.68788165844332,-84.34162200288529,-72.3733948184587,-48.55938074769841,-27.58452016124211,3.178381792466686,26.383600522162638,23.21008642413514,20.739766533002616,27.992868156453934,21.006071425256486,12.19189360774727,21.250708447495672,24.2059061379824,13.852581538561209,15.930857040434965,21.72811667746679,13.095599221139086,12.197499994350272,23.258494805549102,20.69156963833342,19.09257956338704,39.440723734333915,53.08292931945324,47.49946338751166,47.39879118076056,45.312602840133465,26.215976581237832,16.804194783853617,23.751119357879123,18.16727783508928,6.616064256845341,6.353280712695362,-6.222618953625871,-37.12540737594432,-57.62668247218548,-72.35105652445422,-96.69301301086384,-105.46529387249225,-90.00397177276064,-77.59950250000385,-65.08046084725251,-40.23849543543087,-28.321636555979303,-33.35615447246866,-25.26384076071577,-10.35350002828117,-8.614424122101871,-2.3346871148383985,11.872500694148487,9.177769062450249,1.5079945845820428,10.228255748212664,12.524233570177019,1.6487148307464015,6.56262759667937,19.17009272315528,17.163853550983617,20.532792329130736,34.00500087929026,30.063715589608492,20.67392491420963,29.22547519692217,33.592165894163394,27.207820692385784,36.97480288613752,51.301321404407396,45.9786358202544,39.12993915404992,34.125253870147475,6.2320694141996915,-27.26423854130119,-37.62073181919093,-42.63154820120329,-50.51059246016516,-42.25290110438172,-33.60231330516249,-42.57677020729407,-40.03145686774116,-16.600245776248588,-2.658751144905752,2.992537447311201,15.8384980566037,19.128177444176487,14.11018573153747,27.10032621255971,42.98721811079346,36.84629435619655,31.09486024547561,36.03850609709695,27.830299286293837,19.148910081970698,34.62749218763313,50.02375609909227,50.183719110927704,55.58152785260285,58.07168773588035,44.47629263125832,45.45512443826041,68.26615044229605,73.76634369601682,59.49687277854203,52.26454379595528,44.85980636052328,33.43448699186513,34.50287162968807,29.06436804144773,-3.4738451799042718,-32.918783734351386,-42.38791434998744,-51.85414435390024,-54.887817916374416,-39.52098710528853,-30.466706253068583,-33.962473448615555,-27.726058358981895,-21.53953408887746,-28.553375066395986,-24.289086848551108,-5.714502902068302,1.2854575739306522,7.714437537208466,30.419252965471888,43.47093837971839,37.42530297854283,34.17186036834145,24.681987679748524,-1.5764112195968298,-12.528086576916282,0.33126056609037846,7.464089995089628,13.63813654309332,32.71324009218347,37.19909010605104,20.007433950207425,11.846296304618585,8.172543658496567,-9.683023498620045,-19.73730015910363,-16.917056208347162,-30.966541613736,-50.86562979263035,-48.77426075231155,-44.10098499151404,-49.39423616562953,-47.986752050433914,-56.848876672393985,-93.26364115671461,-120.55536246722258,-118.81226546678451,-114.52886802095223,-109.43144069564674,-92.11561575969884,-82.45544155833305,-77.73430083237304,-47.6344812192181,-10.692367687811542,-0.6140116210646009,1.4847861260374648,10.189756245752719,7.805654472178757,5.341626181247657,18.851190031744366,22.4604501007504,11.318225624375112,17.513581848008588,32.6266684294328,30.05715287146738,27.73620912871447,34.186844514190554,26.29411888869084,17.171542553801203,30.272436547955103,43.03563605281913,45.902692120662714,60.92835221256747,70.85461740481585,49.71188853980816,27.162388767325407,23.72688654629959,16.90866027108877,10.030585023061946,14.18625621562087,-0.6337129706329439,-36.875849095670326,-50.98380587645554,-42.73973785890492,-40.037791164422664,-32.2573234506241,-18.11387857796283,-22.080838213682718,-28.21228203566639,-11.967515267275125,2.062216123170532,0.7439251525184218,7.997123836388909,19.641672796508473,20.381023902812643,30.380658016567534,49.871823879893235,45.90086731468518,27.45021053247404,24.30386105971639,23.91571153515493,20.44135062470155,35.81843939379526,53.58356229929895,46.84834411148978,38.86818387260618,42.11839159116535,32.392619244063454,19.45888868817969,25.201295797643347,28.03160698202138,20.202364338578644,24.97864290128336,28.11364477911584,5.939274667716515,-17.761899586657997,-28.283861738905223,-44.045142021013675,-55.41129728171073,-44.98406488503561,-35.49327363435946,-33.36386311034973,-11.408845206634835,17.912002711600092,23.82837477649716,20.303589387012675,18.176551967626057,3.3757443931052578,-6.893076569937691,6.7339449091931325,18.39696364868321,18.36712928149442,30.124659161253646,40.68467934743324,25.153368777527124,5.112443410113099,-2.9128060389380948,-11.818501166133341,-10.346410850405071,10.193668499204305,15.44173366323253,-3.1627656957367805,-10.356235481036308,-4.987035693718217,-6.982754156353149,-4.546466785754145,1.2734652404904043,-13.218693324151406,-32.050997658300076,-31.58003254979669,-34.19593087391129,-48.465544933904916,-50.302556982290454,-50.36461902859584,-68.79918598519595,-83.76486221684232,-88.27932126245936,-104.0170183992226,-115.82659928000032,-102.53611926095883,-88.1630395965417,-81.5518672359571,-59.60885267065677,-34.410986352583734,-27.472767367357317,-17.770338530806413,0.5291246242173795,2.9193276296431234,3.623212960398247,24.86317966636693,40.34997749254487,38.685088212535085,43.934719909611715,46.20409647539216,30.55574625084364,28.44362576448924,48.422089018919856,57.4204297165616,57.09366519458504,62.50554222699151,54.563178637192536,38.18617801131059,47.125201511892996,67.41529471018293,66.23349744622162,55.543914902474064,44.537891186239754,18.98078126479097,-3.123712799346131,-2.2092313862624917,-7.3031531440133115,-31.166929803411954,-45.881482478566014,-54.70771699120643,-76.60446434252512,-92.42559027343025,-95.40289295637362,-106.6720689812649,-110.26688728757388,-83.73224965030525,-54.7626925478172,-41.181131395260586,-25.866849782947426,-16.7454238723259,-23.79036591356683,-17.327520541929154,8.912417563520068,22.246803629587085,24.9551177175875,37.12605646320531,42.68693575230214,38.109305347058424,45.62507446736425,49.39807444798513,29.246875650814445,16.977907937806798,29.95091284702841,41.76049283224232,50.91763246222527,66.78822352292455,63.750277028581486,39.632972998314976,30.273458603743652,33.81288517311841,29.98365676944411,35.11592974651744,48.06601178362684,34.288999635722504,-0.12996471698446754,-26.76297044398283,-53.48965306483422,-78.9209380565561,-77.94681034760632,-67.21748288779163,-75.67456717516153,-83.35791613725235,-77.00991758665893,-75.24452167268723,-66.64948583733526,-34.78445883742837,-8.835915576961803,-2.121716017459673,11.2762816560177,28.43244087005693,34.0558853468394,48.6075180706792,74.00674727538372,79.18297924161381,70.9659038727878,74.22474806286586,74.89170455547296,67.05567205526663,72.28542687883551,78.13033910312974,63.23004358937911,53.37837086043935,63.22532833100054,67.98932358148396,70.08281529448713,82.08615693760282,77.80546088187342,54.386038149592125,47.56710961877941,51.15990706004773,39.833752375736026,29.389864394055024,22.414382833475422,-6.399184428734317,-39.70288389243368,-48.202580952030274,-52.993183427959124,-66.71973630359237,-67.88778129461969,-66.63540370758018,-79.53086148139192,-77.98317637264122,-53.96131212350976,-41.08071951738248,-38.484815520341144,-28.24978657140501,-26.922006739052,-31.8899057830782,-13.63357375106614,13.218970943046394,21.65740275364486,27.717778736967567,34.429933902716826,20.27723834242427,5.1170750261361455,16.305698932016004,33.09956119907726,43.69667171798319,62.58399426533646,71.02663641329269,51.501196485321856,38.906069165930234,52.10501435885148,65.73913523099586,77.70700517758843,93.5525519496571,84.17015350417184,49.56546286791899,30.71670950780631,26.130209365267085,11.1479658741387,-0.561180130776322,-6.610209909755022,-30.763118550204773,-56.86162500734937,-60.655333526667185,-65.85712877578918,-81.62788324516666,-81.30636267171086,-72.44985669599342,-75.22238941048386,-70.11458007533193,-51.39991568543353,-42.62870954830365,-33.897319637587344,-9.358924628845239,3.384036744663294,-5.09582642509186,-4.993269718477223,1.9526202859357351,-1.2104939007703392,3.9807925322963467,17.9684126985431,11.734901415428258,0.7509384473025027,14.317343736822977,30.237413673423603,33.004401721635055,40.53698627992813,41.26355085910466,22.060876617239437,17.56852816982459,38.25858252331439,47.88913379769466,44.325173581666114,44.77093302090849,32.92837906704612,11.791977470096723,10.916080909822767,13.086908919776238,-9.653837856920632,-32.4641509140681,-40.5421118790159,-55.18030082396842,-68.85328814013795,-67.78105189824835,-75.92693299620701,-93.03685197343947,-85.15930401652905,-61.370332565329306,-48.422523392414774,-32.82782999781569,-12.07226704577998,-8.333560636907286,-6.405808077551472,13.39618206659534,24.378937720304386,17.98166921002426,22.76948417227396,32.49367107976626,27.236033665845355,25.853896225334882,32.369347745896086,23.161896589005124,14.503248094093216,30.22034735997619,41.65587591509531,31.56860251611571,24.842507806791307,20.247994080356584,4.855516694810931,0.4676214475977962,7.18291004788453,-6.409101102115523,-27.622434269001992,-28.052990876953288,-28.54203877314204,-43.650126061369264,-53.20460919299652,-65.23095781472045,-94.1007035620361,-110.20122381482622,-102.58761894475954,-100.32909191572271,-99.18450985544482,-80.00151738705415,-64.21437749363113,-60.45178762708261,-43.54552194357957,-21.793431549756,-16.865674073388085,-9.353667756969696,7.716802423470691,9.781787350052927,7.265200258352809,21.710729204330335,31.102017021625397,26.589077631311874,33.872955462745004,43.45746512601558,32.21483092860081,23.165288358266686,28.255848295846793,21.976765907946337,13.862773878120308,26.528176366778915,34.317771757905966,26.179223342552234,31.025564042668293,42.65674989752396,39.732118004808235,41.31372441095531,52.977331603143185,50.029001339827836,42.94117838675656,50.33020615467229,45.674697274610125,19.74257050687555,3.263789540053721,-5.5194217005456325,-22.306786269417955,-24.80207632288686,-10.911029509428545,-13.077311848167794,-22.121337503070432,-13.463913836271008,-7.633435453158565,-11.242795369505897,3.3196502503604357,24.03540506963791,21.027062357475934,9.998021935996663,4.8028222052811245,-7.6166280702711475,-11.419584466547668,10.300012099253145,25.44188351643967,18.67863859080802,16.019206054712168,14.680055113109914,0.7179956729216457,-4.293687527293203,0.9476307170326885,-11.31176428764808,-25.87367706922009,-16.215448824228105,-4.954923300189195,-5.076773511215956,0.5672715248154279,-5.301452702180382,-40.217218945994404,-67.50480342568592,-68.18807035418601,-69.69047867328902,-71.8705862731931,-61.47758333584217,-62.670160263200856,-78.84093128428218,-76.43074210217259,-61.927823018576404,-59.201341182584585,-49.04088948512371,-26.00576815526204,-18.244455381137584,-16.273475197323116,2.647601275772227,16.88887164817578,16.995907252995238,28.108034633621852,41.52039868814784,35.375695251305885,30.94963237765875,38.20124357198105,35.27236287119741,33.74927849855631,52.8197842747647,65.3602714172912,56.884092069054994,52.946577302037255,53.65861716702854,43.95693023147344,41.80154103389671,49.294790022957784,37.003774018002886,13.648104176819679,6.154878595907352,-0.09300920242257349,-13.76817307194727,-14.671975953367859,-15.216053115585892,-38.36746365671416,-60.77966361254016,-65.88008041008682,-71.20735581280056,-68.19198632113893,-43.80188040035086,-28.96121125505251,-35.28518147326858,-33.11277975082716,-24.41059506441369,-25.19800070718717,-12.274483729263643,19.003658153847066,34.544133887491206,36.8948319195137,47.119062454024885,47.8801834107893,37.9052652336358,46.58080719484344,59.603984860766346,47.18936862384217,31.618441350293594,33.14630889044049,36.65185437839531,49.56344587598146,82.33985148674876,100.76908988196658,89.91910608440384,79.68170662877017,71.96195319517903,53.978395406636366,47.435708726615985,53.4125607018271,39.89630352408941,15.857374005473403,6.720978385333399,-2.827770901793981,-17.120816797863434,-16.822834384906567,-20.401614184230095,-47.90819806958328,-67.19691533959586,-59.98773883119617,-49.95975998649492,-36.15385835519433,-8.563153434764352,5.739696491685897,1.0317748417006016,9.24149031436343,26.19884330805789,30.480668403056313,38.83444522928166,54.76996725348116,51.51072882304652,39.87417293038093,45.07101951797799,48.020495025332096,38.45826296336949,40.91426472226722,48.954321162105046,41.463930032025544,37.31446761598443,43.45616576728753,33.60858653982688,17.171577106991787,18.951598832901404,17.3827045064496,-2.8703526796902956,-18.270720937292467,-29.576746543988644,-51.502439474711984,-63.01935953414767,-58.98165457705921,-69.15287591148845,-86.81067662873022,-88.68426368334532,-95.2957939652723,-115.47981951441069,-119.6186794593021,-110.56058444176412,-109.27500288515768,-99.83035038130168,-80.04601834891005,-76.30582551090443,-74.1402141221401,-47.44626302179914,-19.92620298982495,-8.128078866943216,7.026538942856173,19.71386699371079,16.88180981242087,23.085466566897153,42.932008801248934,46.20210165291192,40.957705473862546,50.93266233943627,56.922423398295464,49.427487342305426,49.95153872964986,49.06075864062549,31.95823882020646,28.06136494695937,46.836902224685325,54.07055388893319,46.43090963710767,41.33858430896314,25.19226302373716,0.9980762232050786,0.7950704463817733,12.26947681614894,2.6843483850928833,-13.630015925505484,-24.58007130511311,-47.82905147560557,-69.45469545654296,-68.67520455204131,-71.4126339547823,-86.27277954374252,-81.55403520005842,-62.18962381633159,-52.557097194925355,-38.7846396258658,-19.62626683649274,-21.43467260834448,-28.978652508920018,-13.704356116880511,4.5359150009417455,13.979369067582121,36.169807872999975,57.674899103971924,53.23384648708503,46.91638459854308,54.036084512153636,52.87524655629718,51.93497281296584,67.22300631757894,69.0222420095078,48.25629354011585,40.86852350300961,47.834702075703525,47.68154507347501,55.48977379536254,71.78659370995598,64.90743857136651,45.52552160669644,41.49308694366896,32.73907898757503,8.64652085745475,-3.9912802314880484,-10.454642381394068,-31.32564255164026,-46.95971254737066,-50.28209516601634,-66.55930219956079,-83.25435688084502,-73.52291374330926,-59.19868711406758,-56.59930653594792,-47.64702918601567,-41.649744847692915,-54.002539179862765,-55.665471407924905,-33.98733821151879,-17.57092535922276,-6.343034678003452,14.185381917114759,20.01627573316107,3.483688923506329,-2.794222585860857,1.911124687127065,-2.338328046605796,0.22960519626621734,15.707339381071519,19.827858689079175,20.465416259915333,37.251810673357966,45.87746427828303,31.953814772086602,21.471963181042046,15.602340222024814,-1.9594172620049113,-12.893977829476947,-8.852124356208272,-13.056118190090396,-18.269262057257354,-6.900304016460527,-6.186737817491865,-30.492066908055776,-50.27845863986316,-60.92456991507039,-74.54864237313052,-70.25917080111914,-45.505997945527604,-32.3065243930037,-25.341052388479156,-3.22822842749839,12.523641018415848,12.077768502897342,22.68238290792387,39.561133906518236,40.69170575297177,43.80297351642333,55.927856809904995,50.33650780974291,36.01543558493812,39.92745797215555,44.23542388302144,35.70925361528995,36.636481214071836,41.61701043245944,30.583664038422828,23.92939921920774,30.841505517369953,23.627715788051496,8.52057646163826,10.577231860283783,11.411085913222813,-1.3345988291824433,-5.777356953646766,-9.668103356142227,-32.95434047385752,-52.64374376619624,-56.91175138477446,-69.58584883079925,-81.08143934360426,-68.08304458562354,-55.30169285199487,-59.958134615086195,-59.82051846291495,-57.1518610560159,-63.23148962709559,-51.50622835893894,-17.643375437902623,1.2753478640302465,4.099009403563231,14.610195746523555,22.06770393143919,22.974570680897422,40.000559073772415,59.04629202948111,53.99021745318092,47.46373566338523,55.504032928887895,55.581440608436864,51.004613386030734,58.548338741610294,56.872555884903086,39.28942988792008,33.705567569386375,30.88830329369308,7.536935996950739,-9.151488280284926,-0.1074538725063583,8.69393013104543,12.261434402344866,19.058177294609596,4.745609965265777,-31.56987981855096,-49.51192096915799,-47.27334059640743,-51.02188989678144,-49.793167828784654,-34.59376582303214,-27.243539211045416,-23.07005436453721,-3.9727881977010746,7.944133662862018,0.7491703612452705,1.4992534908600563,8.34454524048599,-0.5213366484694584,-7.008873824850438,2.363558129523942,5.931014980668236,8.961682057369703,30.540987412085556,45.35232943479011,35.735454263071794,26.254153720237912,18.20434236409553,-3.42590965567537,-16.029195518819588,-8.862863409667955,-10.487329736905487,-18.78318446145735,-11.025725460042278,-6.371388355503718,-18.207449128604846,-22.101705655262464,-22.886161697501457,-41.30873206165484,-53.3608508054121,-46.49464497998508,-51.17061736734531,-64.05041278789207,-57.90859909886403,-47.72279756895935,-44.44630418020607,-26.768566580150797,-5.7516101804332,-5.895860884132749,-4.9798641276803615,11.68966896374621,19.944431246675094,23.33503847503149,40.826326636091224,51.903998820087835,46.50999974262179,48.32492720218936,50.036905142746576,34.12499920971641,27.474272361808367,42.09889776660208,48.591315161700365,47.17215116205758,55.92482047969527,56.589950886789836,44.27172393426618,48.369575164456634,60.68651194928313,53.343736547361786,43.47941071309004,40.976444878911124,20.21142558844911,-7.7446524519015485,-12.777994824249893,-14.09923798702886,-29.71211984631969,-40.64060180246261,-53.64947784816535,-83.72231960201445,-95.65560623023751,-69.73927183603118,-42.31164378059822,-25.532826025205175,-3.409623308012611,8.199043308081261,4.540202701305555,16.018427876351545,36.61332496314739,40.20359741317303,45.95562740306472,65.76367372936137,71.9475795741044,66.28305414160246,68.95072920130748,62.38335175096716,40.78310635389826,31.884650098934888,29.5552003182244,13.52415307786572,5.497147048292211,13.422835852670223,6.7669215211970934,-11.77563221701325,-18.190303435128797,-25.09542271279592,-37.02696781754156,-29.2441064832555,-13.205757831618506,-17.785863340881875,-26.910142212324025,-27.32724025289083,-39.95848465066868,-58.38320734287146,-60.92680014790767,-65.01702905857229,-79.38190220790688,-79.16841893098078,-71.16045905923093,-78.51955576017008,-81.50512368148074,-65.8096031539133,-52.92319624504999,-38.99396295494199,-8.391082711038877,13.850398448722524,15.662258850313584,23.8485080786496,34.812745295579404,28.212766043302317,23.824891800427356,32.408082585270115,32.183720642682104,31.43296393702559,48.28369382796891,57.32238739078385,45.48754149872041,39.485769324068926,38.1824168552574,24.576444032536074,20.215373379156993,32.80246520897209,32.2640116955227,24.050775606282343,32.654860600917765,36.04073831834202,19.145795883902807,8.41996760317613,1.6544715481325611,-22.797509856842733,-44.88470057373064,-51.46747102913817,-65.72440296521762,-79.18257243395168,-67.68144088261536,-55.332457258702604,-60.77928545138299,-59.41899732277794,-49.80575913406477,-48.39085384050831,-36.241959704245176,-7.964691332643564,6.010840412900456,11.888654390543163,34.677409944375036,52.43487960737336,49.51132078272603,50.687400779077265,53.439142178896546,38.83069263547002,30.30068394347884,40.59118419859275,39.94967539432091,31.127247235488284,40.002482693726016,46.48735374863048,35.1256713306338,32.30175053270723,33.375164413277936,12.327539244826772,-8.09703656373427,-5.629364498346306,-1.420826881147867,4.056774889389861,24.62314046047379,30.345595568734538,3.1565085606140126,-24.89598025769203,-45.52981922947197,-75.12531917584202,-94.4795269051395,-90.45139234793811,-85.68663512689436,-75.52520465500982,-41.744658892103445,-12.23400495196482,-6.329916590136009,0.9763414023391279,9.068311216946915,0.8148485329320616,0.42127435473923447,18.679755425007755,26.194427013282187,26.735494190108316,41.87863917046574,48.48317118117726,31.82413105194399,20.425690443701583,18.00903627596273,9.424616521786938,17.358796028420052,49.05099828788529,64.70211266420257,57.81467321378882,54.911390756976964,48.89230138738935,36.087538015915996,41.0047398936554,50.96631370575367,35.93869946333679,16.068642628823774,10.454011752205346,-1.0357752676266188,-14.828863076545364,-13.770145288463322,-21.954317663348554,-52.1097834016635,-74.47566603737852,-84.96253783998975,-98.95610120131994,-95.92863267185326,-68.92700775663832,-52.95008278174135,-50.84685684135962,-39.3875525175368,-32.92641007580444,-39.545628212913584,-31.793683716063462,-13.453144866401702,-6.664582397946948,7.428070333623991,35.03162609635335,41.045024220622366,27.7649369924886,27.250000187410787,31.099718027582302,30.34781752048802,44.67956030121843,59.939186205560915,48.78474188778229,35.88722183852609,41.080158211603184,39.193058805059245,32.081879493156485,43.37223331504382,53.18035107570048,45.08295169078908,40.783192214066815,35.62435091593489,11.292566753974565,-6.620389457846858,-3.421661795311741,-8.45698485499954,-22.919167855187787,-25.221467503611947,-33.62534361405994,-60.50207397875437,-78.82158783632677,-87.7090477640613,-103.62658561900405,-104.2403641152581,-79.70188592584998,-60.94265094565202,-48.27650098234255,-20.46516037478339,1.999755378034668,1.685963985095181,0.42412057904638256,-0.6460404933266035,-14.202371272262782,-14.716101734509696,9.397113573369298,25.147075079236913,27.12419105938048,35.135106207369645,35.757595837085056,22.939820168595862,24.24266379707698,36.13154111375966,34.72599095595733,36.51954230712151,52.35588691246531,54.59980743221365,43.9229437727259,42.39762590197233,33.03391434794484,7.702493060457369,-1.9334733084373232,1.7170862019101634,-9.53763132397987,-21.664156639305595,-23.24327024454027,-38.402330305635,-60.32729925909716,-63.350415051957015,-66.45587076680121,-83.11007086615476,-83.91555836350423,-67.23427034176956,-59.59421476340754,-51.147761814781866,-31.356045120559983,-22.157913966423365,-17.40742471557916,6.33085367940292,25.952780185209548,21.934707148873244,21.177911194290704,29.63970314988637,28.418999258487084,30.568061840878126,42.81081220383517,40.06837532482623,31.291402803069936,44.87576124440591,60.316934532914836,55.20822952300405,49.672493533889494,46.76390312679459,32.42351898943233,28.09312829640082,43.160335490165785,43.988505258823416,28.74545184551451,25.176508525603843,21.36982593965716,4.559327880009209,-2.6599796741143753,-5.746416496091956,-29.274498671868095,-52.28562165520798,-57.007037677999286,-69.12179768279651,-87.84808742388937,-87.20902840672444,-82.35596727410663,-87.31120296180936,-77.5109110066433,-57.039247071583716,-52.601232465250426,-47.104348011984555,-25.165676705055468,-12.035351541308891,-7.574490396863822,10.605719548846654,25.647048808664806,23.612544511015884,28.70443490121047,40.36451306202325,37.46569148807878,38.15446525045968,56.582195363706525,65.97285595606958,63.81844448966754,71.63708014417928,73.85059526836237,59.52790309601245,58.04216128387839,70.2752763438223,69.48053173293783,66.09437069211991,68.89268725745427,52.969278284753926,26.864917713447667,22.502261068981106,23.891904939609567,10.741422575220751,1.6921321238889837,-7.336170298729658,-37.52717932275138,-65.9063637065581,-73.24551625611203,-81.44382440148175,-87.3396763749235,-69.26874080904793,-49.79395798527065,-48.23042391301167,-42.37483514363111,-32.49592611721529,-36.09590876264575,-31.99708559057497,-8.177355411945381,7.230365304908767,13.217782829830611,29.21417982445431,36.20921778920099,25.315677512482928,29.342605176820907,48.119219571646546,52.90086941347066,54.419243499099096,63.09690355097998,57.37476086312206,47.74617961699726,61.925391701275856,76.17244094518695,65.91998325703386,55.08882767648595,51.663743543852924,39.809732515729664,35.77502701002646,46.93390530293392,40.58659440577765,17.4738503984619,8.491890714087349,0.843832641015855,-22.661627007968814,-39.8743612267599,-51.607202913597924,-77.46436299961161,-94.58905865556622,-87.8995506844332,-85.1918206184085,-83.89022666338151,-59.57409314595425,-34.25267209135023,-28.855487181192718,-22.93665762356805,-17.067079140943164,-26.94286292355009,-27.275814999181208,-4.083898350710533,9.89322595505228,10.029682183464505,19.791893676086225,25.169391672672525,16.38547936109469,21.272838353385904,36.17759002146571,33.283314864450254,28.307192636928512,38.39080064422917,42.20737766001615,40.140781247981494,50.97436193677214,53.14455336747232,31.493331547974517,16.924803198683097,15.610861578112111,3.422671682287154,-9.258108312990384,-10.491680831943421,-20.82348952370777,-34.4567968835241,-28.54639187962893,-26.43965517499166,-49.94509849681509,-73.51500703490353,-87.54020573472994,-105.51420596840171,-109.27789168546167,-88.24027651301903,-72.6081885595323,-67.23699814027496,-50.35702178677582,-36.40421963817293,-38.94481320176454,-32.35632680643003,-15.498225198319359,-12.208379055551614,-7.541047741066485,11.884658175248582,19.51540931325141,15.140979199114263,24.186989698877884,33.30651881200335,29.685751287711344,37.9295167655164,54.427582795856495,50.505108062512164,42.10896379981784,48.896163878211645,48.383452901249896,40.07140797354069,46.88945052912211,49.62101559294261,30.450434909268502,18.10037420819544,18.708132549772003,8.627532030021527,0.2977932421768905,4.5568362327839385,-6.834758733314391,-31.29461537289925,-38.88934491507759,-44.76622747105796,-66.87347348085292,-79.74991948132913,-77.66415339435596,-78.76687654517227,-69.47245234244932,-45.843931338830345,-41.47157425115191,-53.51153212765626,-45.517838708124394,-24.053949601617152,-10.06681166081453,8.056923436307741,25.615930416952928,22.153400301509418,18.682929782240027,34.11594416834812,43.302153643336354,43.280158099029066,57.49888864928378,69.89743568065721,60.354188591584446,48.957020747835905,40.07016133689795,19.19045796848987,7.195912681466365,16.821340974903833,15.687314683649939,-1.783665418201502,-7.639712636091213,-9.930709268141129,-21.957173664686007,-21.06580745426989,-10.461819190661044,-18.8761110982625,-30.4984515995875,-26.620746476627033,-34.34389762604785,-58.11525350218273,-70.64922710800226,-79.74460312596062,-93.76319760021336,-83.65188852322723,-52.48241567237559,-36.352778093845,-28.842529810866143,-13.211337784272393,-8.113269480714646,-9.412712990165154,8.82417806833763,27.859171132063242,27.403534901526214,32.93562734257147,48.62689720697708,50.891106125944226,53.76473207448011,70.66134312262258,73.93306152496429,63.18516507149016,68.38911345144858,77.70901234883074,71.39400098313703,69.30803474531642,70.6301916753766,51.71718587092781,35.33379428405152,45.657686443978434,53.396776766926465,46.287177469502645,43.8300852033275,32.31960521532455,3.398284828487675,-7.566050099321776,1.551967422476344,-5.270199839052744,-22.98467935221818,-32.5542601099057,-47.57017935143469,-61.48157745963415,-49.97636329109493,-35.49063073879013,-41.67218658619858,-41.618839132571566,-25.81115882136472,-17.53107128046301,-9.080356386851923,10.231037438129377,18.265721383138956,20.004260018910898,42.87469260521774,66.8274232663354,66.22737781621306,63.81656098081665,68.07576902665136,59.48824814076785,53.33119422473983,64.97404033647938,67.34496061603605,57.54441627445121,61.757342651915096,64.86881598533041,46.546685489942064,32.12820952509258,30.522413377589526,19.691691616695266,10.489188951154494,16.232304227275492,10.863912571449529,-6.656568091358046,-8.75002890000398,-10.424945733703595,-33.62076198829857,-55.32498388999679,-65.99473953756865,-82.51193460922896,-90.11496107229185,-76.88166877447111,-72.50716197016314,-79.385399655548,-66.93938577341893,-46.41645593479663,-39.91528213431283,-29.34820294268406,-13.082817520307465,-12.296500518380764,-8.727505726130797,14.24775676502669,27.240070828652346,25.945572804316484,37.75191836059304,49.44197985250646,43.953637147962006,45.8626631722836,55.724180584764554,47.786978951958176,38.17262351684289,45.66749287127774,46.6877114619361,39.947737160488735,50.62850962469906,60.98101023448087,47.72597178001368,33.07591670337891,23.65933790423016,0.9924834398644826,-15.732283408205468,-8.555384887746865,-7.63466353233549,-24.762946133315623,-39.73100435330161,-61.32190085950176,-95.65675276873624,-111.0968100326428,-105.42188300665138,-109.22116688352882,-113.42405434012173,-98.37947064646823,-82.99916856286106,-72.81577523416712,-52.304913407735654,-39.48270809405664,-46.769111237825065,-41.76286018346122,-17.435647207486358,-3.746570116835075,2.8113038887834745,16.423371021579683,19.263181635013037,13.687176251649106,23.97876302554189,33.994742367355975,24.334829531411238,19.94579555770663,26.977017060835514,21.04144445404542,14.971136559167121,25.66113701793793,26.193718097998776,13.298485216903707,16.604085638728016,23.412210967239353,12.811174532506035,8.114639059410731,12.064714582690979,-1.338680649908695,-16.40912788428759,-14.431357988916552,-24.17773072533351,-51.3129022649064,-63.11576756813473,-65.48480894015478,-78.68951359475415,-81.72812500611163,-69.41499514244886,-66.47859234716907,-58.442718731280976,-26.493318476331147,-2.5933889876030265,1.1251387823263936,11.956671451229692,21.68321290789945,13.736883461607407,14.168418646857003,28.747965778188885,31.55656034441324,33.74518588923549,51.07604744925217,56.65053545463942,44.99318875302831,44.063858869704674,46.55281217181514,36.119366643378854,33.7311927993526,40.65208216390492,29.59870009700284,13.420230020337168,16.26126726235756,19.431654255794413,15.189331608672092,20.74644041917647,18.682004443500976,-7.786026975146639,-29.154905223811703,-35.95164858226625,-51.72305016144178,-64.96675023344895,-58.59997827840389,-58.14176047244907,-71.84837320308654,-78.32042427283457,-87.52937055898849,-107.27050256790478,-103.10614285248455,-68.99983741930129,-41.22796182661344,-24.008460921413953,-6.351990185432383,-6.460423414612932,-19.603664284456723,-13.301815096982423,1.1891839759197333,-0.5606543262418016,2.495121903223221,18.67996286957566,23.227703847471666,25.71669525588866,44.18050702714626,53.99696213824143,48.893644238169564,55.220819695121044,62.137912609918445,51.15708595764322,47.93662381422339,60.69129128832985,62.799318591487776,59.812243471618466,67.51741621977195,66.49735096547361,55.18434129640211,58.03775480175322,60.63749348880686,40.25437204993169,19.398713431397702,9.150932026628997,-10.364779799022863,-27.616531105997513,-26.183414307835363,-31.94788458671441,-49.5627997172909,-48.76136954906603,-38.88200299419804,-40.82416536482989,-32.32563918210276,-9.753320467820686,-2.111839579110895,1.5443333854942671,21.297296689885066,30.314736827974166,18.073985917266484,10.994012360126792,4.864753112958004,-11.67732451453546,-11.680750769099358,8.885862902405348,17.82214479325134,20.54730882937499,38.113074656388896,48.94394217334224,42.449724859431434,41.17786172925667,35.739066881158294,11.905171612304462,1.5125600256811034,12.815973737050278,11.521138835663685,0.8478363799659681,0.278760525304226,-10.109758913103265,-33.63466778336898,-42.15363586287204,-45.65582639860434,-65.17479111267754,-76.33826207808737,-69.3868178449012,-71.70967831500141,-75.25920380171566,-56.75885515606339,-36.52315497564928,-24.718902026785916,-1.3107261649762947,18.226466179481545,11.778798533234276,8.320047597139112,26.038158963534713,40.64620037162417,51.542552952095534,70.4740932756635,73.34266862659909,56.37652340567779,53.48697021334978,58.90469859235366,48.95784818994066,45.547838762346196,57.985836962367905,58.27706755193639,51.84075033846639,55.972261460299286,49.154148877194324,29.972574466840594,28.5833602640484,33.1733036693794,18.077968988155813,3.646634934316572,0.6349954475406561,-14.076040057338437,-33.82471550160692,-41.96932496169704,-60.52299966891188,-91.65953936919901,-100.94505306883146,-93.67159554857838,-96.07069802204828,-93.63923850808106,-80.13298623096819,-79.30297698948789,-80.15353246083562,-59.617542370272815,-39.10734499567979,-29.608212805170606,-7.609768943803019,17.20275178263279,21.718188421630096,26.459613877549355,40.76429848127354,40.371409002922384,35.45777095246404,47.98238780797103,55.56702898049038,48.76165142375261,54.29215599667308,65.33010831897803,59.85903083322472,57.73662228119561,66.29325758515762,57.22464355228116,38.75279283607939,36.799426779929,33.10198019244613,17.952729347559917,15.486630849966646,16.506571791396116,-0.6186393335611484,-13.665953488995589,-13.648037340397567,-28.090341810838435,-49.70981216497852,-55.92385468480973,-67.31955048411226,-91.11344999476306,-98.55266097107656,-96.45766075457165,-105.2204680736454,-102.35139488451858,-79.75319339962095,-63.9443746152817,-47.714651575397205,-13.395639742974272,12.42838936077272,17.002636529888388,25.52263540988637,34.203088799362526,28.543858547859205,32.531830498475856,50.523349937589074,50.47252317254382,39.39394857493259,43.6628977984907,47.91970711501712,44.549621789715246,54.69035000589982,65.69488520439434,56.51160486304234,50.82480469545992,58.22571762673059,50.75023531220404,34.10106250253981,33.3829390188095,34.55878308905747,29.75385587562417,37.86700826170823,42.46219734492111,18.779457073413198,-6.8090212528868665,-17.309720169949152,-35.47198156733137,-54.92991969543507,-56.56398671503972,-61.41002719278619,-74.99748619634707,-68.28413566401582,-48.35281138159511,-39.73539858560802,-28.003055852141557,-8.839226336342241,-6.8688510851503235,-10.434048384411295,4.926746519469807,17.85923369404107,14.808042096574315,18.522157249605176,25.18163311201276,20.16057114082781,27.8962958029625,53.561239208103174,61.86379661522392,54.19336530200761,53.9063711131425,45.94623194652664,26.3008895082828,23.268709988673457,29.297304886623447,22.13964388152136,23.75912186366886,43.115130008796314,48.010307817645334,37.93855766042071,33.17111980969642,18.104348127522435,-9.405673805046938,-18.887712363149703,-20.254445143964166,-43.360507970724605,-69.6530826501087,-81.98640954238033,-98.53217292320355,-109.38088413893307,-92.6152477773808,-72.47917905639375,-63.84039047693929,-42.64742053787267,-16.642303160449377,-11.493151266076314,-8.181211219843522,8.226929457651119,16.616596826157178,22.71132123674732,47.00687068805087,67.15896334434136,67.19486077149045,69.2312327288461,68.78394679218938,48.24237752837266,35.63666262389541,48.67441882029115,59.65292800082202,64.3794187494022,75.23428380092247,69.32168366323107,43.39909413379736,34.49499875358031,38.88970408574642,27.19400467380723,13.549085083118767,8.590429471682514,-8.134798881265102,-24.200565069709963,-18.72088149509252,-22.59360130955472,-54.07147308809795,-82.00919715591988,-100.10510410443615,-123.30739161642286,-132.9082148759322,-124.57182859551241,-128.96711211126592,-137.75499315481127,-121.31381679525634,-97.27435326130592,-82.83989992333228,-60.68687397087133,-38.245014675978716,-33.977876702582805,-25.616426739439056,-2.6323910157405317,8.366003507712577,11.487393163187228,28.259711020448876,41.22522306154985,41.41125315284525,51.129057602638625,61.12559316847063,50.43408054193808,41.701665164005696,47.1085410672825,42.60397707248008,36.09911570414913,49.577101349920454,59.1209637148854,50.67531973744242,49.51549558299912,49.52909552264703,30.206179904272766,16.642757983296562,21.065154056342955,14.881507958803983,2.428765254217703,5.819696271675763,5.646892999392876,-6.7834517377305055,-3.922123006977647,7.282996900696058,-1.1262672806363812,-13.077951828061634,-13.452673068814583,-21.7801648646267,-30.601240903196132,-17.873534916980436,-7.259480206077697,-16.994910036007507,-21.89966420006117,-20.019409118263724,-30.039238962325943,-33.77954540634636,-20.88552951674213,-17.65705057505458,-20.741116847653362,-7.164266339595258,5.905414540561835,5.234688203324644,11.795722890274275,18.607963167179523,3.5456936150563623,-10.612237216995993,-7.370602845014715,-9.869497158830706,-12.705510165812411,4.964042498361325,16.59121127861308,3.400301328287436,-8.23114551245192,-16.776285022120522,-37.19853969062742,-42.28346745764303,-19.70961242411702,-3.8663642458686533,2.863567286755196,22.426675422105134,35.25393418784142,28.70214708713975,29.129992093935275,33.5936733554802,22.198280235846905,18.372777682344566,34.2299977987013,38.180063200018424,29.83063729810602,32.819503899587055,31.068253284101594,15.418168281934996,12.673582769245632,15.738997606460574,-1.4479009750101923,-17.09801947684646,-14.53572141548534,-19.32974882169501,-28.027636647433418,-17.06610856430263,-6.405721625898017,-9.764266026493056,-4.789851162536516,-2.4381635629641085,-27.190643782494664,-50.70450547575204,-50.89167558483042,-52.06812907935918,-55.413920741792424,-43.89660860615494,-37.08590076033377,-41.975516742696996,-28.990149744553413,-5.559855664005278,-2.5728723919644594,-4.218871539976465,7.495762793479457,12.554049235811977,12.446956479963312,27.26932326669577,41.269079130299616,44.40374128358639,59.77799629160898,77.5086663007202,67.39556856319888,49.25886662380964,48.22337267107677,48.55177333398427,49.494825584071535,63.37883532223755,65.4705708110893,44.63322309542278,35.58804781293668,42.520853002192325,37.43902691909519,29.957559239656845,31.294802349421886,18.21179937476871,-2.5054569815509904,-3.4726861331356154,-4.549271214693731,-24.96191983618672,-42.06685905929085,-57.00402526820483,-88.79745499700675,-113.86342504670685,-116.9557417237147,-125.91063483388247,-138.44260399904684,-128.01664134643673,-111.36103293160875,-103.53121658950323,-80.53426355079293,-47.14382898706108,-32.15805335885755,-22.129979797531373,-3.599735852469018,0.044442911012105846,-3.9529527337970434,16.165316981449013,44.23631782771487,55.98413598874808,64.59387464885774,64.94189923610598,40.14955585193705,18.93373816996286,22.113656900535993,23.01591134322568,19.592965968888997,33.318956088707026,45.36897108480383,40.29890991496378,40.21964465166201,40.29577819099783,20.727960656679624,8.878208142993604,22.011309311545336,25.999217367343398,13.492450590631213,7.726700820209169,-2.7271014205660924,-24.53791582222093,-30.792172452908943,-29.670326608092225,-50.307357399434956,-72.40882163039126,-75.3242753571977,-81.80835300159558,-91.83640146836797,-82.28213314248067,-67.75146837983297,-59.8670004385875,-36.77410521412233,-10.359546049470481,-11.985413631749179,-19.00338605405039,-3.7201759191127923,15.22881073840947,32.45597509141106,57.748692903549774,65.08093760893941,45.1912697837292,36.62069840986392,44.953539377897805,44.01386237336661,47.28681916060816,68.04724647736424,81.26285612835682,85.77541243350815,97.6272318354662,93.22595174126535,62.37091201383919,42.77766671618788,40.869265226683446,30.14542392049531,21.722457690898604,26.04728104434275,15.616476365631758,-8.27060306626193,-20.635190591612307,-38.000793893645934,-69.6999500768585,-81.20811686566522,-71.30170515518466,-69.74550047239656,-66.44074673690822,-49.464756441361736,-39.028063059537686,-27.97968532317813,5.908311626842785,37.77395648279381,43.81522099252289,45.5672531465713,47.71235575914833,34.68144265634865,28.04031892888414,42.69410131289794,49.70077062754065,45.380363158740685,52.264826974035635,56.31418302044052,46.62776966658535,48.94585591676109,60.383559608840194,55.14726449408505,48.32405864266589,52.333528838889364,39.78392942089545,12.687486604946884,2.164374798659751,0.3073522625267693,-4.851598541947084,5.7913544813731,20.212860528986862,5.058947186870472,-22.22547333932399,-36.38366099989293,-54.85864901105977,-78.21012185715594,-85.36761154469897,-92.24416127247888,-111.36981290858677,-115.02849679698268,-102.26718098865138,-99.3122730345567,-92.98089618057428,-69.07862899511245,-53.303565147195954,-48.183766482994145,-32.91646453743222,-23.739872742010007,-30.4084323764559,-21.483312714753094,3.8352005139893013,16.030700198135698,23.858449073173418,38.986087539163286,39.0923752692884,29.65882791101449,38.25729351147157,46.409722247555266,33.84806245281725,27.495522819268587,33.3915333951633,27.09211472864543,21.45305593988676,30.18459131954568,25.945038159515622,9.720313805977392,11.107886558695728,13.69830535625556,-4.83076132373371,-20.789176019815766,-27.183137730500388,-43.85108201123673,-56.54168775519883,-53.200616983203155,-62.1076923589125,-83.55608696226348,-87.81465484666347,-85.84486607198727,-93.61854648794684,-89.22243326449721,-72.84084631383594,-65.86930654218763,-51.64153082229487,-19.74963730247437,-1.4631371203125312,1.9947140156236387,18.866261546732076,36.37902964495418,38.55356337599497,48.08170675780112,63.518255081256775,61.347467700123474,60.226673392629024,75.85530585985524,79.79317325633865,70.47902209744323,76.42272082411439,86.43862979518192,84.10965924705101,89.13729079967717,98.24394228087255,86.86707137920232,72.11104566625018,71.96539960177125,63.18805652935102,44.76343343779682,41.19957406104708,38.070836826658535,18.49272430619406,6.246893792769926,3.0502763530378485,-16.795223222071783,-40.24376795703518,-52.08058108912577,-76.41595952344068,-107.56323312151484,-109.72659851614488,-94.37732436410226,-85.00261792278563,-67.34210537580555,-46.46545051128376,-45.5297069946167,-43.252113229479804,-20.768948776541187,-5.580520945695617,-1.2447896906031504,17.9717483658048,39.48584859823995,46.966002786944095,59.73953568543857,73.69014477178477,66.27646252877784,58.696098069825595,69.50974605702481,72.59602277471137,65.79369261907073,74.48875673052711,84.44017771845549,77.11136765957617,71.8127446201251,68.55256742410377,49.51543691419781,37.85103664754858,51.341036074105446,58.717956522799845,49.47831448131247,45.234055351851076,35.81750640053324,10.88523433325274,-4.071154754663126,-11.604370678734481,-38.591697588779034,-67.05459257983469,-74.64968001551782,-80.77515751056526,-85.89606092279143,-69.25369420450156,-51.96029492885613,-54.11583047459517,-48.738961330874005,-30.857814995972163,-26.244977735863902,-23.865773095522137,-10.174831765574895,-8.12900691740945,-13.268340494439338,2.5769967396936586,22.002744811614875,23.395077620447545,29.475699746379682,45.53706432030237,50.28006899462913,55.725469479175345,72.04929272086997,70.2156016832125,49.331343739400026,39.976313619653254,33.540894368121414,16.122688144407213,12.459645272372068,21.97711636445319,14.80872390742222,1.8594274834812135,0.9318185317293963,-9.273486010782841,-29.169208487026236,-35.32205468265851,-45.368358719654765,-76.58146646791602,-99.53648825099543,-106.09115093963267,-118.77300980827701,-124.49566484179677,-107.1762606881062,-88.99408638029999,-72.11152147824829,-38.75448551508397,-12.815927383423812,-16.774799593725717,-23.941540099757628,-23.0352181994105,-30.18195197526248,-29.218262176065828,-9.064604892082126,-1.3313953079911818,-8.358614396214781,0.055868258496781564,12.387748308125014,9.861597256617458,13.623855506976371,23.74572872804637,14.878214280344254,3.4805082607395237,12.340827673427377,20.097108033134027,19.919036286708995,32.60843576598213,42.4944053232311,27.417750755919116,10.69190722456693,4.235956218969302,-9.40599034041803,-17.835299786507335,-8.162916715488283,-10.829970729443644,-35.47858541421901,-55.0098324620368,-72.68017272450314,-98.92181581872939,-107.63316099899797,-95.91131910228017,-92.75273224733488,-88.43183961458547,-65.22848194895685,-48.88681667646207,-46.567385076415306,-32.79837572462171,-17.03144782663076,-13.680744884883811,2.1728534958818155,30.031598400944077,38.830971084510956,39.671313678161795,52.469182640498175,56.38540069190992,48.34199004996936,50.779666881697274,49.508399503382996,29.49208837419733,19.858621376749316,30.739369648499796,39.49190927911877,51.87101211835095,74.45260959349017,76.22319072729556,52.87428561134758,38.00503401162601,31.892455100249247,21.26132946978852,23.41481076142433,32.82399540472457,17.749471968324883,-8.386962566990562,-19.662251138270538,-33.52386060435929,-52.936743475538236,-53.48213601506886,-49.24076748974677,-57.7404654117625,-51.60597001130277,-27.94947017930867,-18.82791877076323,-14.73656715316937,5.565632460229581,23.974157142448835,40.064065830567486,74.48697589222202,103.05085792112008,100.86949206533859,96.64396112082163,103.24683868185645,98.4173965560446,91.27568613632545,95.22086672162143,86.36108440802045,66.34652050707297,66.84424409684557,76.16855108514264,70.91608405173417,69.70038979779976,75.75754776583946,64.60143821187344,49.537079957965105,50.59403866780155,45.37945847427524,29.56457464289305,28.49657779540268,28.34738102854299,7.087918838846191,-13.386712439105338,-26.649642269493576,-53.6582925789953,-77.75352236481247,-77.97562607550746,-76.73047948191794,-78.8492056622074,-61.06300571438645,-38.5940894864154,-35.14343086917692,-32.185621831243736,-24.73084662069327,-32.380472215369494,-36.00373245909353,-14.684357863391329,2.589781803700578,3.2769177320634473,9.45170480300785,12.319018659116436,0.05492617932877408,-0.9932711537790497,9.217304507705695,0.258902873670098,-13.913876913492066,-8.032443467722238,-1.77396615627806,-3.673097569637878,4.034424878678132,5.67959972408478,-13.856631909985403,-22.56312529627373,-10.901558961510268,-9.10609395206822,-11.975846210730476,-2.8738521542848963,-5.844783964340101,-25.133896007015288,-32.30857530079893,-38.75381260225436,-65.73176313667041,-88.59872271086014,-95.89586618804191,-106.5957431380553,-107.74495970128908,-85.41181086146074,-71.12555268224475,-76.8817684830917,-76.60638616484884,-73.43514706290033,-79.44262266093078,-72.08338415871935,-50.37445535394149,-42.17344898573593,-36.64789340184833,-15.891011636493126,-4.404202420771805,-8.55042124722764,-1.4383432622642869,10.202099842023774,9.697403286740737,18.027580316240787,35.676473913141905,31.282336384703328,15.888620680834444,16.655502341112047,17.340960165529967,11.044671732953113,17.680233246324796,21.051109882486234,0.5625298468991033,-14.600166491045167,-9.826346640177054,-9.679003179854309,-10.543442701847631,-1.2144336022381532,-8.981911642471946,-38.36936048043591,-55.774492602698,-61.51345474977755,-70.50935834825026,-62.39732402639614,-35.36837037247177,-20.51671689703525,-12.802638350090639,5.643956889023698,12.766789911057264,3.8518035002460937,8.229815416021758,19.606564218816295,19.567308614238552,28.22739099608745,47.475246223223024,49.55035696922894,47.53307199881602,63.672074378250144,71.9316491061145,60.71707060473734,55.765955890758974,53.543772624377134,43.036882040686365,49.213193251089315,70.9341087535433,71.88780531558352,59.0226230538085,57.69902408325987,51.618898598511755,34.97444093761344,29.931558576823768,24.81339451069733,3.8020769610421663,-6.254108052506414,-0.2756561641635127,-8.890844667447762,-25.445713094124265,-29.54173876491165,-38.73750494657926,-54.847902988190874,-51.85922933832933,-42.16591837852979,-48.12552312069158,-48.05442302982033,-33.75016471916762,-29.274672036276314,-24.08492856144949,0.021812707478412463,15.817727723703442,13.322777209134305,19.732089200405447,28.6168453578034,23.26916023806512,26.662662003424305,42.61434114915825,44.10273917099988,42.16687477266305,55.78451623538441,59.63467854508383,45.84078659537144,42.90765821542862,45.94828233353515,38.818843202528285,43.48434929802763,59.705239774427575,53.10689097056408,33.120865550613814,27.41705078100261,20.035435710381762,5.527089738749018,8.093905804089278,13.263752215122905,-5.524387903597966,-27.508478714168376,-39.08726937702752,-56.88559116164015,-66.97618852243686,-51.05186821029213,-35.97687505429525,-33.74995749720395,-21.464959282962525,-5.688875724478884,-1.6896381261030018,10.591584040613679,31.926388251003978,37.37372870887646,43.80967860943172,72.20884493204913,92.41692252412896,90.74540193317233,90.47446700118124,83.8599341898607,58.77448460463284,45.249156067110064,50.24670589548079,43.31590303287143,33.88413663783179,46.55549019704976,57.88261747318872,52.79266737884187,52.970125439705896,50.20147998040625,24.931847041047952,1.854145664842831,-5.539509563233787,-19.315372829983172,-30.78294880184259,-22.434381522437096,-22.132821141359198,-42.487276472383925,-56.69588362459925,-68.12006515542481,-91.55064707552289,-103.31872294733351,-97.40435459812743,-98.84605105607977,-95.14086119030972,-66.62058906836471,-41.84654629967002,-34.44884820483992,-20.711519710082825,-9.10915104562526,-17.760456587797155,-21.439371393534834,-10.296346581605306,-9.04746579288567,-8.768263359630385,7.780455346563779,14.317031735376919,2.778437868468329,2.656203483200973,9.577443133485968,4.846400964826282,7.132634154825412,19.91596787809253,17.38952601710764,10.458691704915093,20.024027741656802,22.83779195983648,8.72826484424179,2.781799505121917,-0.09455764578795313,-15.314983166763735,-19.355403512380434,-7.978236021568595,-14.42179540809367,-34.629912347989546,-45.16017265830784,-61.778954173138146,-87.5545756453387,-93.32260639744999,-87.73470356403091,-93.7576577799903,-90.43950473165889,-71.1247111577907,-64.2369271202706,-61.40484706509598,-42.222807719813815,-31.049880101827593,-37.17634864447467,-33.51614232278786,-25.99911480602629,-32.07685700775815,-28.874334877768433,-10.451372027149745,-3.587630892617709,3.3770467870424627,32.387344778286895,55.02032021431138,53.37653044919209,50.41072111190633,44.68277909291119,26.25202385503703,22.717702923887536,38.449441777464095,38.35634802161595,27.653922571988115,32.968755431873,37.126855146430394,29.074059200836338,29.450066303211848,27.998414827037728,7.355175093549775,-5.0575262768753895,0.049239910137765186,-8.722924421239544,-28.425869080942906,-37.82283128005453,-52.57202961066321,-73.85583933706805,-73.47937572635725,-61.96794473118294,-61.324016492196336,-49.22013550986063,-18.650409104654813,0.38793561433712,11.62317911314554,32.67584221111314,42.185483896667584,36.35290700762947,44.12004557074977,55.60922690121369,49.25988884722017,48.031813054452996,60.43541668015881,60.95928770537739,58.49658612782677,73.60342685979951,83.66450312654896,77.53212166488935,78.5154330387947,80.0614519420196,65.74735392378423,60.41672137796391,71.28895052542569,65.4055742760091,45.13796730757819,36.070573927252376,26.118189512950945,9.41530032000107,8.11669430744159,9.284585257345048,-12.49506372363205,-36.3349788039321,-48.89978389888403,-71.06292751060059,-92.54077017169982,-90.33570105041846,-84.57926540922374,-86.63376838478266,-75.64533758157543,-60.80178179328986,-60.99647104470401,-54.631921901087246,-34.69333801640182,-28.246656986365565,-28.09761760878233,-13.213090996737488,-4.142467189986293,-8.40987532894026,0.3782741513271466,14.48219403200021,13.192701944100776,17.567021344556633,34.69540681124702,36.6570450507343,30.626214113374886,38.46435249221744,39.141327211672746,24.555536366744885,23.08916964340746,28.870769829094844,21.262994326853036,22.637670472402547,41.93138623497272,51.078734524511226,55.99574606806704,77.10076569663337,90.52260192496718,83.42475935546284,80.94941651645178,78.23635504473137,57.396418513745644,43.574987766063146,48.084837087992966,41.948959164400776,28.200324799013877,27.03153130759741,16.66403393662543,-13.260883853453864,-33.5644742797769,-44.14731579594503,-62.383220489810924,-68.85444822711337,-59.348524833088526,-67.23290233903603,-87.09932414556332,-88.77931890868695,-85.97489037126219,-89.95786663533772,-79.9695406107805,-67.73069670121528,-75.37347013549909,-76.52411795067827,-58.47863352116481,-51.15311645726422,-51.98027340226295,-37.56662708762965,-21.967778541490354,-9.966626343590882,22.832287777906515,61.27394822279393,71.81741052069732,68.74856851651039,65.46430350401361,45.511266780979966,25.036175834956524,30.40464886224534,38.75295549780257,33.188175425600285,33.19973516595854,31.26475138833864,8.249522246446931,-11.447970148517904,-12.620497792735431,-17.728784320234983,-20.320921769092635,-1.2679692371557234,10.556547863330398,-5.568825917515093,-23.280762824080877,-35.37168254829683,-51.48689787132449,-49.83862256873475,-30.52379892657041,-36.25271392549542,-68.40978678167751,-92.80576624283127,-109.6714178008938,-119.70420818516267,-102.22746155215638,-75.99828551459859,-72.35362277287898,-69.03444058665787,-46.240747748347275,-24.929639898154278,-3.5642690744683465,31.319359464573967,54.52172043114982,58.025315277181946,73.8240087327191,96.79415326051685,98.26742572441492,94.00625586792007,97.17008369038382,87.18887491638256,75.24199039763735,84.67806151107061,88.69155372838935,69.73847282178914,54.31868453360184,41.31542975224583,14.019317472850881,-1.387104674375093,6.396592987913715,3.983448105931072,-9.853944136023696,-12.741710778005963,-20.882280876235967,-39.9614974448799,-38.81301164229872,-25.696468414644144,-33.877327886020765,-48.95296329395265,-57.52853319204622,-82.33892763055971,-111.35056034660606,-110.98865588512322,-96.64651034974119,-85.59380393025118,-59.55987631856409,-28.440392654652072,-17.511874323870664,-5.091559531113926,25.1770398289906,46.601555572361676,56.757796051073086,73.97144151791099,81.16885410726658,71.64455519652978,75.04533555800704,86.89512857364825,80.18581832446327,71.51849667067316,76.8865395964286,76.56480911154287,74.82909778021642,87.33047775278932,86.17413795706082,57.894674960028794,37.485051124821645,31.248290014353,17.665943605599463,9.862607303656098,13.656442403403888,1.3124249903991858,-20.073616550271094,-25.69869268479318,-37.775958336028175,-68.72171380040204,-84.71774194394715,-82.96657854424417,-88.84156645008734,-90.659430092963,-82.93407635511625,-92.41945809900183,-106.15524561461496,-90.92705734922183,-66.67056970240873,-54.8393898299759,-36.51847632711758,-16.908889920202473,-16.93139138829722,-14.223291605077458,6.013908310608838,18.870381293572635,27.817443346092205,52.93783976294962,70.35155882094382,64.47573265962838,62.364909881561005,64.91057291394267,54.77676148502392,54.92951627046929,75.4551094203885,82.75353552260606,75.17486529204089,75.66711310193563,67.73749988073479,44.06096063490588,37.55145806429558,45.003681138675375,34.69234820151205,20.162352582898208,16.611446992235717,1.1094519466838886,-20.222189349127937,-22.70811460679309,-30.737237900915474,-63.317786218849506,-90.09029078904179,-103.16413501309157,-119.58772335185715,-121.7146297241525,-101.39061290991475,-90.24861635617077,-86.18442894505904,-59.540346850756805,-24.833862327120627,-1.6625028666361747,24.91084529143116,46.63959453487954,42.844778540956376,39.60200440111372,56.76174389512089,68.83701445130401,73.10187659278233,87.49683837085247,92.50302331181553,77.77370245275176,73.18229532490875,78.217344464853,69.35562029946269,63.55132849494821,70.77282947576579,61.72051840642712,40.134509076845475,33.762352074026516,26.96512349892812,8.19477873778167,4.767482528800612,11.817761746408653,0.6974827481375039,-13.010096048537202,-17.070963476532643,-39.96715608023545,-77.18561090688026,-95.82671438966574,-106.5515063535353,-121.27040389358686,-117.09895323529878,-104.74308866805896,-113.69370339808154,-119.43165925146037,-97.13439418381878,-70.26000967261172,-45.281166281887735,-11.684683341776221,6.201308421685063,1.6312214227581534,10.288554867624162,31.070782033459253,35.4597632863904,37.192654273906314,49.896617037926234,52.70609190045971,51.12192806894654,65.33322351045601,72.49953149829055,59.035873929640275,53.72864809685532,56.04998654283077,43.48605939759942,35.9875415732706,46.91747017674322,45.667685342733634,28.767290478790315,19.383671763231945,5.990788081585391,-16.49743909385636,-19.368333134020357,-11.707875541586976,-28.401002372561692,-55.32501660775924,-72.03571987125746,-95.32949704646221,-119.72850971017198,-123.83235273112949,-127.39202481642882,-140.74659176258126,-132.33339266836208,-102.78900240717476,-81.38443018805121,-59.862680182795486,-31.806166451612686,-22.659901227450973,-24.569587430986196,-8.52901933341322,9.464861722798066,12.128829077494448,18.860726640602753,25.405291498890772,10.74571516309791,-2.237330508554172,5.953912176856871,10.333014077393596,7.9876466104945845,20.337448438120376,31.280794850786936,27.490496173646378,34.78505209517181,50.95983757422782,48.610243503494,43.382971754200966,52.027897199922506,49.661612491201005,35.20505269817742,31.433849388277675,21.920638934776925,-5.610232247464577,-21.445348823963535,-23.286247465525108,-36.493435054541365,-47.6537555956298,-44.87053512205401,-55.04454573369321,-74.14925681308259,-71.69760175160961,-62.20994708746498,-61.93550082167492,-47.08000628681354,-20.0229451726014,-6.105588346391723,9.267070189246924,35.77110261598576,43.77042902992048,36.256717399903955,45.093501178896915,59.01839329061775,60.98065232445309,68.6804028835128,75.906093306897,61.07320334730495,49.910524881000384,64.46956474702966,79.04802016427925,88.35185182914694,109.26685544004232,120.13939681165388,105.72402685262341,94.34609645411828,89.49489326401945,70.62772330450349,56.38132111291606,62.47636987670259,63.487047624775485,57.23481024852033,62.176655357355,56.00972235243932,21.539477580135625,-12.978471384762532,-39.92121634276483,-74.37419791293043,-95.24247225238264,-87.06868643631124,-77.28413131853296,-71.3884927084116,-51.19035341821638,-34.41411319911621,-33.88385993579246,-22.994941184554122,-3.279137707252449,-1.348511765341461,-3.4548859249460206,6.868493585113946,12.255373177165016,16.3520741910188,36.41690017526688,50.19690468023757,43.127889353198,42.39723187126348,50.69578594929585,46.71244585953481,44.9730517654388,57.37240145910033,60.320472961702436,55.98373681050008,67.31558114897322,78.6876239114047,76.8224768322754,85.84919554811826,102.72845882289897,98.11288642597953,82.40635928922528,70.56562682101794,43.73253448277652,9.94584578563068,-2.3596646248296453,-11.839453451864344,-39.61484118453039,-64.15669116037724,-81.95184535482711,-105.61044458127651,-108.88654292820229,-78.76509021071217,-52.97980270597856,-44.70138837558844,-35.052393369290925,-34.56832550238432,-48.266737083630254,-46.3383710938545,-30.52506195131287,-27.9246682745562,-23.926658855307586,-3.327056405091339,7.50641907726789,4.452913236239233,9.057310817640742,7.512404987859201,-8.42425265988458,-6.698814467388867,12.095505524795886,16.842275936447187,17.10011057260226,24.387213469773208,14.653849368470897,-5.7430728102326984,-5.90546839382182,-1.6022222507853194,-12.404682845333921,-15.289069776330681,-11.587291056228676,-28.82641842073518,-51.01690418133377,-59.54036656467505,-78.36761665736988,-106.79408220740392,-116.84612893355018,-122.93012633974548,-141.58358887469967,-144.3727074651751,-125.07934140472625,-109.00897449802406,-87.76297120106824,-53.998598760901466,-39.71076648142833,-46.49992942180893,-42.793499586095784,-36.063768209098605,-38.496620382714035,-26.03403534822106,-3.8412962897126173,-3.1376394904445797,-8.548362741944803,0.24407779427637966,2.45526436867778,0.5149035943460771,17.151172092504005,29.63989542476591,19.632448215856783,17.344716052917125,26.728698253540035,20.91616941579612,14.187227327488984,23.669751929027566,24.499453111759106,15.30698172622061,19.342331246603813,16.49487101164208,-11.197498085049514,-30.780928976726244,-33.10590234989995,-44.78734169207942,-55.68241295189608,-53.111235021235636,-64.41008671611108,-85.69179926034005,-81.07967840205289,-62.022940761931935,-51.344937564686276,-32.57761551992681,-10.48916472723341,-12.115222960539638,-17.58795228989013,-2.200170997249077,9.79009964717575,9.508196183070249,19.665856785041754,30.89333889158,29.588834011119193,37.534374025655914,50.406262655996606,38.57193828819274,20.234985320386542,22.31368780154041,25.22640470686953,23.692662798860738,37.89295257403344,50.08758211521972,42.78556890564732,43.09018118548225,52.554918143721835,42.25336628730017,28.072608750610136,33.017822311926544,33.39411683160249,22.690490687634504,23.23281417216346,18.948429837424218,-8.983309204187071,-33.222269395659204,-45.03262218155322,-63.723762422623686,-71.28157685422863,-51.15509387299947,-33.09471482670824,-25.477477933441868,-7.322550854124245,7.095858005627858,4.272808320976956,10.87477967699963,27.86066520177581,29.533888243427217,32.099810072260276,52.98122245535429,63.60752970407198,56.171631929466045,55.03470247209734,52.60734210746372,40.3808562874237,46.783610129165076,68.50533253788224,67.9832438529767,54.91133648265684,54.41686338480555,49.585876102200636,38.64637671516489,43.28962311079819,46.6370139667179,33.604901916898974,31.55873725002563,39.29006797226322,24.497838989052916,1.0190117446027562,-6.005341550738397,-13.930758049296418,-24.443580892158046,-18.87955076908616,-19.325696212921322,-40.54939015115381,-47.178887293428886,-31.85126587234133,-23.644799713492564,-13.37391893288616,13.809474399676727,31.630267653115773,36.39881951718394,52.752400204964154,63.947267769019916,51.90011506299945,47.43764265867733,57.7569513524857,53.69067925248157,44.992812761098875,50.0080995418229,47.1594316303255,36.19003997222666,42.88693069140969,50.31442736182451,36.71461872155631,26.851025476951673,28.271888764080643,17.06745012538617,4.750818317521423,8.754081798523218,5.743400006661691,-5.981057677007907,0.24263144138730564,8.145479820517956,-6.150423719158765,-21.378791577687885,-28.45457031386367,-43.29730835287514,-48.681171533175394,-27.64984617319789,-10.493788299992314,-7.975332847029532,8.607910347655181,34.4479992538605,53.15471329379268,82.907606629609,115.0588002528576,115.02098102054862,99.58545705300693,96.37325503830277,88.47548166906188,74.36395511039564,72.23442685838423,58.5497235021447,17.599573476316632,-12.040956868653199,-16.793523342995517,-22.50694940505101,-23.168242230213608,-11.455761894748646,-18.710210843818853,-44.77081245667378,-53.38151461835791,-53.54390558951326,-68.24277128814097,-76.17905057527832,-73.18626678802283,-85.39412543535846,-97.91213223382377,-88.80467030638727,-83.10992857523763,-89.4320420033097,-86.82664654659756,-93.09018884620251,-128.8984509330731,-162.89591933027873,-176.21176105315575,-183.547987828617,-172.29931605303847,-135.01379963540228,-110.32439199539286,-108.83227049293603,-100.20188469423216,-89.46502547172331,-90.80132170138165,-78.99987380072861,-50.91165348588478,-34.81207829241236,-21.444463567319147,4.251431038663507,17.38175162514658,16.16144536556926,29.657283105613157,46.02888695401231,42.79298141799444,40.958383857037845,47.58915414133337,40.508725338841884,32.356084740591434,39.48432101027191,36.01615749286164,18.434616708466056,15.503541021833277,17.587802671730433,6.181226054147805,2.7136579385515014,8.276741280575767,-5.987139941598916,-27.071681565004706,-31.74705749350956,-40.52834852511731,-55.50717106289589,-50.566640359967884,-44.38401182122306,-60.99766864391806,-71.58428263643012,-62.920068747543425,-56.12237834925425,-39.61374689510749,-2.0803099988928455,20.81265047947711,17.051026607878747,17.140648198501196,21.275051307713728,18.383208156634804,31.070191122545562,56.62342408523376,60.486919106821645,51.825515252458615,54.180062375312005,51.31344709375968,43.389604735533155,55.28563630330247,71.23786065394812,70.10854545612037,73.47858865975658,83.47547941053149,73.36172376930861,57.51177686508859,59.323017451326,57.16060144474194,45.30130356785395,48.41081776370785,51.74578632535131,33.16046795985959,17.431555814330828,12.834038148728526,-5.3087804116204484,-24.477119650174075,-24.869805385796877,-32.046481578402535,-51.30019414607567,-50.655094078380834,-36.30153365515213,-28.594030791855104,-11.033889334054908,11.019690775494823,7.046795803746642,-3.3919372985344953,9.548212568214723,24.07979086694391,27.708697981718128,38.372053368116156,43.29328634872941,29.645071218339357,29.382619842879347,48.726775204941674,54.45994048090982,52.473690075508536,61.84705110025052,61.650082627791406,49.846346043581086,53.015864749740935,56.90293715131794,40.831873345781126,31.462574774081702,39.45850066591254,40.88379748186193,43.50618637970488,59.54446662591862,58.42022209634794,32.85451475744465,14.57152055840633,-0.15531611527765898,-26.247349071069323,-40.253937186220455,-41.43939629072014,-60.88938986116956,-86.56711222040164,-93.01355845884588,-96.6732654255575,-98.73153789376981,-74.53193464029452,-43.053775991336394,-32.727055660515035,-23.72266279872658,-8.723590908868816,-10.046963046295462,-11.33864425765963,9.969009177541956,27.664161274049082,31.028184589909756,43.18206624291291,52.327670406765556,40.774682159480975,34.39441319003079,40.788797771916705,37.07468588822077,35.13245493949003,49.97029498127808,54.10114729025956,40.99517542234436,40.144371201337556,47.58330820591566,45.09984277813418,47.17665958053219,49.95442837672111,28.448580778738872,7.090461909029197,17.644365503361655,34.73645270222533,39.090803059976245,42.39376763531364,27.608286814099312,-18.23479613206272,-58.36265027759382,-77.45271786078601,-98.97631270484273,-111.53420410172441,-95.74745069354925,-78.11044441722777,-70.49670361094564,-52.00354214831837,-35.610532224200064,-40.18140983575368,-38.62540888545896,-20.45021129021922,-11.93311188489735,-7.048892493927328,10.18235946719958,16.49689019481002,8.228168454774728,15.356222055573385,29.750097165570562,30.0521833239121,35.808781448613544,50.09562049297381,44.86531751703817,31.091016105104337,31.130319668018895,26.096357429019037,13.38303451401417,18.219525034038625,25.65085445146022,12.32347441838235,0.841015290814846,-0.24852056761575647,-14.12697884732461,-29.158808432394128,-26.390303245724436,-30.550729365686067,-48.913802548291436,-54.1623870943339,-55.86381358551991,-75.4086925095516,-89.2174540973226,-86.26068894013409,-88.50437657509421,-85.61838608202277,-61.309747945979765,-43.04778995364861,-40.419600838623516,-27.887720409322448,-14.525885511693444,-19.492683959837496,-21.233551506478786,-14.574723707903761,-22.509353929617777,-30.469052167805582,-19.631429169072224,-17.0072176017595,-29.514155287259104,-27.838885308670942,-19.675137674627983,-23.73149537137214,-16.6987178580571,4.773190625787851,8.483701010946465,2.7612733807113106,12.008716185124243,17.807563477913835,15.495292601567535,30.509706966753008,45.97827883669468,32.71690874126136,12.811384813315554,1.9216444573007538,-17.855909430479795,-35.770005801571834,-35.54621039297535,-44.04810458017599,-68.84746064912882,-79.60395373931742,-81.23795016465252,-91.50988359943541,-86.53081083561051,-59.48722586370969,-39.66102587389529,-22.949655391739405,5.228877070337319,19.716599300437853,15.186822579227613,20.890171872291567,29.922382116433212,26.2701647305163,35.73198084982204,63.04173684631418,76.23644607177843,78.84902256523063,88.54768181577899,87.93473941478084,78.22752515770823,88.5814724358232,104.95822445885754,100.05670132268614,93.82465379188939,94.8476642721781,79.62281357755754,62.65528401165584,68.24504227569474,71.8323469408885,61.518626861873514,61.26575829799329,60.504244268683294,38.54837231950414,20.329418488150843,14.144386006099822,-7.595281589893334,-33.266666848808235,-38.161274330174926,-44.259219310062946,-61.533621479900425,-66.22202412295829,-67.29770874592991,-81.24579619025312,-81.70040013722709,-62.447580961526995,-54.11965195264353,-49.03643570866549,-26.325808124783933,-8.681093622022932,-2.960850953912765,16.489547457401134,37.01330425425923,37.34194221446812,43.44891758145935,64.58265434062825,73.10393390480027,76.54675263993354,91.57173540640301,90.8641715235769,69.62381088066968,64.29553474283487,72.06343760210707,70.3146375575222,74.67734870728722,84.06827901931281,68.4522969101003,44.58082891940599,43.5544150207551,44.014322032129584,31.615208461358463,25.441649889296094,13.021815310623694,-21.530930490153857,-45.37255546298305,-46.039214949848585,-54.64122707862207,-68.54370970405003,-68.48670562633912,-72.06662854237533,-80.42443865147814,-66.83980036878361,-45.21865855374735,-39.4180526530157,-27.684037636158408,-2.5315077206606613,8.290644760531775,9.988833035212688,20.540965595285783,21.925469626320428,14.632412974558848,26.379281825135838,42.332951539723666,37.47490385882962,32.95932587550179,36.902209351330576,27.489463229146942,19.058164777528592,32.233809404368785,41.29165375392731,33.92694419068643,31.80406383411951,27.654456493437028,8.011902590725612,-0.8338445794496036,7.122907798019074,0.817169000524264,-14.279718006306473,-15.68895841201433,-22.164263803850705,-42.620274150914064,-55.27024396414056,-69.67787267402646,-100.1844061720328,-116.73599336497016,-109.54558195273134,-108.87319217877484,-110.57825238656241,-95.23818335523396,-84.30218156937997,-86.00847682005478,-74.12800592176772,-55.60765891160072,-50.27455978302001,-36.77275596324526,-8.638196622395938,4.029962453121952,6.364103085400602,20.844527206775645,28.04966074804742,20.772239152812073,27.447851603592408,41.30042755885687,40.96001421617457,45.2486725430141,55.547034831069766,42.70890613867672,22.77506044710522,25.902507737468106,31.576230488133184,27.869980169915983,35.34046465701723,39.050379461041125,16.970179109441183,-2.8206944760274104,-6.981729779806988,-20.676437374771,-35.076848351858814,-31.307625455216126,-35.87312306773326,-57.42243300723885,-65.29017866163193,-65.76621969259816,-81.83288103466487,-93.32604203193695,-91.71166236013445,-100.16319214365919,-103.68098846844406,-76.72499721860738,-45.68995718856402,-28.722863660732703,-6.24771720953682,10.585286509332454,1.442455532171949,-4.639714272259883,9.010057792784124,17.581707829079512,25.14797713334789,46.464041990911646,54.689796451043975,43.34505157716068,45.82730650167065,57.62741987899446,55.639710565961124,56.55925919455849,63.08361568735218,48.61673999861831,28.94341958216141,32.68449522875936,38.712656605197125,34.38818857566268,40.00054704755701,41.68869381169084,17.916189042341408,-3.958567829644313,-11.048038704440664,-28.703412017692987,-48.300303096753176,-50.10212121301759,-58.76766368632205,-83.0258495594389,-94.97836382175625,-100.44073861170652,-115.1035017822816,-111.11170539883501,-80.3824697382654,-56.634066727523674,-40.61102402481359,-17.446590244516422,-7.482256643434184,-10.27438712274778,5.601885207823824,28.393676259408917,30.923629194082395,32.232503927547846,43.52676666733807,44.29787570362853,45.41758651266738,64.0394958101176,71.53927916364671,57.75355695839292,53.26984576262566,53.787055527517325,40.381966399850896,36.76964270919053,49.372535424124735,47.2216039599766,36.78740857586588,39.34393177288528,33.751949887670605,14.233286600583604,9.453366531844901,10.692581584864813,-5.211924981855185,-18.403382488944125,-21.00816102584289,-37.89575152070566,-59.979577319191165,-64.91624548316494,-70.39325330608244,-81.75492649541138,-72.61626914407279,-52.20668528860078,-45.17785734309439,-35.042502551215016,-16.25697698313357,-13.728667320327647,-14.515697407161023,6.9270124356734355,29.046256762139926,39.88189838544121,60.1671400438407,76.2362630686766,65.82352991263777,54.780880257313505,56.47558963249014,48.093604247954346,40.83560421645235,57.2537996141873,72.84075819690683,72.91343460161902,77.88607133977158,77.3709862002349,52.81586587431355,32.55985417660713,30.010398099493678,18.180014868119954,4.865718937467685,13.142993817731462,18.661045570327516,7.239759093854656,1.7203402632942681,-7.858973168777811,-40.62460221163088,-66.3906366379508,-70.85369518106293,-83.24396948235321,-96.68026439976754,-85.23648783507464,-69.78263681935934,-63.660146756389125,-45.53284848338956,-27.510904098497647,-31.8283609244503,-32.026301629654554,-14.453503360024918,-7.002312637182454,-4.930016382936011,15.769973878593557,36.985926970868505,47.42495249458844,67.2065750748765,81.70151248259754,66.64745581851307,51.020230418670096,55.32737466449845,56.53955046669122,56.32808191088174,67.920373916318,66.16354417304724,46.31464229842811,41.67301832574451,45.58949012953069,31.600564871812512,17.477394259350273,13.628595867494758,-1.6927509687830122,-17.166789878851564,-12.237974086449562,-13.228728401522574,-32.25901929420154,-42.04747772082877,-48.65250329956221,-72.33380354671529,-88.32826944621463,-83.94801669318755,-84.69148912632373,-84.40699484521883,-63.908180299599245,-47.0059479718023,-44.26255505303664,-30.03710567416566,-13.790390420449455,-20.22338276960365,-25.629185845359277,-11.790932353644074,-0.2402508234493277,11.292043763728026,34.63514391539104,41.814223307904,27.227391499313278,28.577682733748865,44.7321003680437,48.732365455904784,52.02580818509239,60.36820419633739,52.477146924650334,42.28078449233459,53.42352580746509,60.25728265627674,46.451163304889384,37.62751126819041,33.63205999575992,17.87934416674706,11.1335507287215,21.520311678834506,19.56577196063159,7.597449820774784,7.311593880493363,-0.007240695180994905,-25.538322154350475,-44.74968042591518,-59.71797644796483,-82.53183949171603,-84.79057577592178,-56.67448623388212,-33.21499469800921,-20.91826825457583,-4.931601218427704,-2.0125666631585317,-12.598953678464074,-4.783699752428647,12.889688221136524,13.264549433141802,13.27040379166666,22.26481191347822,18.855706489352865,15.678448597413617,34.14684366048073,48.85478670419181,46.93448329558913,53.22534677757264,62.517721411114536,55.635239900037476,51.92015652498852,56.86297332863735,43.969757999533265,25.94672789551388,30.38589398921858,35.202300840043144,25.65874581954731,25.653034846563617,28.035624722082446,10.157401519876963,-5.720349053999755,-7.041347231475604,-20.427900009880187,-40.28131129929203,-43.214468747015914,-48.73347566117008,-65.6951062473626,-64.84719629011812,-50.46406762748177,-48.58333012329406,-47.54135027245211,-40.66374817308533,-47.50267491226478,-55.02218335104076,-40.89474647639176,-27.333188624646613,-26.426199097726727,-14.065986371242404,3.7006561570758763,4.7882287110888955,7.394872233428661,19.452674649064246,15.910713012245125,8.624245912512702,23.302946401471914,35.68586019060637,29.91151377013845,31.026036190665728,35.69227620151317,24.239288916209468,16.10483058399331,19.147972110063208,7.594567138349062,-8.488220630280301,-2.6488183116431956,4.042391298356463,-5.350996610303342,-10.164665393865931,-14.462265849808668,-33.715715678819215,-44.716587313967075,-42.22644994488567,-59.36402295412753,-89.11757873404298,-99.63074781971018,-101.422703660092,-100.82953894493573,-75.62525839157723,-43.109156388412494,-35.30563217802279,-32.49210323308835,-18.513745231888954,-13.013304333728613,-7.26062816387291,17.359426627588565,34.212276772225,30.170410726104663,34.63339664663284,47.11284750410543,46.93791224429212,51.356922997194594,67.22445812212462,66.73406432760893,56.748195188915695,61.60082580664837,60.626301524997906,41.1773927149184,30.705423954287347,28.618100457599795,16.284568696849004,11.958391091826932,20.54340230798625,10.66665193215773,-12.82283601217572,-20.243318225230755,-22.717379387010972,-33.7040667062482,-37.902370981668824,-45.47916669531293,-74.67442223286108,-97.60403397281009,-96.5797032302934,-96.45925440557627,-96.79734350333013,-80.55281961213828,-68.44125715593913,-70.07200761302505,-58.75623718290904,-38.40636936108605,-29.94294571096611,-14.642102079225324,13.863040464512927,24.662266087113654,23.487478954094108,38.02617363898263,51.038036634691835,48.617374135881875,54.420498484076816,65.18181389743269,60.762313409906916,61.86873470120466,78.95916392204354,81.69287549145074,71.37228408619825,72.57028841104608,69.81322994146672,53.25284891076431,48.54075042194916,51.17843811584048,38.688544505884906,29.684512050987564,34.541019708811554,25.158147552198542,3.4835395235067077,-6.998763073683738,-21.166843688677808,-47.65020483547893,-61.334864811767076,-67.61256024731243,-87.08173008871233,-96.3384193082618,-80.95582799476821,-69.15534921967414,-64.12508872007948,-50.10262925952481,-44.60750248552484,-49.345136197580324,-32.79268641574309,-4.174803991212478,7.4456733199372405,19.029273723406547,41.852131820455206,50.19378997944699,47.08228626127605,53.41633829732249,52.93067101965077,40.19163808861856,44.399503868009916,58.70566020319656,54.24142135287197,47.50141707554671,53.7086694506952,49.834016341795724,37.9056754536393,38.02395021782337,32.47942709707337,13.192200059152722,8.891364123167877,15.286884519715478,5.936167261481487,-3.5476311985036046,-1.467852405930283,-13.040144137110573,-34.276172791734226,-41.607491092215035,-53.32559813567473,-81.37881962901821,-97.48059711462801,-99.45055734745411,-103.34002520153047,-88.09248794869664,-48.59335445471832,-23.769262702962724,-19.092206679819846,-10.117380627736196,-6.30847145504749,-10.840201998478532,4.6348542906460235,31.43200450578306,40.39425085495172,47.85614142808312,65.24022077034405,67.43038769982734,60.84432733427546,69.55214522806531,73.46222126414413,59.51638777978101,55.40672389586273,61.94847777078509,59.04540733183842,62.17883939731742,76.65794701902513,73.18718273656522,58.225585100689536,59.65999687957751,59.6783783417326,42.5039005458406,30.52109930766023,20.20094792896467,-7.3184180941563906,-29.617660803989608,-34.959691689871306,-49.79732713437958,-68.20626457033767,-66.76732647730948,-67.82567563126238,-84.87886152032671,-87.73269565812828,-75.60922985155712,-70.60730984535992,-57.465679175475984,-31.989039691312882,-24.185007704436742,-25.464404776190595,-8.12641956455635,8.06145575046266,7.936158423930637,16.273273027046507,32.50409546200911,36.93326134130924,45.351596126390916,63.12601958709893,61.4859928647076,47.43335367367148,49.50099906490853,53.28594655434434,47.12261274500249,53.207649969446315,64.32147144657596,55.3008936808745,42.775800905103154,40.43318936302119,29.928094708566228,21.56685893618862,35.03762730260145,40.16694321854888,15.856280875692182,-9.494067870425885,-26.030866808821784,-46.05472690643636,-55.59657904296459,-55.90034927153131,-78.09363189428181,-107.99717699597615,-105.73833766948361,-84.08951385963431,-66.29934806417756,-44.27550246356985,-29.808110535028995,-38.403191445959266,-40.02899466858355,-19.59660978119578,-7.2580939601931505,-4.99997084877263,8.105281332142685,17.52982870690733,15.332772957373164,24.407702377656257,34.984421502780926,22.9661126353161,11.466459620101482,17.378136095399185,17.48492658486932,15.26882290573938,28.661599344967875,33.780987156160805,19.705520673901518,15.930586222514169,19.861165348174616,8.307418018139352,-1.178687361698565,1.7830211014516664,-7.934713735665339,-22.817487793614163,-18.092547108282517,-16.963548886081174,-38.296617297815935,-57.69822656497369,-73.30767694211427,-100.69744504414209,-117.44104893224258,-111.46785000340402,-109.8397718861838,-108.9280934746695,-84.4283811478923,-57.60129692037995,-49.74371761196075,-41.52803001469626,-32.5461916512848,-37.1811951919951,-32.72981500883405,-9.511188535179532,1.3006002129751446,2.0512440994021386,19.667021827338022,37.86942581294671,42.292149563608874,53.61600864115832,63.762577640871356,52.15440418959274,44.529700496535405,55.603800224054154,56.787649231708926,49.2233112659549,55.479403643286716,57.02825662484747,41.83909479578756,36.24873855777528,35.323344176602355,14.642047336316294,-2.116019541333349,4.135808959120744,6.258750974408812,1.333126410127663,6.184146188278724,-2.976304407669714,-36.323548381141656,-56.74411582719708,-59.408853359703585,-68.83015624614437,-70.00295122933161,-51.497361963278216,-39.828159904419174,-31.493987780774113,-3.6256196525632154,20.16185613524481,20.82218519575268,23.54798649930826,30.203601565244497,23.747439641832152,24.857456973909727,42.238069853986566,43.36554690413881,27.36452561723965,20.72364669242792,14.115390008677934,1.1853207949131486,6.625631431723566,21.151013513447847,16.467416051528733,11.933032677293992,24.67380311552891,31.017075179883864,30.86835646428205,42.04789261091752,47.081870465109326,39.23181877796698,45.563670530805595,59.07797052095014,51.70654053215978,39.30789162063655,38.42462190734583,29.607374937091578,16.64446189620744,18.012264115772904,12.442820281373042,-9.38382017497765,-16.310634942742098,-10.147154234619242,-17.511055740819486,-25.1613451777503,-21.70314690335882,-29.010445653983364,-40.77575817535227,-33.91888209051251,-28.626029840634146,-39.89861095340554,-42.55222629622637,-37.76188636079126,-47.40889961474404,-53.74179789431828,-43.1834779334762,-39.490105272889835,-40.63031554249339,-26.551479528735612,-17.93497255674801,-27.599694451441056,-25.174774665292304,-6.617791937726496,5.633867833542767,21.772131766031464,45.28489586053552,46.76882930653373,32.923875914657685,35.684103112591814,41.64131905980659,33.797731034535566,32.25675590569449,34.05590745888453,19.864278854684052,12.407682575045715,24.6435867561194,24.555738890808886,9.960424206029344,6.878110716073928,4.678888012448959,-5.146171133685453,-0.6836266828933923,7.000031032948985,-9.749038971074466,-29.078375079513734,-29.544144353538528,-30.600505392033213,-29.519821537396815,-7.846825838898023,11.41082202662785,13.540627836978928,24.23048881738333,40.36834752694835,38.92135271376932,39.42465065775527,55.688970545636295,61.759271711757705,59.451796567280596,70.47062282399416,75.43038170176403,61.0075092593828,53.25865226532894,50.829158236807714,31.739640441809726,14.462981444834487,12.355881654908654,-0.7616143068342858,-24.062790246866555,-35.10976912608812,-50.14197230401273,-76.97183729376574,-83.71874131309002,-71.87051888288826,-70.65540938171384,-71.33655394624004,-66.60211564165152,-78.44275445338805,-94.99082197511333,-88.4504232702379,-81.39538238732253,-94.5343219013876,-103.28058670118305,-102.14208610153709,-104.92474697779585,-91.11911622981611,-52.988848100332234,-24.660246116620044,-8.708482565683024,19.60885342950354,45.49174095996649,55.207338580083885,71.77910168660767,91.55687232416051,91.88680940011164,92.11656700243518,106.16034253977303,108.05526420590022,99.60909417164268,103.87138901623443,102.93806842280532,84.06441828379818,74.35494095308098,72.68026758333343,55.790330006453516,42.71654685329163,47.98720809674899,43.38319719633844,27.259824674926804,21.9130470682182,10.253298410876786,-18.341775612966075,-33.470613870809835,-35.57309723130465,-51.58623014723836,-67.89794345684676,-71.7568919590609,-86.89416443922138,-110.12640010080997,-118.576144398164,-128.38854024756924,-146.74874293064255,-141.2844695401461,-112.60630275029098,-89.5952567785603,-64.58483927584058,-31.924727896013252,-16.981666957351685,-12.875928853322565,6.44148379832897,23.05853453443767,23.792129871480768,36.851714340184266,62.33316313441209,73.64652336971987,81.90353847667599,96.77424387397402,92.74703952595586,75.57742780882444,75.75434278138796,80.02770250436126,72.40679265990725,73.99566990211682,80.32704979617384,65.20297463041709,45.9467441189864,42.44613205589908,34.89342174001914,24.00756958996337,29.068437985465017,27.775977997719536,2.3170159618730484,-20.473573865706896,-36.57931201123382,-65.64020692672423,-89.12454384429924,-94.59055889906627,-111.47745475220805,-137.38602201335001,-139.74559335739985,-128.07340874911725,-115.94520005413473,-85.13275501765824,-51.02554286295151,-46.655319130726326,-47.85566330344208,-26.25170065838862,-2.715903246437659,16.36498859426881,43.72342472660506,57.34188045716681,48.46851637228803,53.013976428624886,72.9091755777499,75.57517123060703,68.79222000173391,67.17083066560771,52.768237588902096,36.1396502821753,46.07267275446719,60.54888605618299,55.91844702826401,53.55384843416007,53.63147231105165,34.802022449950954,18.167012346628873,21.221385241525702,16.170551763637324,1.359333389122356,2.2889918527633717,2.7352998143731853,-14.41282358372349,-27.025148044258735,-38.779650438271574,-73.05820572324319,-105.87856779983893,-112.63724902386564,-112.28225683435679,-105.11078066699454,-75.78107998325743,-49.52578918412558,-42.399361287123114,-27.225587638692847,-3.466542764956504,6.040184963776481,16.30505955717641,37.885134669982335,45.51912775588565,43.85066875334721,58.5614642477808,73.19752994758201,73.8714335470849,83.74612259818258,97.43110107283293,88.79281704666997,76.23354061059878,77.8066555913953,72.23818394045487,62.71406628097634,70.47726148063839,74.06796199949942,58.40425511155689,50.76160570099488,50.491419972347536,33.624432290031805,17.852815080646174,17.094605349482457,5.341399938640684,-14.107895737152539,-15.670294811319852,-18.880399274299336,-41.335136900113426,-59.053136080673596,-73.95836219179223,-106.73705165959957,-130.9819474703916,-124.78089773057187,-114.5322377216569,-105.01439514065399,-78.56185659951569,-56.07235187945018,-51.99809685560808,-39.97635860512109,-21.125528170853414,-19.27928229851578,-16.925482862546158,1.1698592929434959,10.366978401477452,11.745461505984611,29.13287620419772,46.03275438697581,47.25448746369985,55.511773352169214,67.32558706013099,57.83242790594565,45.17685274604452,47.419525011217104,42.16015068848296,29.990884790631725,33.269938353844346,34.25458813261518,17.33506912686211,9.433749524148979,14.555293191790643,8.91904593629069,3.755979041150351,9.592550999786553,-1.1282395895553083,-27.59427726186176,-40.46503942682429,-51.86518920472227,-77.16242112493079,-90.42552236866905,-88.10214284972805,-91.96284554283324,-85.9861835204037,-58.37978233721689,-41.611635504573506,-40.336003246822955,-27.520015617349447,-14.52283233983399,-14.369879658865711,-3.3574606294711895,14.044791903057964,12.010503675145841,10.44346128320639,27.97480306382376,38.75314769899101,39.805747354758395,53.13770315390839,63.25093743584603,57.169793469156055,59.56399329301307,66.76343625376347,52.60673134680985,35.68789710516393,34.956053469677,26.979287129448437,11.689825179214171,12.950264386422187,14.302296762121028,-0.7686045988218533,-9.081014009930424,-11.333927264959861,-30.790697464357773,-48.890986854498756,-48.237962717429475,-55.99324999846334,-76.70871530287002,-85.628084710213,-91.48414160124562,-102.3074705253226,-91.57654499511202,-63.3259067757502,-49.216600582441224,-40.321982877212335,-23.105070142875306,-17.816563495054538,-19.25937684987389,-2.8675004448909593,13.293496596387193,13.904719089346848,25.682154468980162,48.64896336439159,54.899060320271445,54.18807857832296,57.28191044067542,43.395353078958124,24.910790243821268,34.39925705100089,51.11018730033929,47.85265177365736,43.34812585190569,41.29718890870474,24.945556731775298,14.049099203295803,19.680655365488693,9.451089721253599,-16.0440822698765,-23.999928451444287,-25.220210472755905,-37.7798151100587,-43.02909226295394,-45.710454455000814,-69.8377768115286,-92.98184123492683,-91.15359806808416,-84.67375121150788,-74.55493339747802,-41.72489636670224,-11.336244841255708,-8.032871287140814,-7.902973650042156,-2.62961270947243,-7.8251790976702615,-4.1520771266442935,21.764042635832617,38.23996611664243,38.780585214623265,46.68603947786291,48.09460728992131,31.015690776033953,25.48906879603665,34.36351670861718,31.517130700068137,29.41428242590152,41.09456974776167,41.72523124801207,32.68559261001584,38.611760533476314,42.50175088553987,28.73930103830431,24.543241594859996,32.422044150388096,26.57028514333142,18.00084063122689,20.601939100387625,15.724255321395919,10.687406944665982,30.300010743871493,51.749471231062444,49.32855909162754,43.443678750690054,41.50461102417577,29.575007894357302,26.136427459148003,41.54620004130886,44.21509817312011,32.10408825114561,33.8467271841437,37.79865967190564,27.575049602071687,24.161693235828743,24.894158618888202,5.651109863256033,-13.095319665726548,-9.581571063809855,-8.276179149296775,-14.605565982433918,-8.056256335873547,-7.010313873246755,-28.77286807957089,-43.95879454623907,-44.58171118174314,-53.69568798743825,-59.210230301945145,-48.51454608258075,-49.838783861405496,-65.35985460829124,-65.86664473786966,-60.22107495001325,-63.37048191697815,-54.21235955986714,-34.985298164267064,-30.89042474844267,-25.752293151551495,-2.8536561738915207,12.043514948228296,15.021811851365708,28.27117157212938,38.92805451989224,36.70765805732471,47.58402589443939,67.43207575054053,66.85691111208693,59.7150081925274,63.90039745675304,59.29058990487316,47.60009913836775,50.71864012933136,49.811510780043484,29.846316506596136,19.671127849459374,22.182125537122257,11.36202169031225,0.6074831520058424,4.987729441995805,-0.9009478686770112,-17.374799434614424,-17.718438616381317,-16.41478496887217,-30.562198730456316,-36.01168819682698,-34.04667578180345,-52.71403713648865,-73.66324029473125,-71.90109821401154,-67.70048288821543,-64.41291192479456,-41.862133108059865,-19.961038113944014,-18.005742136310488,-10.499940172604756,6.186029416090587,9.392334070515814,16.13759352482178,42.99179342555493,61.05186043144661,61.58162720973453,66.2793379808609,66.29336145642506,53.23230012551561,52.897092165133344,61.45839971456989,48.11295366103785,26.573807744563485,19.450128945131002,10.706065878425258,0.8321573442142145,8.402326653096432,11.776463930697096,-8.196201727125402,-26.02307368432862,-36.4225354753264,-59.01938340383623,-75.70797346096047,-70.03830466983275,-68.63386911323308,-74.58492731872217,-63.212752363568015,-49.55853791879805,-50.9399108020501,-43.113340116106464,-25.23843449622973,-23.46595324489471,-23.508402679436724,-7.626776514033401,0.4303785483780944,-2.0087410948298463,9.329458161869322,20.365030480126592,13.831305578393934,13.178001729989319,20.297199115860863,10.552215696438772,-1.7559307382280562,0.8981096787871552,-3.349165595413245,-14.335908770721234,-8.40862672603599,-2.919520274643251,-16.12544679552418,-22.356750596383073,-17.312922741274118,-25.01273195858101,-31.675180970422776,-22.392726575042573,-23.39502107424675,-35.148977393222516,-30.677290659371362,-26.17034190310859,-42.57956893903874,-57.51960220811506,-65.61798971158689,-84.03275151372875,-91.41577753938722,-69.28451081808994,-46.728664728334024,-32.99620732525967,-7.667087905208536,15.156909383781725,20.91535133883141,35.38323553719734,60.98028944285572,71.89508494568659,79.4806023774061,97.16771704865108,98.89264377372635,84.21406539343678,82.7256853871884,84.67530957827037,74.6919175658261,74.63607528848004,81.46090728045546,68.01710807498358,51.235314848968414,51.07918352595333,44.281228759062664,28.787376844592906,29.002685111734273,29.836914215776762,13.598653687853055,3.9385070204819126,1.2957915445631665,-21.175940384236572,-47.45936089920115,-55.32681364003501,-66.75029141303864,-85.66122581636822,-87.88238682374495,-86.34996128498014,-96.5197278467747,-92.60594350468375,-72.96591341977135,-65.45516345689663,-57.32152055055741,-30.103970620124873,-7.222177680791996,6.876620264296529,33.142533534093545,54.58151874874424,53.90527774855933,56.92347864838246,67.98236030909617,64.07065093729845,59.71300936239364,70.78832112724373,72.47008707523543,62.958346700379906,66.98092804726411,68.84957552667981,49.27536387536249,31.923396239149262,22.625407166504324,2.8369051804869123,-9.08342807912052,2.2176657714119505,6.1989517690705735,-4.124020351985169,-3.5652217556560406,-4.330440177672754,-22.695020282867933,-34.12004208157046,-36.56518025249344,-55.63515930737245,-77.27396501903085,-83.81341063397386,-98.4867133821984,-120.75795637385455,-120.74919189713796,-109.10361235484406,-103.25642638654735,-81.5371762317379,-46.17255892673332,-27.969119223832525,-16.174227836528136,7.670496009660237,23.767542815101084,33.407985935487126,60.27485767630675,84.36018450402253,83.13548671543572,81.13831683133641,86.25780856996423,79.10231959606432,75.87362194569978,92.23493655076545,99.45452175752828,90.05031980421576,86.59673723175926,75.60351464820383,43.10578004860411,20.78774405613892,18.718673687174565,11.73084423332402,7.238483388713162,16.620331487409782,11.398553555948444,-12.99709583350207,-28.143826219088233,-42.369588240404745,-70.17831739219052,-86.31129776443505,-87.73287235730118,-100.0005676695389,-109.47004992946577,-97.97144077527744,-88.80554550300369,-85.72429971580053,-66.38278768942146,-45.691230168316906,-40.5552333789644,-27.067043140425014,-3.8166984356862974,2.680687480526374,6.51288049205975,27.52252171506692,42.602202325403766,46.419081030719624,60.08246839701713,67.53652901721803,52.16604646285978,42.45289750399759,47.570507297501706,46.49243881361221,50.45102635643518,69.5409459762392,72.54265936223001,53.723084062425954,42.2445738201973,33.084787590922296,13.376500279535776,4.285619228934617,4.352773721845621,-11.053497301590944,-24.05704973617383,-15.216392317599777,-13.544850782238633,-30.780217242211243,-46.667130372873885,-71.20833039648794,-111.59273658803376,-131.98537663143875,-123.60234747431694,-115.20104490701013,-102.07784437340784,-74.51978845241095,-59.28807045337384,-55.74693783768378,-33.790127570261305,-6.762936872375924,3.7816144760192385,18.4218475521882,39.88497441521071,46.30185610121507,54.115600170148866,78.93307769432231,92.63616567925965,90.20948787266738,95.85504930079279,96.40072676455381,78.12862194833247,70.84999192154206,79.12004464773361,72.90413874624937,59.897812606607914,56.514808422621506,42.82650096052141,22.443496497894785,23.96894765086859,29.299148677832687,12.705082468923688,-3.460999649685662,-12.082045692083287,-35.09012019111911,-57.87318411213206,-63.355282870016666,-76.94480542028747,-101.55270667583957,-109.52676712388234,-111.9332902571954,-126.7041507744402,-130.5286563168263,-119.37380929384364,-116.61619436297909,-106.48728463590041,-71.31984553729055,-40.25302394022213,-22.898951586780036,2.882815442101501,25.424571323881864,31.20124705180043,45.642646106702585,69.12624130179807,73.88526684155664,73.78198831823511,88.26283109725895,94.31719100698518,88.5905746054008,95.04481693706951,100.53729208746053,89.66762511757132,86.72724552478044,91.75143454011413,76.12623891115925,53.93201601483972,49.423165330910535,44.422885388846105,34.84199303915724,39.892860980927466,38.79416495293212,11.324057529463012,-11.471348486269068,-18.35462621505866,-36.80443063289758,-61.77629377718431,-77.10369128786382,-99.00597193743046,-120.67973978716847,-112.65021147105612,-94.47794433844953,-95.23254942403793,-94.65731682412299,-82.75128149262513,-76.84546206471553,-63.211525503882335,-30.29008535229514,-7.104398490058869,3.192815093508015,26.5467814366236,48.53431519642513,51.0022903664578,57.147044401219695,69.02317579339486,63.3148430071717,55.67263539988798,64.4935064788543,67.70459759987874,63.93694338805933,76.37811250629387,86.61444347807098,73.17382667172123,61.32649372069395,58.816281661427766,43.41531138813539,28.992380856130254,32.691895586258035,28.535777176390106,12.150508585960335,10.365166495547964,9.945665607551579,-10.866582430627595,-31.02708371857045,-46.367739056399365,-79.14971285856787,-109.93991555767491,-113.75585198301681,-113.85832043543364,-118.86818650282508,-108.01469644425191,-94.80596338473016,-93.54890514044733,-76.90707329748643,-44.222550640985496,-28.250957165363936,-19.921868521061864,0.17649706883425953,12.382323514873372,17.996390721531693,42.30586188541379,66.0977654467054,66.42246787059563,66.87380300235559,72.030548430042,59.39413557347006,47.5656019280832,57.03830090952257,60.892179046071625,52.41104541304773,56.399650270613485,60.25593775072266,46.520622959189474,39.75058251393952,43.02929953590471,29.798890749978582,14.183075140687752,17.425074477341067,16.31918933144849,3.774917613555368,1.703620708673113,-3.2952892902690576,-28.97000696430188,-51.12489775202036,-64.05669924005963,-89.94317996012698,-112.5479926971725,-110.6681513543009,-106.25186362998859,-103.44860749190006,-80.56199614489306,-55.507997617744806,-50.30309067602891,-44.378562733106,-34.04927325762814,-37.64075573172793,-34.31969678989411,-5.780927392041065,17.714955152258913,25.630298752606485,41.73334555802821,57.961721196987426,59.768080682780145,67.20346107677808,78.22204900637338,68.43164817696268,58.686319415473776,73.46867954495569,86.87394407289476,85.9348925413763,87.49171516602472,79.45765820962885,52.00058817543125,35.6673922884036,35.90811931101252,26.090754130457825,16.918756539843557,24.123667509005045,20.972401929293277,1.3980838667443551,-9.345591174109742,-22.255656495378926,-53.1467587839649,-76.65522147234549,-88.17421078509041,-110.24611088659981,-124.5212199863666,-109.49895777232769,-90.6015357848452,-77.09677632877086,-52.08447153982563,-34.06680572923964,-37.9292657323138,-32.49653332018271,-10.308425549760747,2.3633747346113254,13.276949620351784,33.924066866887756,39.38442870824088,30.9226931934748,39.08104209577666,53.88384155150796,55.89944441853494,63.68759131548289,77.64542217284334,72.89515472174837,63.930985204947675,71.48500872665664,73.41531754346455,63.91550718857274,65.49415589361271,65.11162048471695,47.00373865698977,38.242952467051865,42.79172337390817,32.07378273505766,16.954092048250942,15.56882448903531,4.8703645194613765,-16.97253373393354,-24.739340371047884,-34.99805209844629,-67.71765700482104,-95.58776024841623,-108.49860865923303,-125.75899160909944,-131.99228289673857,-111.88955920000987,-94.53729261463353,-87.47657634871271,-66.3740677090602,-43.424438580200146,-37.39786641120184,-26.513580561652127,-6.686272990051446,0.08172498446639498,8.798611656779201,35.632839254588866,52.23808078266022,51.906603724936524,61.64339861105475,72.52221196151858,67.45414834981912,67.30869464353887,72.28703665526908,57.56429291832635,41.42815592468437,46.63069008729791,47.81321249820486,35.94509386691146,33.41422850555275,28.4082745572924,6.119659769787349,-5.506095392401722,-0.9026545867228837,-8.39181875241385,-19.680014290409904,-19.05724043080929,-30.677461611664324,-56.41485631829524,-67.52147485834989,-74.9353689515321,-97.04849915311256,-109.95913991031597,-107.24865139471486,-109.55996478306824,-102.31596911952656,-72.50105718908875,-51.636302910571985,-47.75556504434463,-34.57045718207186,-19.815273951454465,-17.742563107649254,-6.685974383903794,13.078952340211822,16.64332150156477,20.010122843914704,42.64566589320498,59.941337189709316,65.37226524152501,80.11788470722428,89.03204208067828,74.78061556637124,63.57177964444698,63.21237783135599,53.68146568368679,49.242984024902356,62.45372504160706,63.29043884678298,47.504010672751996,44.00856623895285,43.13579616617442,26.382024799887844,14.206475710370515,8.823838188576357,-12.177673569179747,-32.22419254812639,-34.15625584526413,-46.64633228146727,-75.20421476890151,-90.28053114395854,-98.37265254779801,-112.80802582927214,-109.1475929540872,-88.08235979809281,-80.38375028875002,-75.5181638299731,-55.17587840168537,-42.2525036194148,-39.01992783567868,-18.10196832917712,8.278522546909556,19.219204719784067,34.69831086180491,56.63388261669077,59.02903251837611,55.599896588257536,67.84853828669564,74.08206613831257,68.92962698673118,75.04067783395604,78.37823782457187,61.04150495688877,48.11392886416783,46.93247443344918,36.202561052670234,28.40911352492625,37.96603451331757,38.291200609339,24.508659052583653,22.67020933942256,21.55161063052881,2.865970840825489,-10.544513284972837,-13.946415185111064,-30.229464947255813,-45.80738494079194,-45.744004341976236,-57.91980212411798,-85.09502278915755,-94.41092077068971,-89.94018559081455,-87.06466211281345,-68.10641548748619,-40.80368676078173,-38.982269751757244,-48.36349171033539,-41.37744940496813,-32.38903304210622,-23.246517058855027,3.991699550778577,27.451772547824238,26.9391122862508,30.63940191422125,47.53657544740858,53.44111219744567,56.907019520324056,71.72489177008609,75.53355192624628,68.64965710620072,75.92610091487195,80.07364259253278,61.197324651628065,47.02868444600394,47.42164032520876,39.53303528301696,33.18774473398406,40.68524084022051,34.730765228942985,13.58607576160054,6.1157643171354765,-0.36972847592822644,-25.111829700134436,-42.83194815439282,-47.29990077981973,-64.10762429936759,-83.5957871916799,-90.22920165399,-104.58775407515259,-121.28392945444122,-107.98412075693241,-79.11285418624159,-61.91795226470485,-43.74431222291828,-26.28682930592185,-30.26897806793157,-34.33608377665271,-17.292837881964427,-4.342212059762567,0.22377362570400794,20.576696392204713,40.97714761026379,42.12556248768793,47.6537075838181,59.76700710448815,53.8857759078217,47.329970176332864,60.23281110049908,65.71995200294272,57.008380298944,60.18608641163843,64.46034654685145,52.379162567695204,47.60521078991644,52.352074596980394,39.226793374728345,22.553589940869195,25.18246830833206,25.59207123519157,16.731277098323375,18.59102122976675,15.112422377331264,-12.27238059478538,-37.473135583851686,-52.87622531175662,-80.66790540288942,-105.05095632022987,-102.85825586633645,-93.69005577758266,-84.29014760877106,-58.51800028810348,-37.40135625033378,-41.764768748848944,-43.966139204006886,-32.060856757235626,-25.62940131467472,-13.82357956218871,14.999079318260481,32.35557018194098,33.05049966681617,43.792258190646976,55.527678944403405,53.72773857256486,63.14168698220655,85.43370153224207,90.80578122153592,87.76117931492882,93.7335487088198,87.80777884110418,70.0071151329708,69.39326558407117,74.25962201829455,62.35682441374087,53.21339417978435,50.838217001735785,31.70684676510959,11.135377721709583,11.153891790178106,8.626718945410541,-4.814317407835694,-7.549978455631964,-12.064910623500385,-36.15137303044488,-55.93789265038845,-65.08919632617582,-85.81166826019458,-102.48897072677556,-93.59810108988816,-82.23369402575146,-76.97068221348866,-59.32060328691388,-44.47063247367464,-47.472491974213355,-41.94638804627255,-24.729371795529467,-22.643822386445212,-23.99657482817192,-9.888820758712013,-0.4015954970671718,3.5320653030786415,25.29990362597963,47.7387820922325,50.2880482246362,56.47515385185219,70.79069350219225,69.52641526038168,66.84867418645207,79.94442809225983,81.95587208988329,67.31375368264315,63.20509301782958,59.92792639991505,40.93699347508749,30.503166355616813,32.99583721652786,23.438518784307348,13.14760198674755,17.49168364262125,10.3184027232536,-14.22944571479449,-29.703036600098056,-42.450049615587396,-65.54978371318583,-75.95229497874797,-70.59525976049143,-72.97110955615274,-70.79678198633084,-49.77050307320333,-36.51228498017365,-35.52467245766252,-22.13586000659351,-8.823408959552403,-12.07187965448527,-9.384767848056267,-0.05145671313961753,-7.357311511205432,-12.463469389142183,6.366324638337701,23.999906061122232,30.46590423150247,43.83187826112878,48.567135610998236,29.337442360120797,16.04408093197284,17.765258858636127,9.0641506754615,-0.057545336706165795,7.893437092407215,9.024078559748922,-1.0750863306711818,2.5443846777383983,6.013205847967414,-9.406759470106348,-19.256316528715246,-19.67407819303795,-36.30590071153022,-55.15015097633452,-56.57487227986082,-64.70920270366777,-84.07453493835266,-88.90784401828184,-90.56650985778539,-104.03247614634559,-102.49718080003773,-82.66459089145602,-72.37989870630727,-60.70355731969801,-30.783066903321348,-7.707597549206014,1.7425471886562571,18.104853025667715,26.88046761702642,14.928588473320165,14.442256050205323,34.802315821401976,48.88674564316556,60.69734816253446,79.67055416526892,80.59842336025147,65.2635919471924,65.64576818077022,70.80694796754588,59.277977498539556,52.155708751839285,54.73415199438283,43.68489798037791,30.791778616721004,31.729679730465314,21.869327285580013,-0.6211422241528357,-7.421155771967699,-10.637406248782352,-31.141715463125365,-48.07386611665213,-56.467397438353316,-76.41741504053147,-91.14875564977842,-84.99292409701053,-88.58112332784523,-109.1415434500039,-116.3615665181799,-112.96504746546968,-110.39406227636825,-87.1235380777459,-49.41586525644455,-32.19159429933821,-22.984243666652887,3.1939584297401584,25.684813678305282,35.4112603188648,51.21057656896997,60.890172459942846,54.033310160903895,61.838345386472454,86.75702743398534,93.48114691890794,86.26600214848008,84.49833268370843,73.73964439475175,58.730009370839795,65.07079518266254,73.47161784642525,60.38667269640627,50.63509562338891,53.03970376979507,43.80348296293304,32.206034673268945,33.90974527427426,25.71630930113775,5.251482649171319,0.09240256240650813,-2.021410492560382,-22.71059152341584,-40.4555671428445,-49.88566019433986,-75.63885528165359,-104.76502486285244,-114.72152896650715,-122.86229077738989,-129.63285064314007,-110.30518978014629,-82.34178873563684,-70.23646569535447,-52.80208194812607,-25.610514402186997,-15.00638105541426,-10.05659968830527,8.556295569961065,20.103654594564137,22.58750813568581,41.50470642082214,61.58262235880798,60.48787450403075,61.91638759484021,74.0279562126627,73.84784925711114,73.34727659424296,89.08859661261712,94.2695041912726,82.44571653566571,80.47694064813373,78.67376630507272,59.315486182277056,45.93861301426784,43.862159620772616,28.941504035839117,14.5189059392779,20.051914673391426,20.467420297819743,7.038478441167564,2.9332307013896477,-2.4527628132399153,-25.905420258062858,-43.497310727301475,-50.49681646756371,-72.27300992317677,-95.51475521445639,-96.78771367704216,-92.98025699503444,-86.41444530541372,-57.31032302314348,