-0.5114494362581472,-4.942986967106151,2.2190071668112252,0.5369827110552008,-9.430402658133334,-5.985163726690246,2.7281817886309785,4.903960539449645,14.75625862353425,27.025645018497656,20.553474144408213,10.034478611005214,13.534130775335289,15.288711684815418,12.851794760618626,20.738079854532508,24.689047586472235,13.971742490054961,10.665638015339823,17.00926472955637,13.805167705494824,11.497435173734807,21.325262705093433,23.40245121384757,16.107261894607753,18.96668259380106,22.698389833647756,16.099378158746276,16.3529952355696,21.639679563879856,11.66220165543445,-0.6664846281728192,2.1360720921096648,5.51644995503172,6.457876931415177,18.80859455944938,29.033663015133936,24.265639087386496,23.220147330463234,28.520168049063862,22.986928318923965,17.530755059238608,24.065558651307438,24.466421379157566,17.04971436117146,19.44177497224994,21.78793592159594,14.096011000129948,15.213951313703463,24.643956807525,21.650137976906713,15.700902097636426,19.758080186562445,18.185167165585845,12.112686624662715,20.16703884507747,29.323544903224604,25.016447497916367,25.448404227753365,32.6973334685699,28.294224180555922,23.34502713108818,30.61115662823187,31.130205796978572,23.467714010534607,27.348129076264122,31.88146762555648,23.776631088322407,21.99457357125088,28.466858490677147,23.285062889886547,16.234101610866297,20.916765231882742,20.613603032901473,14.639374945122775,21.191708625273243,27.371674945361555,18.64794756424752,13.95028266852799,17.49701440654188,12.952466844741714,10.65551453148206,20.96350295185666,23.720755439443302,16.46619111728499,18.47974115212605,20.670182380651394,11.82280014374591,11.947255178732457,22.77234077003817,22.181432548310575,17.291595462796103,20.422216256052643,15.114139122317269,2.9591470521098833,5.644945283030204,10.950175250999322,2.0187463130373633,-2.6564490296625856,2.062450826943239,-0.1880867317474526,2.0629735008501675,19.056836014607654,26.67183572890344,20.37248949677387,21.53315308709318,22.86284214560262,12.990889260479836,10.573435372777054,16.212215937199545,9.39244005816277,1.7329085766951886,8.747690528283536,11.555125240066966,5.681813247743633,9.560683711476377,13.32090232138351,3.560214824547159,-1.635979315595798,0.4551947220788126,-8.320436533873663,-17.086491654707224,-11.468096674665482,-8.673527013599118,-12.237024287444406,-4.825322116061246,3.4918832540573925,-1.1298808398994367,-2.0681267214553314,4.070089859491164,1.4791504341635666,0.9842536256183239,13.734654324549407,19.13354865014407,12.83041222855103,14.242575310001756,16.288625537621616,6.666987670985298,1.465014900627626,2.328327889848702,-7.08302886364072,-13.702311198847028,-3.847890486057778,2.479383622939391,0.1309159232293977,6.010563227022615,10.71224461560171,3.1603180039037473,1.6745828673212273,7.770034422966362,2.9001912134659324,-2.473016929528449,4.943396757189663,7.345289949306708,2.44405017685511,8.672784609749666,15.009906177777433,7.637233045795478,4.9453848755407295,9.870753385433153,3.9478109988780603,-2.706311803368348,3.6072847098183805,6.110103428123147,2.2518724426831875,8.262324958025316,10.829245616045355,-4.530264025099341,-16.11464770817036,-14.25439074983754,-13.78857369577317,-8.902773580561238,5.103563954795324,5.2890042753266115,-9.282293503200668,-13.87739423327372,-12.466880824984816,-17.339613554849393,-14.254316233588394,-3.9455618098239347,-5.963441802490326,-10.531008260052085,-4.795282282681118,-6.269970897205221,-15.849893154017414,-13.143241471048215,-7.222351324148375,-12.159994581750468,-12.517070750089314,-7.328380391809535,-14.322723252075768,-21.354449909527986,-13.927114186383987,-11.090203396296749,-17.66149216061282,-15.53694048383077,-13.547616071375476,-24.958906031669812,-32.46860450125951,-31.069150336205524,-35.45734202139006,-34.13246119923909,-14.562994394419993,0.5227274610616965,0.09005987925143621,0.4851060528413569,-1.3154980502394777,-11.779355260000878,-11.070124473554237,1.8716000934736527,3.8849196303352445,0.9858773486809747,7.368295263681301,8.029423988646144,0.7613826091737717,3.666779438657553,6.781659476374512,-5.013156481303677,-15.067779087247153,-17.580918720251617,-28.114032253645014,-36.37407700991529,-27.65257022815163,-21.232408686118006,-26.236904610394355,-25.964136159961946,-26.962472115353947,-41.94667323519935,-52.65737179096779,-54.02216960387588,-65.30212034491882,-77.15741593454857,-72.08949043992163,-66.61115510161976,-68.6979789417278,-62.8794995461876,-57.0971214219599,-61.92396754483994,-55.47376880176271,-32.850393069286895,-18.089326495724556,-8.172660117830564,9.279361581538826,17.089623765185504,12.390195294137815,16.984007254527096,26.07629793603069,28.903361775153165,44.470573603790875,73.22382952501997,87.13725889550392,88.26244280310448,92.97438569248051,91.24871003581876,86.79370685817844,102.7127407740707,125.60680406827652,130.85285283515313,129.23982748090566,123.85127077550594,98.4119451463979,67.79726843557594,53.78401147324671,43.15113150549239,32.03952032323389,38.74445968812131,51.43391318495224,49.379668960811,47.22078215340906,49.61447062327261,34.33005628454899,6.673759039692576,-17.129219815837057,-50.610940084827014,-89.58854857197171,-100.17443650635819,-82.4735570141242,-55.32787964247953,-10.131549467476646,45.52214766776452,77.7831229006895,88.53578363697943,95.4846745881378,84.15723639494617,54.919859725181766,37.764696314240226,29.21219600493628,9.267247592649117,-8.82428715058393,-22.239860342446065,-50.60483331472396,-75.33352478223348,-67.13155705769947,-43.35144037997499,-18.748814995204214,17.569958404526176,46.05622387219499,43.75842989056534,34.80893605923408,30.758438170247068,10.668684919391877,-11.724477506815356,-11.76409439123752,-7.792648390220078,-6.110008631746159,18.46733557435883,52.827611761316454,66.32613683411024,73.37613203029665,82.67278832183852,69.71771722883756,43.63690294192465,26.64430628556105,-7.610563457430681,-71.82477015207381,-128.14623824820077,-165.70166476795663,-198.5774931914553,-207.99814970057224,-193.01745567772664,-190.72266576877854,-189.8369841366696,-150.16411467963357,-90.55959834780198,-45.31356457750985,-19.591881421382038,-37.87269390823825,-112.48059495948921,-185.01808738525014,-208.4063213923956,-205.46278054626933,-191.74201074640322,-163.12353319218568,-146.52354163967823,-147.88951560806868,-131.06270817484003,-104.96765352778576,-105.58768524331484,-112.29738866369236,-102.60551345035961,-99.42331741187894,-97.12652240875174,-70.9837539535304,-48.25618969489477,-47.70302698934479,-37.19645882383179,-18.406275538029927,-20.473502396229634,-21.793326904845532,-3.3395372475823812,6.413086109434778,11.08994321476639,41.08623809673027,74.3828817057054,86.38126969565808,98.01374357393735,103.23988536990713,75.76125312236007,43.15326520495081,31.58452263333635,15.94826596644727,-3.416876292541332,-0.390737018883085,4.58902603278633,-5.233576507924052,0.7719396858493304,21.59124167716314,25.8062172571607,27.653265757703927,41.70091446560351,41.07980467951682,32.339338549340894,48.48602336861635,69.80225107137393,71.18075677999263,73.23036970436999,74.59069467827317,54.89454415595434,43.243375712507316,62.62895689543544,81.73089785727757,94.76512574642913,125.74913835594508,154.38210804562962,161.9038835920239,175.0002349019508,188.39242887528619,169.63838454649215,140.93415992593407,129.11925079168748,111.09333327760359,87.54790474516898,84.3934429342459,78.46468133754597,49.364724431819795,32.01876110201478,36.06265027000164,35.252262793966736,43.7686880483019,74.2433625316331,90.53338913256961,87.5404032008906,95.79537841857496,100.46520671095911,84.04235801666701,77.18404580372595,82.72166361898198,71.19262648080402,59.88507589662056,68.97203110273617,69.84116676916997,60.64898379083316,71.02522857645043,83.20767707050183,74.49839690730197,70.16941594067058,71.66869144407778,51.83711100983382,31.589371922745947,34.51961631066354,32.607016232375315,22.143203274083376,32.29060680932073,46.998902979390465,44.9677914956929,49.80850565588909,58.58452106578751,40.63988017386578,16.68617959240632,13.019512381509529,3.249105886725946,-18.36361489983841,-24.852441477486053,-31.983376323020522,-57.230663836382604,-68.57456151136645,-62.280134163814566,-71.00595801913107,-80.48206602637805,-69.58356052899342,-67.63050080813264,-78.33185980933864,-69.83450665602044,-58.468708819501316,-67.1345202928654,-67.29346470397587,-56.240597550485944,-65.60402299143041,-77.05139156856175,-65.73837751910654,-59.83488568998995,-63.75307988184446,-48.68028680154241,-34.62191977319297,-44.825006574395054,-47.05726493439146,-34.289748426546936,-36.75254435416414,-39.09382148554147,-22.64735857761196,-20.37116985061242,-35.50926136017653,-32.13691097644682,-22.893170562957916,-30.26462237662761,-27.37190086566467,-12.852100178232478,-19.66258988153061,-30.644576579789415,-21.171296128174824,-18.94768767640708,-28.300876898894774,-19.773990142454792,-9.77522250933055,-19.40129094340307,-20.18854109059062,-8.9783472570602,-16.49597942935731,-26.896342699557497,-18.327576416551985,-18.452195851526575,-29.279525063954512,-19.143836535199036,-5.352810026920077,-11.580190659289563,-9.989157484285062,2.103741668643293,-6.411759086046015,-17.609582372924002,-8.134586666730304,-6.867288840406672,-17.24740318022968,-7.961095102021848,3.816631284343447,-5.891115728954365,-9.037994928297351,-0.7240251593314455,-10.87378725485479,-23.415607759192845,-16.10854478352444,-16.8135338655984,-28.260605563143194,-18.738305515200466,-5.408495336109597,-14.044133757292917,-17.76536162016205,-9.758883023596585,-17.648167761988557,-24.996243585666768,-11.50093611724134,-9.363682689999008,-23.8345614124629,-20.052335844887466,-10.130844445330817,-17.478112552395146,-16.352678664196425,-4.209181404835091,-12.845205122706915,-25.67181816770331,-17.675372036482717,-15.444993362200599,-23.1686764163018,-10.903669423469404,3.7110770825755046,-5.196398790605895,-10.904596200575929,-5.53766202806574,-15.724036951420194,-25.461318196823147,-14.301145980695944,-13.8431794376972,-29.511223796647084,-26.58728934589823,-16.785806970555186,-22.873049537958423,-19.14993383362819,-3.479587269284231,-7.932644687842425,-17.06787907493751,-7.7898709210126595,-8.071716386442688,-21.098552296655207,-13.780523655946077,-1.5706978819653088,-9.748085645814113,-11.957233123616746,-2.078299067286454,-7.6233625154950495,-11.551332450133472,6.517038042668333,12.919240722845593,-0.3925293279320474,0.5537789613826378,6.445030368006603,-3.1114669303652525,-1.9602779763243379,10.815462740071638,0.8260736004578382,-15.641912867300718,-9.845948577144611,-6.012200083995806,-10.909092626956973,1.8226362012470432,13.51253784877133,0.6330393828509147,-5.800178889707492,3.0513182463423254,-3.0482787210354396,-10.859498497267472,1.2156122765853299,5.0717909015120455,-3.4640263790006034,6.693994057201312,18.78026644019326,8.331380994706082,3.9250795240919722,11.647338300427675,1.9308670633480682,-7.9065708178669745,5.758729500362764,12.92441364237608,5.867241340106651,13.182192070748163,19.36528662117662,4.175818613051205,-0.6729053450770862,10.50569640320704,4.306024589334693,-6.028565601089404,2.8903107385131808,4.732824896840621,-3.711030901591248,7.9338888807772525,21.38251280267214,11.385597731360523,6.880603335638764,15.481060835096615,8.075509483222163,-0.34040573483549075,11.856733963784418,14.917220755925243,2.711120405712244,6.9362818217525195,14.300670422290775,2.9733560748104697,1.820621523657443,15.666900234214438,11.831242314021226,3.566182189346663,12.795805420200173,11.480619103007452,-4.267625033501984,-1.3402489475523844,7.579701428233333,-0.05175124806833242,2.3250486941710196,17.53084174235957,11.96316042107124,0.334493936318919,8.625512364790149,11.102098988764812,2.522574738885859,12.01182179913322,21.983714935294987,8.42698501031048,1.6503701937760336,10.408132726146444,4.940734443313451,-1.23730805757749,12.498944626001736,15.26317895721289,2.2299680631408885,8.911250819805808,22.58720641067997,17.430839442154223,17.66943918768626,25.666102295407107,10.244658909089814,-8.230969650137762,0.04295919563505013,7.2014639657585,2.9213451942503763,13.465146976814808,21.721095141686963,5.7870372669330195,-2.0669964529233527,7.048881058149311,1.6005209905027886,-6.510265653263803,4.848368504357218,8.430888648975078,-1.0210497033809665,7.081600715245928,17.053161271874007,4.566002541315228,-1.0895301107329658,8.644461666803567,3.158242288850782,-4.765245923179002,7.143867763704241,10.42201521822062,0.09136336460450867,9.118779821966001,21.801818645477773,10.991250533625038,3.3940686574816787,6.728854531461708,-6.625422877400605,-18.735741537611926,-5.266837424578645,3.3888484122935254,-2.317416337979278,6.405147839364714,15.428896514575714,3.333841752435209,-0.1520348141916401,11.243422033685727,5.083196694768715,-6.138369888429,1.5443135222859183,3.32304700455322,-4.502059407411446,8.333964422148249,23.933088910172827,14.549548981126353,7.409732109549955,12.213507677260026,0.8781389025867039,-11.557611342234493,-1.2992386462983516,2.7412958367937907,-6.738663987295164,2.0425857097297575,14.972482621013363,6.331117096212463,3.068798369040208,12.801528507878777,4.694198907998183,-7.625552498104552,0.8442620762461228,3.518059133035468,-6.349142966848401,1.4824404093606844,11.278551362162512,-2.5194362482863237,-10.74611227925876,-3.1127588151711016,-8.938296155435125,-15.63552854036261,-2.3446692942760876,0.8365082140629414,-11.701337546963599,-4.96283287993826,9.564265728569934,5.530651939694136,5.989520445986347,15.301067657465842,3.3432915658301927,-12.730778257438352,-4.750938841712378,1.8239147988555544,-2.202854932077555,9.220680714694215,19.430623321865454,4.904245314239411,-4.366479055319192,1.2831210816358807,-6.977355943032758,-15.41360019534107,-2.4652237611989705,2.6207382265139136,-6.866718802107292,-0.5572473605757233,7.107354260058712,-6.069060854346056,-9.590844339651214,3.7037751474729212,0.7548279015612795,-6.339150247914784,5.133425097817962,6.887450577000413,-6.2242012597510055,-0.8168819963634437,9.50188776853704,0.1791955160219958,-1.1666815982001628,10.439309293769664,1.9202395300960804,-11.841877636867984,-4.42009735495074,-1.3663814193913966,-8.805809805162275,1.6099787088136752,12.14753731088817,-2.222594864826199,-11.262484349999696,-4.276746478558863,-10.12077764824128,-16.160494826157507,-1.9945746531964001,1.2387149870504521,-13.775666072185935,-12.403751348670944,-3.916617828572271,-10.766317768071296,-7.330513546174019,8.786680601782226,3.0624159533898534,-9.895820681913127,-2.6821058801913793,-0.44020263155317674,-9.742976563664543,-1.5547703695871045,8.335569079490172,-3.8424278743972273,-9.144748876596406,-0.2462360949550897,-7.955502857949831,-17.46761105572571,-4.67847210927985,0.6179060216884531,-10.022804916036545,-4.714326647658913,4.195058128222063,-6.81130539168163,-9.739199303715598,2.181203200461617,-3.2747385659786423,-12.161318352430246,0.4064308037110731,4.596038698364313,-8.789745969531591,-7.1449831633365175,-1.1067108880436232,-13.505371399372061,-17.521175949334758,-7.247981699233607,-13.816691077552253,-22.616221857019944,-9.090654958583258,28.249758613793713,29.25962642266436,42.32745861850475,51.524407941100165,43.59411795200295,43.16245482858582,51.330688386171786,45.968780150657466,40.719112131433214,48.000326080581765,46.27086745227342,40.65489155588837,55.56220989087965,72.43381416930033,72.28668638274488,73.9896428614347,76.4808924828446,64.12565194209893,59.46679548018278,75.73458084679685,84.39456740823218,81.82304278506493,88.58678711587712,91.05618603353031,79.91973375058716,80.9205557642763,91.71477182334758,87.86624528927845,83.9502621793475,92.85496125711487,91.60973992824889,82.8510357992981,90.03853420532786,97.69695541440717,91.52435184438906,92.97560865501465,99.87037914610306,91.26715088887246,83.70969158183948,89.76574257195735,87.10838422550908,78.67612373373917,84.94750028011697,88.36547555097778,76.77070647101999,74.11556647035121,80.22225435443329,76.46183144498228,77.00383198598064,87.0805106894816,80.17936639258461,62.7563932266736,63.31994970624142,69.59854818113894,67.15917925199875,72.75291825295066,80.07324231510594,70.12822114138427,63.633815770374625,73.36294448482886,73.19371027779265,62.61619067660048,63.54891116646364,63.5249614398996,52.733887845453715,52.35357556866111,56.97146751886788,45.13063248697982,35.59332247071403,42.40121018646008,42.09425972633094,34.849906034261814,40.20936351543844,43.272718479886294,34.719401079577665,38.025346394508155,48.60009014274431,41.68553742026532,31.816993538781798,33.59202190227085,27.250965066073654,16.789110878626964,24.01466025831707,29.76460166015658,17.892590407058144,12.476419956101395,14.102007025369963,2.3558343853705184,-4.960718408486109,4.571566116447186,4.1577169655775545,-6.101171675497024,-3.057627268920587,-1.6280203156000834,-13.701778570165565,-14.002908610662232,-3.219442272325013,-5.514380196723344,-8.393052338077009,-0.4526976886527696,-4.876989655917318,-18.063163605049407,-14.29520279604378,-7.673121976291947,-12.927751142429846,-9.74433789998132,-2.1170472136845384,-12.735165317115728,-23.799707608187195,-19.49797166723706,-21.469670202424428,-27.37912155167129,-16.275049733645005,-6.730560143083363,-12.635305645316627,-10.292972230260562,-2.9121587273250316,-13.665610198318998,-24.261949278031953,-18.991428925792384,-19.79724536082127,-23.733295088162656,-10.118089542111147,0.9137191601197201,-6.300472311038687,-8.519126300471566,-5.699220464584743,-17.124131348857752,-25.148588246177162,-15.931544443552546,-12.323500635723141,-14.847725938456751,-4.8476446249980985,1.281687386895833,-8.317201846591638,-10.345859911635717,-5.715991864050787,-13.879478787810559,-18.308445008520174,-8.07793659001354,-6.609856780508789,-11.696291718626503,-3.8644585800912656,-0.23597297413553442,-11.122507940581013,-11.394364432347551,-2.65358641257726,-6.796007762605495,-9.918147364899117,-2.729035972528721,-7.7996449488264705,-18.65707887256763,-10.75936179396032,-0.5080907816620583,-3.670005104116447,-2.2348782875059485,-0.0032881477611237386,-14.588580970536455,-25.220081525145098,-17.838987632992406,-16.16549214941016,-20.582293135181033,-12.762736989002317,-9.016042673948261,-18.78019299806283,-17.413443129832025,-8.800048667526411,-15.831124534278292,-22.062633557346878,-15.131699468309812,-16.29704085071396,-20.108293250686305,-6.73675354345716,3.293372795264931,-2.8959502421779892,-2.5889646525337002,-0.6561567219801998,-16.96174869606834,-29.93169643029752,-25.112516158301343,-26.20739638606874,-32.85449932934096,-28.201179955450556,-30.150732445657656,-45.33597092101749,-45.132460460823935,-33.43816637654932,-37.607578468691486,-45.83206795053787,-45.266291257199654,-53.68282483177074,-63.56607702270482,-52.71854552587692,-40.066674991359,-41.027869657717886,-34.88712338847168,-25.080851660960754,-32.56448465459841,-40.102084431926485,-34.325680583886346,-36.02845108480771,-41.23370931561364,-30.13544720588813,-21.780381613671636,-29.249619597143102,-28.66476809063321,-21.106183242876885,-26.19519732848746,-26.96522159989598,-13.406468859799208,-10.705284433884948,-15.86480388084613,-7.0178471881010225,-1.3059881323213216,-11.149817924678228,-12.881546114144683,-7.481148596557605,-14.17482739440567,-16.324980790961813,-4.205592615593528,-2.997535204274885,-10.146756274199017,-3.9592883467321,-0.5363981260387297,-10.560847896379144,-9.853587235206593,-0.2884825611242685,-1.2949415926291286,4.370099718061015,28.543122612100575,53.17484841362146,91.17052793966404,168.55312609325128,258.71995465109444,324.2338226049973,356.1977777095084,332.1634680234448,241.48070309577753,137.851991246088,71.78552441862107,37.85783344122936,30.214355007525597,45.16953597691281,45.274341611276135,16.194270162684447,-10.842559867222013,-34.624252932071755,-75.87120738406071,-115.05568109832197,-133.5354954116395,-144.331991167623,-139.2182711724152,-105.03461038756134,-73.836126080528,-67.79484172024269,-64.97842768310258,-63.662442378635454,-78.77306855521235,-89.46175096698359,-84.26538555696081,-87.99148737653009,-97.28993673140715,-91.23612714910976,-86.25828902957143,-91.0534703768399,-83.50947098357497,-70.8066946141254,-72.64329669917826,-70.48747266420928,-54.91393830873736,-47.021696843803475,-41.23184948535959,-23.4084160438368,-15.683382620997214,-24.126628317454315,-21.159114112943058,-8.55409573540073,-2.3431261395523304,11.46626881669523,32.057454256935316,35.30791612367557,34.54031202395343,52.2539629496129,66.40923113521923,63.59517078527471,62.22060618185675,56.16440624414782,36.11595740926874,28.772940746449418,38.852355765115114,39.45499044139396,37.8161861635824,48.782653875645735,49.77757140787048,37.138614947219864,35.96043009097329,37.490725248213664,26.9056500889912,25.77660871728105,36.45626007789329,34.35454940380025,29.97519111051624,39.72684590367139,38.97855378219663,17.065341910877997,-4.951349360007592,-29.697949344773836,-60.25661699571001,-65.39781574754612,-42.214299708502494,-25.767025602602406,-19.238915945514815,-12.762827713173998,-21.461351867826362,-36.86388384191698,-32.99527213969567,-26.299740143034796,-34.594260465178024,-35.74660567349494,-28.714725011904104,-36.00951419884031,-43.60171157850529,-38.354737860707104,-42.44094841179876,-51.57458364122486,-41.02445305972142,-29.067873894130244,-34.685397958696115,-35.25405372100994,-25.1772114743327,-15.833305969281255,16.71360230833066,78.12804017664267,117.64988557008634,112.24018019415576,85.63931945218367,45.669948069796135,7.314980172805154,8.91096021354488,39.602460663932845,52.97588475253999,50.790986149662466,53.111513850881316,47.4415715006272,33.36436615501911,26.96287911282921,12.331760619661242,-23.57791926668709,-55.26283977813863,-73.42149979671377,-92.91663132212756,-101.88792257888404,-89.06162982100811,-76.95767722470222,-72.35708393754248,-59.711149424002905,-48.306810642391504,-45.14222433858697,-27.186187239247168,5.026588493331085,25.4336942760706,38.2072489772802,52.9559395354382,52.5390145291658,41.68705049928067,45.75335995109199,53.38970501735378,46.08478975966277,38.48198801223233,31.602132333323652,9.446214843216893,-7.645555102472068,4.261126389341685,26.30014155360666,45.24129701341355,68.09139403609029,74.83984207395518,51.24131142715524,29.347511264737626,25.55472583716327,19.833314404262836,15.16442079522485,22.423503506405435,22.49461478294301,13.0768826008349,14.25604912643514,11.757023944574234,-13.270260099187759,-41.80825725382188,-68.25102836869887,-105.75657864564609,-129.90968281209754,-113.14566222785946,-73.76113264532215,-28.575867073601042,22.038810848439034,52.84135721228589,51.53066211900952,53.561291103157984,71.95193873946621,80.33494914625619,80.12191166058312,84.14070393805757,75.14790396808597,52.106639673555705,37.06629327419746,20.667794739467197,-8.744491910365364,-25.46662035963925,-21.73493688589224,-18.555797757668238,-8.602694051735634,19.011722330610073,41.391318572877516,52.317477498849016,68.00404898542335,74.95041735196955,59.93432901111251,45.1362070030469,35.8014707997025,15.129397088806044,-3.690382438002905,-6.851351612315659,-15.157529504661634,-33.74237889472801,-45.51975129917528,-60.50052150788228,-88.88296469256481,-107.71901501641034,-108.8246260177853,-107.29480453283891,-95.9183717806139,-68.74939258775115,-49.51485206262904,-42.30084162392751,-27.443029466438396,-14.26899870267054,-17.149256745729495,-21.041149182032385,-24.011807246983327,-38.58171844255673,-47.73483520192883,-38.79668930398431,-34.521392302787746,-40.29311137296499,-39.740343603587306,-43.58103686625103,-60.07482357446841,-66.06686341060067,-59.81040467149671,-62.01718709361047,-63.64781898719409,-54.30246198330932,-52.54148477488002,-56.44857325728182,-45.61357907187022,-34.11287067509056,-38.05983905695593,-38.43517282981698,-29.87951500251041,-26.603225682849715,-16.576975566099,7.60565339731263,19.856736523205075,16.388442088640918,20.197248957562383,25.138387538850296,19.517942739845452,20.170214411207553,26.06427814771905,17.08470873996296,6.797578260738188,11.456272832899964,11.415698560117644,2.467123582619644,3.894246764353748,4.872174552063508,-8.963766560637785,-17.95206588536978,-17.524403125141582,-24.409941878925945,-25.539145354447154,-8.514153467421691,2.252957273944394,-0.47129388201231803,2.858605971107748,5.004006702601932,-4.880934296668482,-7.332973778113397,0.235313705353553,1.9033933450594884,12.928226093238498,45.953575898406264,74.99228147503717,88.01143224325192,98.51593511483823,99.24752677872343,85.82163025003787,83.3336120135783,91.50079749308493,82.54013346668938,63.49692865157961,52.778603915539705,41.45910690049962,40.433344770404204,79.75122250734802,146.14356288132316,206.64733090738045,253.22273032715816,269.43098386094005,236.17775521299023,184.98607561345892,157.54453973457342,146.9185214350236,139.576999281364,137.6298791220822,122.2178641826304,82.5154033091842,45.99019603027816,21.369555959514102,-8.887292391016597,-30.58794499773984,-24.676803289306037,-10.680210077971124,0.6090589780677922,18.680589782128433,26.204084809966712,9.583076535678545,-6.199691267409724,-14.022606710408681,-32.30314695623525,-48.60345088001225,-47.10886266330535,-46.40688602666662,-51.10716425143255,-46.28910923214007,-45.04384263964027,-58.44885890748884,-64.00322518587323,-57.923503328247804,-60.03990645149632,-62.536025806281614,-56.23517330336197,-60.150263078340245,-72.33302377686037,-71.83871281093013,-70.97357588124413,-84.03413486976936,-94.0112565474034,-100.89664861130416,-121.1104889115373,-139.427247882471,-143.02581332450833,-152.21814786477947,-168.39515979312625,-173.07585511470836,-177.82925226895233,-194.01245736520954,-202.41668113147134,-203.0087406501616,-213.86411883435403,-220.84400696608265,-209.70233838023427,-197.75972329502108,-184.2332859805956,-150.8151388915608,-112.20456839653437,-85.0899139807072,-55.04459626004334,-23.6056338734886,-8.070896727851997,6.054884850302931,32.05731842046481,50.2595170683507,58.26857040612689,73.43969612697539,84.62361010426807,80.79721927806341,80.98937719470106,86.51652981291912,79.74519132480648,71.70362284794811,73.24589360232376,65.276091429432,47.88455535703742,42.1126916011671,38.74892512461283,24.78907170190884,16.563757064456283,14.22153569861463,0.8818036762380217,-8.403942382132952,1.1848325830016968,8.923293456340778,9.230578632862233,19.629689504010294,32.436323106639506,39.63333851066879,61.929323546579724,98.0568398962905,122.98000630041813,143.39826040156478,171.16053900538256,186.6121447467638,186.3604915621161,188.93997346996778,185.584251277056,169.10554983691944,166.71899447472538,185.48363608622907,203.68407121312106,225.20248319000518,254.60083749317485,261.63852323060826,236.1473119245507,199.8407888634087,150.7377037834232,84.62765573012979,28.887556751330596,-10.21432035991204,-54.338759925699485,-94.76938637174602,-116.33429418824726,-137.11587382368856,-160.76848536009157,-167.95113006702414,-167.91886604034588,-173.53761448063355,-165.24687140706368,-139.7342637524845,-117.3301853536187,-89.19768235810528,-43.72495567296397,-4.138064448064197,22.249154070706652,53.357612847175844,79.94415771369216,90.86333812820055,106.7431524098933,127.8928006048488,130.65541465507536,125.25604266627248,128.2317584520006,121.90218498177981,102.18873780751844,85.75232336894507,60.723672756138974,17.647971489835133,-16.235570858666925,-34.02571112018788,-57.48485429226775,-79.48772820859934,-88.33774265192866,-103.48088110002114,-124.50388424532312,-127.16942135573264,-118.31664257977084,-107.10099851205995,-71.89082753297102,-16.548345455895795,25.73883787756538,54.00594788445742,77.47951961500996,80.34677967610062,68.52062759954038,67.4949718104869,66.22287268693007,49.59116392872831,37.94521133767347,37.230139229339194,31.85021964385286,31.929810076327087,43.77747582891905,40.93920914572564,18.586388804994773,-2.5089040054439993,-29.070196349527667,-70.39804487635125,-106.67921274324739,-135.23735732041294,-171.03766126453743,-198.22596739688768,-202.24490167223826,-204.419698399488,-211.37620626531438,-207.38028717183104,-203.4982202918198,-212.37107148038615,-215.7559339119768,-213.0062501916545,-224.1766075551496,-235.98703105520883,-229.72305176600338,-219.66851149995864,-206.3344832835561,-172.5269028610562,-133.26124248347497,-104.72288014862252,-70.53629342467899,-32.176137059108235,-9.655565651352898,9.665577027574189,39.79345784335898,63.06461988823304,77.83896691114502,99.35420248419959,112.83223858589966,105.69012837561783,99.0811520999959,96.86077892620996,82.3190776460283,68.02754607335328,66.3328727642018,57.019116389563735,37.91894224562164,28.473125754297776,19.20078902052497,-0.31863010264933944,-10.392628425689121,-11.466316404598947,-24.4968587899607,-37.48103860353461,-36.1374366844161,-39.59902661869403,-50.636297874114696,-51.91519346616338,-54.01972792031259,-64.90682852190123,-61.09975064143959,-39.88547843237744,-20.907994608756844,4.166209145650413,43.19360447927301,73.53833902138388,91.72295899425804,114.93023368633081,132.95651920367146,138.12052107170723,152.8567808341181,177.15198500654736,187.81836275778755,190.9560865366595,195.34777383424154,182.9206440221164,158.77880694173095,150.28565083971802,150.41015589050522,145.23085698355422,150.957620649641,166.28652960999938,171.60993247627133,182.77390290924336,216.79577062826436,250.3167562160158,268.5706023664182,273.26896296017514,239.44304046661208,155.15520260660296,57.790965785905335,-27.744943625986274,-104.93545548002967,-158.48249574957833,-181.09064303702525,-198.2299239779303,-211.5224854012543,-199.77442541164618,-176.8050673208886,-162.33970614384236,-143.83642315766292,-122.09231991820491,-113.54419193701158,-102.39057674267028,-74.78744720480809,-53.65442958462508,-44.9085998482362,-31.503472393603516,-24.76927728367765,-35.05534098243619,-39.28131692759739,-35.2195275323069,-45.20668386279199,-59.619605132927106,-63.96968020780444,-74.98255320907879,-91.79770212804152,-93.89640828020417,-94.73938528834626,-110.01709809803542,-118.95832298851136,-116.9996028919659,-123.30048236030592,-127.79508633156112,-118.71638914666912,-115.39586287594634,-116.94239097287894,-101.54169788953081,-81.01509819069491,-70.33077902917572,-52.65933919735912,-29.259588593998323,-18.9693572287703,-6.370939236127277,23.40282726532693,49.097140707406766,64.901504435336,84.84733488132346,95.78436782405487,88.44700229598176,85.5654471171285,88.63370441994758,77.07602565500244,61.17585853796237,54.56777577692728,41.14220181594425,20.305727830477576,8.048444090327775,-7.638026470523476,-35.05170085666009,-51.97398231871314,-57.2871166603161,-70.689799705522,-83.2373217762947,-85.94396835240124,-96.8551747884971,-112.51618326180684,-112.67797878845413,-109.82646901845219,-115.39036449563899,-110.46945175368748,-95.80504859582265,-88.14019194607816,-72.96908274943156,-40.421132344121546,-13.837786627969537,3.048673278410539,26.53045078891249,45.327670711184986,50.66749246297163,62.59546087202319,80.0286011223583,83.92438200621996,86.11928239093027,96.10191972164387,93.35709913588366,79.95046514560028,76.7829863607093,72.76724275942578,57.80868197289949,50.12959109092962,46.781661164053006,30.51196207650473,17.5971874320911,20.416851051399046,17.201488422241233,4.217096500834716,-2.946370589662063,-16.586695655781007,-45.365267643077516,-65.27920075202037,-72.15895051411255,-83.92605588974419,-89.18667965840604,-75.45318525513177,-60.67950788655547,-44.71398642699786,-10.598647668818709,24.257890549343934,42.15669928387079,60.06042382517867,79.664082942554,87.02008421025987,98.00825953764276,121.48940272774527,133.83930213099447,134.94292460470814,143.47616701007678,145.4502568765558,129.00738226465535,113.40452642671005,97.97152957313746,67.23924533165368,39.05777838712366,25.58286220726997,4.517420175912423,-23.8654091942495,-38.74569540748803,-51.9486030014057,-74.49577360832194,-86.40983920999626,-89.70637565890505,-104.06810963942118,-114.46771061511565,-108.60223295848942,-107.69477915541819,-111.17535416334647,-99.85448158481442,-86.65651193836189,-80.36312132935134,-58.58016206323873,-23.687221196724096,1.2633355711930285,25.166045997400413,56.19266747273976,74.18364713601605,82.45437641310485,101.89825859791836,119.17834399694124,122.33031492628596,130.66489069036743,142.8028960545949,140.39309462305536,136.79256689183745,142.76458149522585,139.5042372185879,129.28096173790587,129.68708050283846,125.30252496619724,104.47769887533275,87.90927537304268,76.61721391777702,55.48226850188985,39.390785365204636,36.8192136672665,25.420435299509165,6.172083164094112,-2.028352489298001,-11.654644342653079,-32.060214649631604,-42.9553940392547,-45.60266181662607,-56.77795558189597,-60.82827311795469,-47.14360439466988,-36.543135039023184,-27.640722713324998,-3.154671617926426,21.377962211176165,34.27269861813085,53.198019221876066,73.79078834567935,78.13247443069626,82.2917334839016,97.9061990114449,104.97110098826789,103.9395421687153,110.91644265613397,111.54156223242165,97.62358410361668,90.44937863383323,87.44729704109933,70.09244765518777,52.07349750897918,43.71932167561296,27.496251138102853,7.91328119571375,2.6313324976437737,-4.274908474682736,-23.724920610315216,-35.67262476987194,-42.14128366739368,-60.61867171222563,-76.0881075416289,-78.46922329742443,-86.5563361325514,-94.49654319208067,-82.84699699520581,-68.61519495455414,-64.75587619150033,-52.844801865564804,-35.483521433722935,-28.822089604806894,-17.796158808326528,4.369270183861503,15.484883705293875,19.736066275122194,35.936307446848396,48.23933786202076,45.94705876040319,48.01559146851263,51.62501108872332,41.79704269391117,34.09629423273861,34.70546966620641,23.037328412958814,6.861141343971771,7.672677635183833,10.66647891888653,3.6114656352503514,1.4449507574502274,-1.6695840507218407,-20.54693891152353,-36.486784275890514,-39.72671057140034,-51.423804334818364,-68.56341951220156,-74.30916109614276,-84.59957230204756,-106.5898203652172,-116.40358292728396,-114.70875481455894,-117.25911809327002,-109.91581264117607,-88.25702871837525,-75.37917483267668,-67.65981931714293,-48.06306749105029,-31.366820291288295,-24.98926102999613,-9.613759704438504,9.471749513308687,14.196883578775168,17.8776589873869,27.635750887597883,26.085731792719848,20.987677809476224,29.2932563429035,33.2222127507026,23.178242183113554,18.06962479676728,12.691267065572571,-7.977568560644971,-24.711336798903435,-28.367077085799174,-39.42939676575284,-53.43020104100083,-55.81375541827894,-65.01817145228563,-87.54233945038548,-100.17077264309438,-106.38553375992934,-123.14369067711141,-134.38395161446917,-130.3627628440111,-127.898084506782,-120.81314856540257,-95.33826871895627,-72.80561020817491,-64.16516905946204,-49.06383423784328,-30.926148427584607,-25.088915581985013,-15.756778373988713,2.6411267962071276,9.271225196474784,10.044750801435232,21.46699640514244,27.21460403993547,21.16582018041992,24.643917883239013,31.78411168378464,24.01816621558961,15.791842212268666,15.047760759106387,4.449078637839464,-8.513997771889404,-7.010480429317967,-8.751426416682074,-23.62044607814837,-31.669483721450213,-35.42089498628713,-50.286683131954405,-60.25185991460372,-56.856615426691064,-60.922445970057026,-69.1248905924769,-62.997705063926475,-56.22628959730806,-57.30151368361558,-46.18755808847053,-27.41025098411756,-21.39088812660308,-15.064069317929812,1.4147106564875438,8.083616604883753,7.430713088108402,19.091768143794543,30.967828646643305,33.59077579826625,45.41860391504559,60.06890639974891,54.35881442393939,42.38071042913859,40.61933298161526,35.24487071675786,29.410457422905363,36.969219194147755,37.19068163514293,18.57211372933567,7.936003201452488,10.553043015404812,9.73979006429763,15.764316203392449,32.91728890174603,37.89087419415134,34.472158818064415,43.342741239791295,48.19030607973068,33.95704888311615,20.751459235193188,12.490963464531873,-3.1407131247669655,-8.428093843129677,7.027788670655456,17.234674511253065,17.499321177846387,26.06462319013015,32.76937683156498,29.757378996017327,37.15353692535307,50.451886977359464,47.370441918070426,40.54967101038905,44.475125997193196,44.803315109421575,44.19845103659728,57.310941961425165,64.71429372184912,50.98910697483333,36.42787719167819,23.937225433487487,-0.8675610466761405,-20.895307700764466,-23.518666581117955,-30.265536647411473,-42.037953949076396,-40.44983107586055,-37.89887597668868,-44.94069568156273,-42.90949309135854,-35.06524948551366,-43.06495199364147,-54.568278852983,-54.3975789336248,-57.46497943768689,-61.15703310598769,-48.112793621432445,-34.5327732877591,-33.896594008576784,-26.74878535742252,-13.557995559715613,-12.919677993890426,-11.84022807209008,1.3274970351481628,8.781558266870176,12.726974779296734,29.415042821922647,41.74573828883636,37.19988036855245,36.684967308558925,42.511961860617454,39.5403682717274,38.9598571356565,46.68797768620047,42.560545205308586,30.233382739308233,29.679772900901618,28.255997081083137,13.730661997502558,2.447373920268873,-7.087764769536077,-28.023862341984298,-42.3727217999173,-40.128468455050644,-43.28659784095459,-52.0898994033852,-50.715245227752035,-53.02071655613113,-66.40254640387778,-69.42727402272126,-64.55388316819723,-69.86671191543157,-70.76199204834674,-55.81262425095616,-42.40734410907302,-27.869072344547888,2.447918459997796,29.720926845906728,40.034544739685046,51.544407777382354,63.40745105495301,60.506617809321654,58.809857322689595,68.76527852040834,70.94447709814507,68.1421456895137,77.26721878311739,81.65628999223046,69.5268047718312,59.77963312359299,49.71976026072069,23.86301030987928,1.6801761061816238,-3.614288736276812,-12.56446654189357,-23.96250490043333,-20.833676852295163,-20.051402208101393,-32.80287814205716,-37.64504684698255,-37.07383618162647,-50.066623878404485,-60.705391298969886,-57.272364983788464,-58.04619990565049,-57.43493308388385,-37.14753573314275,-15.290123270398645,-5.25006058834353,9.603660749039635,24.630969675081385,25.655259400782782,31.458587848558068,49.709245250704214,57.88640824545719,59.25249610073524,70.30641739344178,76.5591180795954,73.13637111980343,79.38326181453156,85.8269867823438,74.65631993227659,64.92731240474299,67.01097675657037,62.47479366429904,55.42599372030877,57.53440390275677,48.876662737020766,24.554488861520362,9.872049281520194,2.769724314509021,-11.27859903360212,-16.89705529670583,-11.792335314362097,-19.81241786969829,-35.10524089675697,-39.589042832632536,-47.96212914266867,-64.64486949958238,-67.26598289434433,-61.019784752892505,-61.098963563427446,-49.466024702390094,-22.317496672126644,-6.01420355860915,3.130625578704247,23.181855070665133,38.86992362102012,43.82495913238026,57.79071342986312,72.39036691569375,69.64936448355094,69.18794608023993,81.36180310646925,84.48777074201374,81.36844363809564,86.53339327370541,81.35943872955019,59.15508870842663,43.71000044712807,32.62960359940987,12.253783772637547,1.0353926156115978,4.088391314045473,-3.093384792563485,-17.063527529821446,-20.827231101228584,-28.61983980796979,-44.659024520340104,-48.18696758274811,-48.21090690600928,-64.3748993620225,-78.7288296268519,-80.19476846501719,-86.3520130193614,-90.1875653308899,-75.4987218340321,-61.48430861333267,-57.00555513806754,-41.92152638762801,-23.068415746050306,-17.108844723446623,-6.473245009317629,14.413287117138154,23.853697819485788,28.618857847812727,44.67793565932669,54.051961341823464,50.51078370339097,54.09624605985181,57.73113525319597,47.45485211057019,43.47545095094938,51.548280290982305,48.03500195183646,37.44504620552677,35.420753900613555,26.095854848043786,6.917224465960553,0.7018511960427214,-0.25851894652493457,-13.109894626518779,-21.144588085133844,-19.92560684493515,-30.707860364149727,-45.78599087508175,-48.58809924800178,-56.21808414236432,-73.48476466415413,-77.78164712117147,-74.5071892388606,-79.56486284206684,-75.5510054137328,-56.650168206146404,-44.18698312891851,-31.728412751220425,-4.808488570752643,15.113496415011284,18.628654570227635,27.291460626228016,38.51208385876836,39.42145435330986,46.888123638734854,63.487083304335336,65.52791020371147,59.89224896449929,65.29589359994043,66.46417646431115,56.032370986846914,51.39972724053908,45.34929443472186,23.96087550864369,6.519605555045093,0.83801705781708,-13.287432334816607,-30.866353972278695,-36.545611530972096,-46.374995670077695,-65.61747323005005,-73.82057845465269,-78.40071321112593,-95.85953459045548,-107.2047676914731,-103.81279157484994,-104.17272958198913,-99.89973414183923,-77.021995318043,-57.96398130417888,-51.34965255703515,-37.21637221639445,-22.010846969601765,-18.604057637235467,-7.892246134863538,13.538112278538403,23.8963965445581,31.23431132123476,49.89956601829074,60.042996395404685,56.26659452675072,59.30619373780129,62.599864515692396,53.48366836137432,49.923275958758744,53.64426816446298,43.10852213097024,29.22042174358463,30.54607238956334,29.181103609167586,17.42373003557536,12.636825044592593,6.502966475779097,-13.110055465351724,-24.893164274521496,-23.795873650097285,-31.720767141189018,-41.816429914647394,-40.103580453432954,-44.53919881312395,-57.23538135065206,-55.406852050328986,-46.64203140294819,-46.22261887392781,-38.24324968290688,-22.170373998108133,-19.060007240172524,-17.237051004841657,-0.030491106373054855,12.895639350927805,15.037703220514329,23.759172689061064,28.346646435450417,15.99885484008634,9.551408856198115,16.129076240034006,15.480361571930924,14.677862960281495,26.68357234170396,32.024976696384975,27.03149787126399,32.44067709887303,37.38795500061588,24.163862864422185,11.619322295389358,8.065567115219487,-2.7052161033562934,-11.9150606536365,-8.778347394005568,-14.44357123012933,-31.296360855801087,-35.493587301917174,-34.03748309605301,-43.77123528003686,-50.728950357947966,-51.81873555702833,-62.06488589249013,-66.63745955611726,-50.17613045069646,-34.41457748438539,-26.544210580666167,-8.33456728960444,10.99284253419544,17.587753877678352,29.09623679919272,48.139753828256936,56.311868692259885,64.6612024185425,85.57042071651874,97.00147776072623,93.78241685063747,95.9767259021228,96.56952401233603,85.11146725173029,80.8799011861171,84.4118080735655,74.37028506606352,62.09527919340738,62.890883667012496,57.18321861878185,41.28928320782109,34.87975329826095,27.74957161759918,7.177483570540643,-5.783432000196229,-7.894480942259544,-20.718714535201123,-34.95022996374655,-35.805316678570094,-41.43722467343135,-54.281122333200386,-53.880307548720616,-49.27115402033018,-53.01649855331728,-45.729398202994346,-25.92841804234576,-16.988501718820253,-12.774050289006524,0.18831650511263565,7.635626238480949,11.762679322374874,32.324348562782575,54.05304836643056,56.992506836098926,57.8335537033101,62.728994913119685,57.05517472046821,52.581562285055185,59.94093320595819,57.487697657118105,44.222551100798526,43.33441195223753,46.1640203793315,37.014132249780225,29.877021654613475,23.958324738912438,1.6653248766821251,-20.864198639940444,-25.417273707457046,-29.701085175399918,-38.43333554249841,-35.9896373771859,-34.739595463239006,-47.687324064620476,-54.83258884240965,-52.597648427265625,-60.79882372444105,-70.50789859460407,-67.56568735741477,-68.0798769003159,-72.99685143773561,-63.46333630757398,-50.80203563930133,-48.53038700177968,-37.436382851714676,-14.524042505153993,0.380049269153774,14.877719016164729,39.97097489910059,56.88405232238548,61.379741216941724,67.62483290007273,62.4242365853853,35.924748932218144,14.976985011708049,10.514102408833736,6.110532144296005,5.779542032148201,14.1919243700835,11.243640025584089,-1.5886596553395664,-3.1462901471300424,-4.474852746706918,-20.322721816752775,-33.98444736102532,-42.23406692638952,-59.31810685193258,-71.78293593540772,-67.23369772653847,-65.81905201713099,-72.44990289650535,-71.71493252874599,-75.0484264761777,-92.24618315400696,-99.2222770242821,-89.06781167551152,-79.52072134454336,-63.84654770411553,-35.47562951374058,-17.375303427309042,-11.747196577373712,2.586160621703793,17.333412133314933,20.47803881336613,28.80062389462899,42.52154277211459,44.38393392143662,45.85606428101963,57.35624710920236,59.01593348891643,49.483150228966224,48.789698616641545,48.94193974176392,38.09423047978165,31.36705747029836,27.228340836368137,7.948853677278924,-11.95710018841077,-16.776859265439978,-24.336077720874655,-37.72761006059903,-40.6251488827704,-45.027656793958506,-62.02741357439483,-70.82001422514672,-68.78615351838678,-73.65919750770328,-74.68596997982827,-62.16553235404773,-56.59496688051966,-58.93028711415555,-50.82753823150827,-43.02711856040361,-44.77904859586668,-36.16248385866952,-18.220048295936977,-10.392781432435891,-1.1201376965296688,20.905588829945657,37.45464479077331,47.98439959838523,66.6983436986037,77.01599954914151,66.94182267242957,58.85669648212263,57.75961455701133,48.23685251565954,41.35390133947725,46.58174479083,44.16157442338037,33.68512900537406,33.22659162528947,29.929408240896514,11.209891187062606,-2.921333844738315,-9.657728290619113,-26.393801691418528,-42.13946501473646,-45.99403940473701,-56.49554379505375,-72.48476371375601,-74.18953357223927,-73.59780006051881,-82.82701794737346,-82.48150965377523,-71.28729308032202,-66.67755345977399,-57.501736030470056,-35.493107128011616,-22.138202444206186,-16.85330706406463,0.4004622813127314,18.1163426677785,24.308479777004084,35.96131583602585,51.23774351684806,53.48504771754021,57.56372160081903,74.03735010125999,80.46424298298597,74.2968910669288,73.80949367912098,69.4232815441856,53.376584040964396,45.93413830395937,45.409172126737786,32.92973096265155,21.021732540861045,19.977018164794778,10.26295562765281,-6.434236294392158,-9.503950986498705,-10.135295428861976,-21.758848663217375,-29.60097160737282,-35.92200522681011,-55.03443616941066,-67.31871945422432,-58.43950346394959,-50.752991151142,-49.19494195135113,-38.50966593980046,-29.503981942881317,-29.223754044125553,-18.228087696502,-0.9690055679379759,2.0205246958161287,3.0277344591854973,12.754976470680104,14.158014259508898,10.915085954365376,21.01898290332928,30.70847052213449,28.70429420005567,32.418903994865566,39.422596922723066,32.83666718592967,27.61725583906238,34.77865602289718,33.56830801725336,23.9052276617107,24.593145001413372,23.78929515416834,10.759802079981416,4.143602612718486,2.3995672239318195,-11.785570924384809,-23.365763194033185,-20.340482759881258,-21.9850454616791,-28.34618712263905,-23.562410626497527,-21.00383874857113,-29.59280453675773,-29.960375367401156,-23.96671012255637,-28.177481806879754,-28.404469653971383,-15.16683758477065,-7.930389607888796,-4.5669227572665765,12.190968908014778,28.278011012048665,32.98195159142379,44.36076856471046,59.44247928002716,60.449067693459845,61.80454215703579,74.14190905865944,77.88639749721591,74.22749695720529,80.26507074565086,82.36504988103695,70.31900400410845,63.60114347320259,61.509179920389116,46.98145563233016,32.9913769074587,29.76264320316245,19.65491108606502,5.6782419835004,5.036500452431262,2.9676009573035875,-12.031470567395337,-20.607431269127847,-21.6159088408248,-30.089490177349035,-33.6280591534909,-25.40788788991192,-26.7618621505186,-35.17204564024333,-30.224526772566097,-23.47955361116613,-25.493113842656395,-18.10334583759586,-3.7242979320098684,-0.2238625956355227,6.49730045492337,26.62145311057553,39.678853317665045,46.008807386736905,60.96150692245114,68.75545302453442,60.04211413831207,57.397063011107846,62.1115439595909,57.76507774242896,55.972343389408536,62.23543388875398,54.47417104906019,36.34160169203095,28.710072508435445,20.21530472417737,2.654508848817594,-4.162710723965548,-3.066939333969087,-12.131349348762074,-18.476161140745024,-14.195443827705073,-19.68508807082008,-31.882921845433913,-31.63343168753601,-31.24787581609433,-39.49787286208115,-37.42003605354833,-28.991518614245358,-32.51120115919764,-33.29802831885273,-21.581576387748573,-17.192072525483255,-17.44690008697827,-5.528901619715381,3.191614247753928,-0.514780497737855,4.1734676990218444,15.375086981452474,15.521117620997744,17.665854262825523,29.558755254737846,30.967502943068503,24.96517190683661,29.96995047748693,33.60880057074812,26.333620772303114,24.08096867122697,22.0460708224199,4.2931566323199455,-12.895431648199372,-18.13653794122218,-29.325515810034055,-44.392669457481325,-47.59889216993009,-52.47078559475232,-65.96802915476326,-68.3379203312378,-64.373569365525,-71.59047961787951,-73.51537632355497,-59.74973724991441,-50.39404467537568,-44.12453932963003,-25.85117197090768,-10.561108729718566,-6.334362833609976,5.837736793677362,20.493045333459374,18.93680357496991,16.886661290384268,26.98802447530382,32.07172427213714,33.06746014301506,43.19393171227104,46.38064105239942,34.41579515932186,28.98573459876538,28.897842751451755,16.33334209117642,3.6041509770037843,-0.44607142328638805,-12.538993350633264,-26.484570859884247,-24.584539528580017,-23.428181660956135,-34.85876814616182,-40.75227427247183,-43.36630517353357,-57.624466513649274,-67.67348274042361,-65.08454381480455,-69.08821538378541,-73.8798567176461,-60.63803738433289,-45.32634762762207,-40.164424211249376,-29.02492543677807,-16.24698280765052,-16.638000579307263,-13.051783954020198,3.7121940928728536,13.24155168056665,17.31616095103633,31.62631922584997,41.776623041123585,39.5414992916756,43.88342238166693,50.84579425861874,43.942538938644354,38.91454751255215,45.20413234527285,43.1072629346156,34.675541733466886,35.129988780987574,29.558170433720896,11.199253225520252,1.3195668385631956,-3.7957626909990356,-21.53129489212747,-36.69190530119451,-39.66600755639785,-48.43533435294805,-59.50931327182155,-57.63807232195399,-56.71240575727627,-63.00683300200401,-57.972085266974204,-47.73401108215781,-49.688363637351316,-49.168589887625934,-37.32368660932592,-30.417159223088237,-23.341765610861902,-3.6535605249781797,10.120582344304053,10.698351821470673,18.77634763460253,30.411240811097112,30.67556485849497,35.75333381947212,50.94072546509664,54.22936462670987,50.50124738709985,56.91350811377187,58.35801847593194,48.04581201404747,45.9954104105815,46.99403651977556,34.38554002925722,24.129484294182866,23.662919650394173,12.609913113929125,-4.17255314672025,-9.718306897021046,-19.427948335981593,-40.446153210697176,-51.81016753564104,-56.28588910387856,-68.37475288088554,-71.01115659022024,-57.255890088284204,-50.41473147449839,-47.950621950728696,-32.540696278743454,-19.096480377504186,-15.178565628927304,-1.796354780942122,13.683368322947523,12.04137113025643,8.643574172270093,14.313045375860545,14.4290946440866,16.540714903960797,35.030298354287304,49.37709793152491,47.67388177359163,48.27766480075113,48.628536987736105,35.30024360958146,24.806117483387702,25.25842485556504,19.167093350186704,12.263956621403167,18.247856430449204,17.50767375759073,0.7297647283264812,-10.581409926036791,-17.31348737208821,-33.98728664634923,-47.373934928783214,-52.23191488198687,-64.97739340528742,-74.55027746851061,-62.51594137942297,-48.06639533423283,-44.07058131448004,-35.01197410756142,-25.860382526302953,-28.46629234275234,-23.202260563402895,-2.8091796427674716,11.419243987483895,22.833684920654004,44.146177230693866,55.897818318770945,51.27541240458817,53.43434441030485,60.26913622963602,57.34698529650221,59.40014500207696,69.47379076892275,66.15296680204528,56.97248159238811,58.83797336992441,54.28712568611692,36.16626239634722,24.91885239578455,16.71871981643479,-1.169755386738128,-12.344446168173894,-14.459058073472164,-29.79205123301061,-49.5655804395047,-53.38760512471555,-56.242006019632,-66.549769079725,-67.18842860445403,-65.58994370092731,-76.20675814554376,-79.0701705896213,-65.84137332746792,-57.04199221817262,-47.75186573124686,-23.66079622802546,-4.023119423104829,1.3171562822072675,10.298804780338457,19.312681210422536,17.697713901228806,23.951688469492726,41.453210803233176,46.05181766952059,42.143393746164385,48.19669979885859,53.15409136436287,52.673612099633914,61.47477692581043,67.09728824316268,53.05526203600173,39.915090674593586,38.73172681240361,31.713747366883723,22.49334750662515,23.103345550658872,16.6906319236425,-1.3976261164050054,-10.29225393482941,-15.538960472977061,-32.973448360008824,-46.36413044431821,-48.74194008483168,-58.36816768050846,-67.08314828285847,-57.72104487181474,-46.732922040874946,-41.50287226367226,-24.890361159368272,-6.65753914567669,-4.473363074244531,-1.4291569767648813,10.097044014099891,12.9859627742226,16.751251625615076,37.02533747761418,53.44753691947727,56.06171436649886,62.377080736851084,66.28967949591917,55.44979406032941,49.769899031419044,56.62873304497885,55.542241259875304,49.86121885111766,52.44596218104355,47.15177142944204,29.858976616149054,21.362768476405847,15.406561524568266,-4.301933483806027,-21.949920506761014,-29.909691402731397,-44.24433806730003,-57.22155164362917,-55.082716803583146,-55.053296029429305,-62.554627961485295,-59.13210698616665,-52.95887423880045,-59.75178632592029,-61.90186505680791,-51.01848125549016,-43.671448226177304,-33.40096530484213,-9.556561213994705,6.581437386179485,8.792104461663643,18.24481353859187,30.041784651720782,31.23347991496572,38.37705394730262,53.39352339326033,54.821286241834365,50.987844427218626,58.19638992874091,60.78042036074049,54.60262212080756,57.177517674042875,58.521647462965284,44.33082475644699,33.48900427605139,32.39762875815927,23.011670073943293,12.327568539263243,12.551840621288902,4.923229615289274,-15.413479855952525,-28.1362567153269,-38.24080429359937,-56.752324633720434,-65.25163323413668,-60.567668192381376,-63.820877591431774,-68.79001741116942,-62.53867903876768,-61.71764061436582,-66.75418078172483,-54.92406461248254,-35.428366749433835,-26.56732133996664,-15.496813123597015,-0.7899342244527414,1.220867954426637,4.706550209318613,25.04290989937226,41.47136558863874,47.11927056083634,59.094477971491614,67.86143405443794,60.29462621914186,54.442858682230664,54.15300554626008,42.9007378333919,32.44932808032265,35.8194818610886,32.3950705384896,17.374833624536304,10.020701756612283,2.9160362856523827,-14.779464349178715,-24.496250858941146,-24.731680827830548,-35.427954648807805,-47.199035988088696,-46.63277396346219,-50.638749689429105,-60.48847714319436,-57.937083206652225,-54.25883555105683,-61.77574190195998,-60.3431666209845,-46.50616529209367,-39.11271604557231,-30.83728095609996,-13.521732671484965,-5.392472621307994,-3.2322967717660473,14.348397052402078,34.97187350800618,41.83132135015264,48.076793061701835,53.8962833389036,46.020468491083044,40.80415349020133,50.74906796696004,55.25878853450564,50.785051856472805,52.31192964777866,48.0670066215037,30.099047580328584,19.588173072128335,16.644749735662824,3.2430620567006323,-9.40527867556428,-12.68627003279678,-25.580674188749793,-44.7098967847906,-50.65447766356162,-56.04598855424938,-70.69843974784663,-75.02844433032779,-71.01349850515109,-76.46376048245779,-76.1448257288174,-57.66586665035783,-40.73938264694289,-27.4100268943722,-5.201554482068613,9.718322555778448,8.938696638653322,15.328991885903607,30.07622152132432,35.5402138881126,40.94624996402613,52.680750526237794,53.10273824404695,47.22093505462523,53.72195911107128,59.540444165856975,54.124989981076325,54.14721615784565,56.047051678395306,43.537685928841775,31.551946682063743,29.66192551202198,19.022950423189073,3.289065416984346,0.5449685260671,-3.2535040305359453,-18.425643518340593,-27.137677381274322,-32.62834171587683,-50.37343095677144,-62.313644751402826,-55.63346227093572,-49.893717222410025,-46.12895233286607,-31.767658175133192,-23.749369648763427,-29.597952543963224,-25.461665153241512,-11.691426743502934,-6.066275783894991,2.8958241470720507,21.144661086778612,29.287611179201072,31.986689977277123,45.24170240806561,53.025413187587894,46.523441532584016,44.950658210990056,46.319753900179414,37.617658333563476,34.825196932349435,43.79134347589,42.546335273155115,33.458783671797796,32.49064842461256,26.816979920248883,12.089584236744908,7.977850539770834,6.974331913889111,-9.381249871316966,-25.019021097770786,-30.023565701245815,-41.58147703286292,-54.298199783165316,-53.58880363256853,-56.47936360100316,-68.99559879221367,-69.48862679941404,-62.324896595213914,-63.83051946328015,-60.02370781965561,-45.95646764154742,-40.29714969540634,-36.11702024648358,-18.08133975518227,-3.012144663737306,0.8482486182581048,10.862324672448878,22.263669489747723,22.421690530186236,27.92174853727571,42.75091606352634,44.749254859257945,38.33107989555194,40.15633067649878,37.661194452780116,26.525582165130633,24.751996487190517,24.710147167285392,10.977436820709919,0.9365636732363267,1.7358397756189472,-6.901095191491843,-20.75334074608416,-24.45916827617415,-31.830127529014792,-46.918276816495215,-50.84611609119604,-51.28721638534569,-64.36708570360236,-72.97646016999254,-68.28077667297124,-67.88792732808581,-67.59397711079609,-55.5932027343225,-49.059417368297204,-52.01253562604808,-43.33328919047532,-28.696821146926013,-23.877841848633242,-14.77126375350145,3.5442677942288414,14.002613560452993,23.689878041342872,44.89713595864683,58.5228180562228,57.040386210336905,59.213529152393235,60.804466870859216,49.32377072536211,41.929826661899,45.061713499520806,40.608074992716396,34.401740183991635,39.148078156992455,36.924603147848,21.90809634389027,14.477054627073606,10.645317365351728,-3.471118546793525,-13.71645311610851,-16.11089064154968,-28.303788669004337,-42.192827551459345,-41.57234236916449,-40.19579883698185,-43.01553077679289,-33.28601073598391,-18.916041161737958,-15.403213305985634,-8.247754204753987,8.242839489939607,16.421988610636685,20.332886085936202,31.290319742926318,33.84265523885284,25.89004468894002,29.407989651643938,38.55089119748563,35.882177751928836,33.968253775208744,37.66035885991141,31.063111450090492,22.485862156385352,24.00214038950419,17.256692987648297,-1.8199556742883907,-12.55889708990407,-19.107116994718854,-33.24919226823972,-39.92374412171668,-36.30781226139894,-40.09946353942364,-43.507656620291,-33.24384704309287,-25.678655744958107,-26.062718569816454,-17.873300972104104,-8.14264919234586,-7.721403584931445,1.6478159759511875,23.5205280387129,36.72316249295665,43.93302659892596,55.628371737330426,58.41820471118184,53.508164540283545,60.6657723918953,70.09921975194854,64.69539767389574,57.57278220799479,52.58137936260255,35.61343099125678,19.074197548690446,17.893755754410407,14.90943528968685,5.2091286478057075,5.313645746764932,5.748619576203212,-6.894754132075964,-15.407012305728575,-16.130940589744686,-27.718866902472897,-41.40071908904291,-42.250609058828616,-46.903961654802,-60.131865736433255,-63.64978834401433,-64.73304435263331,-74.88773433969995,-74.02001571828633,-57.2511183821146,-45.76275385018077,-34.57932469531119,-11.88800146612953,4.922963304528175,12.328241066713595,28.05001914421362,42.60484984271705,43.15909168703057,47.98067391090379,60.577091782627264,62.550443025818865,62.806419475143755,74.15304847154596,79.16822335249726,73.65885293869151,73.31671612258299,68.4349296589601,47.90808735092236,31.34873637072687,24.962962805239727,12.973693265607602,3.1825731290511436,5.6529767622345455,0.5308921447796005,-17.277483752960627,-28.627394574878537,-37.63948840065752,-53.50742750725635,-60.83373409730592,-60.996374157960915,-73.02567042990106,-84.13458826548238,-77.3435889531655,-69.18288237636399,-65.31615396763206,-52.24991028242042,-40.85592489741135,-39.17323283931638,-24.966707952662293,2.3425611252271192,19.02412709285877,30.878426434315738,49.619569841951716,59.14805325616912,58.84554698075122,67.24323236328634,75.75240145607921,74.74710357544807,83.79207369694221,104.20737971689388,113.16097842549907,112.9057419194234,112.98890612203417,99.95990054882174,75.54843300114905,60.24930453082658,47.31600322907297,24.48494978098823,7.277338368450267,-2.2004111128784998,-21.42913392623711,-41.144932972724256,-48.00210971936668,-57.406565687911055,-71.59371555143518,-73.52225060171153,-71.71277231146917,-77.39711823514796,-74.42428356853122,-62.35963792184746,-59.41516351442416,-55.594195146154945,-38.316479597695704,-24.534861397537707,-17.47247825356429,-2.3650411174260686,10.263243706112114,10.390144401922448,16.44352132637219,30.1196230863152,33.523085263274346,35.39941927470704,45.973696246993455,46.74499364939815,36.12370439024835,33.66446162331488,32.12714691831707,21.121342157654354,17.45413837057251,20.789205868099877,11.526258832816506,-1.1619975028263974,-4.65297441050596,-14.65371622180742,-31.589883191242432,-37.44640565461228,-42.02615594268764,-57.288460123186084,-66.51058576945934,-68.1360518882248,-78.15894109295371,-85.38720644409615,-78.64522054657078,-74.87040702475983,-74.08352231176472,-59.47316960951089,-42.8527242380683,-36.40115480437323,-23.07656286160322,-1.728727187894659,9.843695658446448,19.60351500434468,35.97995542222858,40.78754227167288,35.377884134778505,40.474360149083815,46.513667236715406,40.1885993592461,37.027128487477526,37.97436176662463,27.095240442735623,16.539042342637217,17.564287787821275,10.958478527459357,-4.546960012222174,-10.888002262449879,-18.378900166691402,-36.80407680967917,-46.60157406010467,-47.09961348605499,-57.52244405729566,-68.25701024729558,-67.24345489691126,-71.4423517768342,-82.25628847545111,-82.14116827557586,-81.22721359284874,-91.01483812923568,-91.89365800804043,-79.4588386839857,-71.3778723167478,-60.23210203821175,-36.94198738097067,-20.683424585088076,-13.853285373333378,1.054166307784465,15.36968772760617,19.215207340850377,29.434161039110023,44.955477718102124,46.890220704794366,45.583623205782324,53.70286573257677,56.023124732703565,52.16260923949548,57.37679150039542,59.91527562472196,49.66934104574159,45.38748747328617,48.64600812800738,41.6816028826043,32.04660544489576,28.45146333017405,14.549893984600153,-8.221419669251649,-20.885017748430784,-31.43807150095579,-48.53318169537097,-54.36140520951018,-49.17352417866729,-51.2279622287468,-51.57121854772266,-41.09723960131032,-37.883469639847675,-41.45252190847987,-32.684013596126235,-21.1246308738939,-17.577812120609877,-4.483536716593535,17.315092551092665,28.2280776475776,37.829588429049714,55.33590368661756,60.96688013944583,55.49965886103455,59.77958593639019,64.26305199498464,56.825274426812086,53.43695004942046,54.22958633825855,45.09486628967629,40.12826409040247,48.77762716266931,49.776480143852936,40.19521956027793,36.6894730479995,31.064018393878985,15.594746218337132,6.80055244439917,2.5081565185910577,-12.98774135649472,-25.680645527494598,-24.399729284864833,-27.090194681880213,-33.84449434961114,-29.370491441634087,-26.790982017951578,-35.447372030503985,-35.441052251704576,-26.621918414203584,-25.56720651598495,-20.3209495006549,-2.9335807023451137,5.615450480532583,5.74250824492386,16.73086215300635,28.673093166338024,30.782544279604558,38.67560618543734,49.84245351434663,47.49520188201334,45.73307542212889,56.26830370713198,59.89072689134196,54.927011903770904,56.62689352183276,53.990177922089494,40.29366771217635,34.98528214368985,36.25292961082885,25.66867393114614,13.290384747490766,10.16095410565541,2.479125911186171,-6.365243068126009,0.19328266471669675,7.046205445507065,-0.08500918135185298,-3.430615571745734,-0.7757050772299303,-8.02993269586578,-14.848926703563109,-13.181369262489117,-21.06065637238168,-34.025749063902666,-30.496921361134767,-21.500369508980352,-20.104587828963016,-11.685926485409128,1.2882019705607384,2.8823855346449605,7.383424666370997,24.361067985034662,32.846591999658905,31.582948572134455,36.40606736493914,36.43782623508725,25.564076857218808,23.954892953906207,28.636785679184843,20.075793584666705,10.403040955877923,11.88451121556747,9.389469244911734,4.463185833200641,9.627049305242004,7.734229427004069,-10.641422538564495,-22.934984691562153,-26.383726879490947,-36.510771456632895,-43.07431644109698,-39.528344395808745,-44.21819712607155,-53.45915926923135,-49.174902155859634,-44.44992683435118,-50.33901721064028,-49.89343550528221,-44.53092075681344,-49.100407290696126,-48.6165232876959,-32.52189866183396,-19.791073456419397,-11.517171691506972,5.320203938123585,17.09552250139253,15.635837640679238,19.487180136113466,27.69403397610786,25.041215914360325,24.21851733928655,34.18249364566446,36.48414975759632,30.93228168650063,31.32372349037457,25.589815794576026,9.192366593260859,4.119603201356433,8.301583581402374,2.4516626788393516,-4.571833106324408,-6.548749350665784,-20.470866124264315,-40.05252320210446,-45.411058863973324,-48.02407977372273,-57.18612146632537,-56.60301770607002,-50.1756423044239,-54.73922021136281,-58.23996097561126,-52.402871672458545,-53.44933304226087,-56.67769375740042,-44.7860380195733,-30.394195419103454,-24.148793225015563,-12.010084768337379,1.5596612922581334,2.0272483979082914,5.417893991750168,21.64410000854292,31.56203704814839,35.54617773840639,47.21883699511572,52.0915947242855,42.78314032530126,39.65323108989456,41.020183810946186,30.617929682866304,21.84694022857534,23.118160371053456,15.105899662754474,0.1743602344787636,-4.842409976663949,-13.63527297194488,-34.867519196926466,-48.5682563959268,-56.376142414133646,-74.48073319127647,-88.7838009937374,-90.51184690617713,-98.33115409236042,-108.50235808133077,-103.81240639015246,-97.83387372713614,-99.0227773074781,-88.81090582213112,-70.04541837320208,-59.26176971348604,-44.87674390160158,-21.41337788650081,-8.579822550204051,-2.4831368603077784,14.156477457849764,27.885923938019086,30.532387294238436,40.729147710482984,55.411678243399464,58.65784509995481,62.680700403874695,71.93648920496534,66.63916193717876,53.41491931608623,52.78601410031486,53.12555586042128,45.76331125343218,46.705177255757214,49.6054403028851,37.52476221159167,26.763574026498226,27.647451138380347,21.58005398092479,11.964898423238328,15.491924811481564,17.303703786327514,7.7334650909314515,4.812255313278022,5.4657815460260535,-5.088981705709301,-11.03260735986397,-3.144509887875507,-0.4115785954174901,-0.6770614225455154,12.229711619119229,25.26780805158638,29.627790415568846,41.10488986386636,53.58395023675056,50.809648171696864,48.630850776425454,57.24640496839802,59.87103499491303,59.51510480694026,69.06927012107668,72.69687858486013,64.33866095654157,65.12288944655138,72.28206288463541,68.98039656299521,65.89555662548631,67.3686287800686,56.36794174055886,40.98879458264081,38.66353482230534,33.90602515375239,17.188758238969395,6.636260879832892,0.6703075651717396,-14.131179483455025,-23.417036087616683,-20.433263593635374,-24.364860057308213,-31.45133275522754,-25.222940507175615,-19.342935742354843,-21.95418798741242,-15.431512594484094,-4.273761184878848,-4.8208344988991225,-2.222261741488893,13.319761918833416,23.81212368919454,30.172416342516588,44.33528296177853,50.04281139960638,40.917616761597706,39.64614020917711,45.605039328343025,41.876023819987715,38.97087254886704,42.76806895938001,35.845644620776426,23.191366267106147,20.36767801137832,13.026415384343926,-5.15937758581972,-13.822007857923209,-15.560805784800658,-26.195026799416205,-34.16322503381479,-35.44545674582414,-48.5715147096923,-66.5360060583832,-71.24085094155613,-75.25165624671938,-84.60730588255933,-81.0211792747458,-69.61841150866758,-67.24924599012368,-61.412170244896515,-45.98807713339292,-39.25541341623964,-37.03207239037851,-24.416360997390015,-15.203324502761664,-14.740337378567261,-3.883319843078441,12.012898698550092,15.650920941116757,19.288378559976366,29.252776390976088,29.767941645335256,28.422362547016956,39.31711220173537,43.619905810905365,32.34906411087852,25.374588270464557,21.134835194572016,7.187401530892345,-1.3409110355282825,-0.02560288200440608,-9.324481603677269,-23.694013234637918,-25.85771900959945,-30.012666213012835,-44.49553886962638,-52.76144973110006,-59.708176660856765,-77.93365322262795,-88.57890208565065,-83.30690786333675,-82.93972608357474,-86.266595906592,-80.51053613662704,-79.4114855825293,-85.29331987027172,-77.08171203264648,-60.738466301095215,-53.09136947522206,-40.44389757357569,-17.477552468797125,-4.149577756981401,2.76551146077049,17.80551360556383,27.421473327726545,26.910710494583363,35.732189178592726,47.59308275977887,44.63414068558322,41.02170484620339,44.52831194721334,37.4164210461319,25.391876386111676,24.981568641876606,21.83179130897601,8.690627438198463,3.348430621304611,0.35438320404252804,-14.972043351073562,-25.748914031512506,-24.148123645392573,-29.399535835916595,-37.56383906689357,-34.01759777472023,-33.78530741106755,-42.73364048816671,-41.54734023060963,-35.0731136264975,-37.65992638217551,-33.56053056123294,-17.605238583822608,-10.00875960250727,-5.814770412355997,10.386713305276507,23.985410284560672,28.371051137006997,40.16768634206071,52.980278067651795,53.336845726257295,57.52466875685829,70.41292426965992,71.63973627511058,65.75639020422146,68.00341233427919,65.18047121823597,52.776407939860846,47.77679265828394,41.975689917822024,20.75844929453193,2.518022642007729,-3.987942811232111,-16.07236503924573,-28.01964428923854,-26.419742381608128,-28.627486340100646,-41.14624880897555,-44.480290662434925,-43.29572867621274,-51.905776342259195,-55.05957524315955,-47.34728033854745,-47.80202440483487,-50.8737254323155,-41.151381199362746,-33.28390468903086,-33.70589804192802,-24.714959261235173,-11.762396033859336,-9.419419537804707,-2.846685027889081,13.87470809193728,22.764192139238347,28.677335212609062,44.322240931524135,53.71522026041377,51.34803329876597,55.60128060602578,61.50578426079029,55.71566559211949,53.847506223825484,61.04877033962848,57.85628868612894,48.80607318107822,47.23709831575951,38.25527271197163,19.53316735505036,12.185368458017319,9.701636028801929,-3.512973178955531,-11.86479759720386,-9.865996304309736,-16.52744906809663,-26.666433988721298,-26.25323027200859,-29.676184282191624,-40.39670737034845,-37.886731032530285,-26.471737829594268,-20.93728728080312,-7.952518960272783,15.607136455213958,28.466084740716425,33.93295347173131,46.14416216895544,51.977529020300736,47.99800747614045,52.41401704532536,59.729562511105776,57.71687164183886,61.49639783674246,72.66587253954901,68.89612207466844,55.013567146517744,47.94809302418885,37.71858119234603,23.82005969634723,24.155048891896904,27.62086785357527,16.75773142733518,7.393681534840358,5.970396835457299,-4.297715013501688,-16.00653673144911,-15.097302216929894,-17.814106518241402,-29.760325484628886,-32.842623651758664,-33.19434209038158,-44.17260684396776,-49.67897145345398,-44.87336368746867,-48.1233774228627,-52.71645819658205,-44.20082082478231,-37.98497803111522,-39.45362475253366,-31.682500297074377,-22.331417247528776,-25.200558030498122,-23.781486515207874,-12.837296447782037,-10.142694120493005,-7.718459542164303,9.605565144959904,25.145193661280643,30.819532378137744,41.1354283222895,47.43667784388917,36.83453120555834,28.421981633413214,29.574971053845204,22.051762644381693,11.085799914713073,9.187318561837845,0.7065842073019835,-16.98037219247106,-24.246990400488805,-28.02616479834306,-41.773893978521556,-49.40054762719652,-46.88571636415871,-52.60868237267073,-60.52983412226729,-58.44539918951553,-62.17398467985586,-74.27856432019124,-74.64460865760341,-69.68233577793112,-72.78996825829586,-67.41565582409461,-49.86407235618212,-40.31439353639058,-33.79960557213806,-18.515178028374365,-10.56746424606464,-12.17147687470599,-3.8029993231231933,6.739129335215964,5.587505170152188,9.176123196618773,21.33156488208653,22.756557095307222,19.625561141081203,25.386497993820473,24.890837368631562,14.547375378104691,19.63942118690433,52.04219580421861,99.56099668187954,144.50101571081893,169.3803488080618,158.6502082436384,114.5418624187435,71.61918845637632,59.0402979106371,57.13478862351922,41.37209119054994,25.10990854190727,16.017020740138307,3.361072575172993,-2.528579368369313,5.426203600933538,5.125739948427835,-3.6601994263691573,3.4395616224773673,17.305238400761194,18.421114049065306,20.427602117688025,28.719988205661387,27.568954297464664,26.01584874802075,36.911970050455345,42.464185843664524,38.00411105888128,40.696694132593464,41.39226989943762,27.301517015082386,17.13703224633747,15.738130681748663,4.53048085940955,-8.92012714331478,-11.340974893009975,-19.162866354981325,-35.87721844564469,-42.25759168622187,-44.12199145616643,-54.345970650373495,-58.433713444621986,-54.01666177124022,-60.06640611786737,-69.84650385340208,-69.58618888394747,-79.14357726651832,-114.2694569222254,-159.82202867250228,-206.27611583774805,-246.2519749452886,-250.95861119535704,-217.53349555608105,-184.23083268463782,-165.54400747403344,-150.15094891344324,-141.7970513202758,-135.88331088996048,-115.3629239741938,-92.60942223258857,-84.51936058292557,-74.90195550263803,-56.74319227373459,-46.20922145368666,-37.620601337358764,-20.61169956713488,-12.746120384379623,-17.496637424840795,-15.318320862684796,-12.339672949367076,-20.69798722437082,-23.90825961772046,-19.346731814343634,-25.220820171580485,-31.498756469362874,-23.07457651921993,-17.06264690983305,-19.43221417776471,-14.016256574827546,-8.459771040725917,-13.324595728249943,-10.779838162556162,0.9393270860396052,2.917203775610392,4.972553668274471,20.804617302084562,32.3517601651947,33.5859162255351,39.360321085689186,41.71941538664692,33.402196565565994,36.263269999715945,53.035500302998535,61.17272157568137,64.44898539671041,74.37148174785693,76.67182264385247,70.75271623620887,75.07130457742295,80.46876330053821,72.94739418228353,68.74349429244285,70.89095438958589,60.38884219929943,45.45128214405292,41.53450870808433,35.51862160643462,26.216108992924553,30.921307961147292,37.59422358283789,30.347524273977882,27.11996260560857,33.37112935324128,31.25107876786997,28.603794082241556,37.81789089059942,42.20102020266073,40.04986302147348,50.6218592581368,63.92753203016015,64.41920029472857,68.532561800544,80.37643259456232,82.20725498506249,82.5868217047663,93.9253006026571,98.77404201839758,94.54459480926005,99.97662445171417,105.71318107039477,97.66572693502319,92.93036231106146,95.68454484620352,88.02065758757183,77.07898950549657,73.95406285936286,61.95413743618573,40.43740682224309,30.091264464413257,22.17562312566654,0.2904139057454378,-21.376108038367736,-37.373068166225394,-59.637051304868976,-75.17314768155654,-72.08531175937205,-71.53157427211023,-79.3769411451017,-76.24459988844953,-67.69943940610851,-65.58216249197675,-54.06661740072115,-31.648917372124775,-17.488025786432395,-3.9419695406566113,19.84732312448161,35.180530290607365,39.0791029066094,50.970352181138054,63.45231053300729,63.649393291062594,67.72262309805951,79.31344130443377,82.03597172629577,84.07831689766662,94.71198083606639,93.59438576184189,77.56939929626915,67.94159249495341,60.30603361128155,44.31373540330175,36.11559799069432,36.51728867259803,26.570800961923354,14.284809155150496,11.34404763899353,1.3525279180355545,-17.23171032624125,-24.7910187633169,-27.06616500196385,-34.546151368471826,-31.18184117880248,-16.601071874290767,-10.74478085739341,-6.063598540896431,9.257797924078426,18.887532137027122,21.577266572865952,35.29385288554495,49.5755242129635,50.15485292271501,52.857190463992175,60.212308797757956,55.53731762157647,49.61946898369979,55.93748761002716,57.61097314524519,52.330501017490924,57.8253960579558,63.420026788587734,54.273013777241104,45.90607531694722,41.852184421506834,27.546003442074927,14.62963329961761,15.291886567356261,10.837148309170198,-2.2513127578536523,-6.196676426006032,-10.167795825794698,-27.166860280507326,-40.75203021189942,-47.294461632746064,-60.35463595470651,-66.61273907622154,-54.66591303998874,-46.467931746787464,-47.944781106228774,-41.03326443484764,-31.671870338292777,-28.959590532349196,-17.19403939186688,0.8792774278090087,5.066477704746008,6.13543119850967,18.074237103973672,24.31623350176636,21.432907613930865,24.89453490226174,25.214298602707522,13.080917569143743,8.147644113183421,12.530425147521978,7.12072114244531,-0.07139274684789587,1.5628753979788916,-6.16380739513472,-24.47601992260406,-32.36193537035914,-36.21728628116997,-48.612119098581715,-54.69769573302999,-53.921146464420765,-64.91618376433007,-77.58254509149336,-78.25961060496638,-84.86224682265373,-100.96609617346859,-106.19244362331145,-104.4055039648386,-105.3708693369595,-95.19145901336734,-77.78772881881324,-74.89294612538801,-76.02323880388535,-65.27411835084959,-57.7039392665752,-56.17844756164759,-44.681219648414725,-32.85814438669177,-31.046939549856518,-21.296453589785756,-3.8426567802310627,1.3267008218194363,3.715683443326169,15.380708005650666,19.097575074008724,13.946948884621994,18.26081160254113,22.491205172919322,14.598336831978816,11.040700361762593,12.352614926363097,-0.17088544535974393,-16.067244496022102,-20.620202085812643,-29.289327915951738,-44.2315750082439,-48.161665532098624,-51.68977231710188,-68.47995281338369,-80.73461927566437,-83.65585060157245,-92.3523793844415,-96.43135761638176,-85.4265107568846,-79.04914345093752,-80.36894293281368,-71.25721568519332,-59.973742277183895,-56.968762215916726,-45.56144421292166,-26.513411755758327,-18.92603613780416,-13.093303070838436,2.5799713086543656,10.538762189817808,9.06838076394976,16.02023139838409,22.380420340632142,17.031964809462863,16.990015807906524,23.07607301045616,17.40121839542677,10.305289094903458,14.310240086775178,12.436727889150948,1.8397762784405893,-1.4517301339014916,-6.1757597506331345,-20.960630250822028,-26.587024343693294,-22.394377125743866,-29.32588623915741,-41.21178471171918,-47.300524755495765,-60.91094539878797,-77.09375318570167,-74.99224896334478,-65.7359916830273,-63.5146917722784,-52.965700704371926,-33.676924807515185,-23.17114605998747,-12.121508435527232,8.41213212480048,18.69695339528488,17.638471046387917,25.478125916593065,34.86674520759049,35.191482965608984,43.84010398602222,61.364213230985136,68.37789476240609,72.47551017188857,82.00580909753505,77.5527975597009,59.9208611086092,51.56846575707291,45.99573002123438,31.76904074071811,23.82060156500999,21.443223917104525,7.474420770857198,-6.440952483789036,-8.316061440219878,-16.74788188229864,-34.48168776104152,-43.72498410235279,-52.30728649517623,-69.49493989053066,-76.5473752991142,-70.99938465824916,-69.8676458873241,-64.2979698004351,-45.70721132582751,-34.19958411095018,-31.09423739108582,-17.201694301753115,-1.8323375490994942,3.879316337013387,17.78941950760071,40.867892996188104,54.546287458596304,66.60000573857434,84.7710028773383,88.8583392847389,78.71206692717024,77.04551107910845,78.58452174836506,72.05722244673333,71.46041412774655,74.68734949603343,64.07521660390805,52.54833618967198,53.59235799347087,49.91105816877722,39.115216164026336,36.13086703941424,29.653089956881935,10.545412407234528,-1.0583160191236904,-3.175666126721997,-13.694231151882503,-24.082874727844025,-25.092492167447976,-33.49142827950244,-46.72086940595911,-44.33872772823638,-36.371715414852964,-35.88967369899857,-27.916576119788377,-13.173367249122894,-8.40407102256819,-2.2836774002682945,15.173547361226886,25.7241658104776,28.827558252952755,40.87675589920989,50.98975065712193,49.61557774119398,55.09510532948795,67.5613512405395,69.08818341805308,69.08685012902012,77.02701554311528,75.48492980187433,65.12390214234848,63.41066870742331,59.471863004488114,43.7224405122979,36.04481867697015,38.005148690366234,30.889354040405415,22.259254395970142,20.544819012218653,8.680428975062604,-11.2119590542456,-20.06692419930377,-28.135428068478436,-45.56820833017071,-52.29084342477428,-45.006365520779156,-41.52561594870099,-35.083486294409774,-19.446406281161536,-15.062287787182763,-20.684510689649517,-13.822651198375189,-1.9116552588006708,2.908786361516687,14.76154867885358,31.764874354960035,36.71059746174884,41.48283545317273,56.5642750205964,62.857060579143734,59.520655230751935,63.756173891205,64.97852412833923,53.46629722206217,46.24586191687714,42.16942500055033,26.9618566384956,16.7425001581852,22.629115717591308,23.364453162660304,15.830422587286716,15.465084758271004,10.61245728132822,-7.649275119278349,-18.87367665972641,-22.13972432901143,-34.68589993094641,-44.06406286714803,-38.762355659084996,-37.65899668642288,-42.655711601412776,-37.78422120820866,-33.925711532732805,-40.93336336470769,-40.117984710665255,-29.398104592870276,-25.568218801730268,-19.856558251042117,-3.379936813658424,5.071535578753157,3.968215767673346,10.174084894783281,13.585588340634123,5.407024506042862,5.431906087654339,13.967936489009533,12.893561932005788,12.368123994481241,20.48585409134834,17.983761380619583,6.564483974354482,4.355198276986615,0.5033492736464553,-13.560647244544079,-19.171292874640567,-17.28087372429047,-25.746183136439093,-33.56076541838312,-30.388946514461217,-34.31051363916854,-45.688532217926614,-47.975335938680125,-52.1152796360356,-66.84432066284822,-72.03996450142893,-65.81193101746538,-65.29700691891921,-61.71292088566689,-46.96521353967233,-39.443609337245235,-38.64381741385053,-27.261947351765425,-16.707546095897246,-17.738350950096393,-12.962399484886447,-1.7069443583736228,0.9093082860739302,6.221580192888913,22.08917961738611,28.23708304253787,23.372647378866873,24.39069695654417,22.53354374850629,11.07888892678919,9.43186215990509,16.60018182221585,13.11742168068956,7.613994259723712,9.335943440782493,1.4817076447024684,-13.053465459511866,-14.774227698841717,-14.7669560628751,-24.02842776779305,-25.129677803865345,-19.263556511775555,-24.109802237829346,-27.94627406537947,-19.960452862398043,-17.46855834867597,-20.761535292151734,-14.36874496859622,-9.482349701033598,-14.527461289978342,-9.635338649589219,6.0716061751383545,13.524016664065757,19.705342345815446,32.53231783239112,36.054607377160515,34.311853536863225,44.84390040435072,53.19322485219741,47.22427151652252,45.48648093078941,49.415630040843496,43.29244812609753,37.38747305102227,39.4467555754233,31.13048898443028,15.200261872012636,11.176879079487387,6.93009926289443,-9.729736206900792,-20.31430065825825,-23.036632921080635,-33.98326662385441,-42.6514211397124,-41.28270158814495,-49.693101946707586,-66.05602647349811,-70.09239882153034,-72.11412875782719,-82.87221006343464,-84.7590539529046,-78.28196045329177,-79.74319293520844,-75.86873627910198,-56.44232229090955,-41.357042614600594,-30.871817800866744,-7.750422069096352,15.751816901995147,27.81207210534123,43.69069569225614,60.74521001482674,62.052639234681095,60.71792022609931,68.76006474774381,69.65773134858863,63.747715976637124,66.48076159482383,65.49319416773643,51.64047956453268,43.90801205165848,42.58911484646616,31.785836079707465,22.595619377950825,23.546298025166575,16.799757511309465,4.156631452632334,3.166672917549527,1.6153145480155366,-11.854126594079336,-19.545925844482994,-20.37593560874273,-29.296296813173385,-33.964574380279416,-25.395033702900356,-24.03638846018874,-30.758725835574136,-26.818461365040967,-20.340242542369722,-18.967683447683786,-5.520126877160427,15.162948334459145,21.764685715137027,25.13842720706531,37.814652534836945,44.812776093776506,47.94753144089396,62.79337115855054,75.16137856905908,73.58861110712758,75.48930308004788,79.82483954013522,70.2298454774277,60.22035761895195,61.742669985462456,57.369758502200035,46.65108204024344,45.089873669600806,40.559879403687226,23.49379516472187,12.65747514015024,8.56523225544451,-4.481543443103456,-13.863806059997389,-10.00851289357583,-13.021071413925153,-24.239713765065197,-26.55152903385887,-28.508410474269137,-36.75547453731577,-34.04487131102742,-24.964384245285785,-28.910422547458115,-33.06652084996745,-24.749191322470764,-20.390563454567157,-19.42166163483785,-6.565887803293242,4.735686580875807,5.2403479004118685,13.739144331086493,27.61280398252568,28.472450905389742,28.75750532266062,39.46352893959939,43.516646361838426,41.148461469250115,47.04261024118871,48.70518018582734,37.21235614061618,31.04185129685981,29.752754901449237,16.87155440185515,3.8194279873864017,-0.2597907100887138,-12.339158072176659,-27.185842933384812,-23.57510006376923,-13.475442107362655,-10.243900484322381,-1.1558049331839624,8.34098443402753,3.2747776206632957,2.4505133370421768,18.924972313621765,31.523645418493455,35.091588427113194,40.31920666611428,33.94044116558926,12.33563911335414,1.2394962244814478,3.2950749729604683,0.827700855752378,0.9466629618772697,8.069679715117966,4.569595946895922,-3.5125696149771937,2.642118479055091,8.049637592508237,-0.6788488951095415,-6.410226950597918,-7.807121293019599,-17.827478064005103,-23.2341373392182,-18.04792168270691,-24.684421039199666,-41.12506998098954,-45.77207067514776,-47.140104178987116,-54.1972948434225,-51.87083245148855,-46.79820869710986,-58.03024174787718,-71.16923166255886,-73.61287592178576,-80.9300587074259,-90.26960080108411,-86.24135647269085,-84.465332618251,-95.93910822727233,-100.58552259948723,-97.0380931423154,-100.47556979339015,-98.58511630741948,-84.6818225934473,-80.43917236437099,-84.0734543962222,-76.16346516135079,-67.75364490989601,-67.74088679381467,-58.32070466466452,-42.4816914135497,-36.781832372053834,-28.55850923522241,-11.037200896408507,-3.8974994086855697,-3.7708475491625917,6.67870007661908,13.825651049721447,8.1462169522535,7.351374829294958,8.922533658115922,-1.2077575063985657,-6.444436619740123,1.9398914404438279,1.8743112185066662,-6.934114992779996,-7.634929031170323,-11.55788509411634,-25.53110665703344,-29.857691051158543,-28.11633076632741,-39.548248179833735,-51.12226337701572,-50.5878446696814,-53.96594504827366,-59.197319915238474,-49.72766887363432,-38.25403053982099,-34.42579394042298,-21.132583780424405,-2.656250943910042,2.4729160080184425,7.634961520177084,23.849871834009942,33.56977905591586,37.55158795762452,49.71837608524427,55.333483870106015,47.13776616396551,47.83297917833463,57.706140590354195,59.21298550817063,62.5083621579719,73.39195299084216,71.17788047848985,57.85973805138858,52.74205393984756,46.5138088753244,31.625263663532685,26.153194326052237,27.151646897302086,16.546194217312024,6.572619639203491,7.678670826810162,2.907047465467547,-6.034361866417756,-3.2432611162000073,-1.9589137682836286,-11.777841484725215,-13.972004550536395,-9.093898900150101,-12.39885480405452,-10.48326474081513,4.9339532206552,13.380666646329939,14.764256007561606,24.97866960579042,31.96537648377958,27.546102639639336,30.361982727872704,38.690882264910314,36.20738394529084,35.128746637135734,42.899596461554545,40.636298137959024,31.912911632559176,34.59610877588781,36.18176758307004,27.46405675608233,24.519161598058425,22.93518707211748,8.054398117631848,-3.701863800895075,-2.9761768790849388,-9.05321375908948,-19.914100180481057,-19.99456356992407,-22.57147225513493,-34.510282077539124,-36.32946260749934,-31.382708646347893,-37.339311840122164,-42.313353636751366,-38.01652102816738,-41.276339416639814,-47.90458310541851,-41.13744161452635,-34.29344649600813,-37.06437486371824,-32.481936370800106,-22.192919705448084,-20.33084959464669,-13.136356020149996,6.9437098565737045,19.81127669478993,26.237591102260364,41.36924931528559,52.36874441097365,52.41757997372699,60.25523926317973,72.05566347329069,71.49884600687493,72.07493961358455,81.54608515707358,81.96081354546739,77.01864470397597,82.00757567914837,82.15773351192665,69.4043911226482,63.243000923109335,61.35839540962559,48.45261951891933,39.11532721507487,41.35666505253259,36.36144876652282,28.07492132748723,32.8566581584859,35.18063929507249,24.68279828473374,20.128794957360704,20.250729503120414,10.005788249398524,4.73475298285868,14.619314824025514,19.779601877817875,20.07082511617687,30.428671425230217,36.78877546531443,30.46302565369028,31.49875658328724,38.72099341448475,35.340369055679105,33.705466010164656,41.85283046934944,41.37348429996634,35.38569558953524,39.669958896019054,40.191824005826746,29.211412879628362,25.491132666269394,26.014754823348735,16.065747615249876,10.4266401292831,15.937619423592627,11.972368168105472,0.8817541431373126,-0.2588233023569946,-2.700003293741758,-12.481557720544064,-11.539201217302612,-5.6799075057803154,-13.229645925913498,-19.845968860930917,-14.17274616941668,-12.36778126828974,-12.333627974144296,-0.7511294212162554,6.810147446720987,2.121449355504084,5.7338928403912455,17.077054714204774,19.694376718861733,24.051366671621786,35.611548295608685,35.015528955415334,26.355871700401934,28.882191482991566,31.694842659184516,25.91582892581851,27.509385726314914,31.579153250551787,20.928882954916737,9.918935358499496,9.669662335839481,2.98350621501821,-8.976327553372712,-11.372761740628935,-17.428617604352173,-34.78247400919042,-43.437996492818804,-45.08240329772566,-56.43868102131115,-64.40870914645942,-60.096738627097906,-61.86596906078926,-68.0833444253508,-64.13803332118306,-62.705723037590715,-69.07913739172385,-62.79869751044126,-47.01538289702885,-39.76376754294006,-30.411825909020116,-13.16000315523858,-6.8805378179275385,-7.036596747176708,4.410411200714422,14.722304262941407,15.948557985732524,26.054238604557355,39.11173410710545,36.68134766261058,33.41607317524005,38.72647315966337,33.720806946691816,21.347319452732812,18.73297912197721,13.20603924723483,-3.103797979108717,-11.846164304598624,-17.287930624530677,-36.417891750488074,-53.80477490066927,-58.60109851593176,-69.05438524555375,-83.61748277639887,-86.3633756423879,-89.35572843825179,-99.60666662005806,-99.09006208486741,-93.11402836067734,-100.17561827980651,-105.79360526994337,-97.2089352037939,-89.53123813607792,-81.58173978943915,-61.83338614119772,-47.14362312610556,-46.25201127909298,-38.97742316545586,-26.557800141274008,-24.263381268878042,-18.37991917056354,-1.3310503391286028,7.5525584225984,10.042002061559216,20.218768432162147,23.210517554060058,12.090102588546877,7.769652332600007,8.503138492382778,-0.8774827342593268,-6.17644283747506,-0.5782185322933442,-4.4748054226376235,-15.243806543468741,-15.842325745262663,-18.10522639953564,-28.934271870396255,-30.866388215133252,-29.87235652193597,-43.622964435096506,-56.58419152176472,-57.16654888687017,-61.261589910314854,-65.42674530205593,-56.534155054271864,-51.863161984141605,-60.17391429584243,-60.571008353931596,-52.73894207948472,-51.1519447861657,-44.37139137661151,-28.06230658290613,-21.81364110943319,-20.35612668311218,-5.505235432644621,9.022167753007482,13.259975770483429,23.1803715456081,34.785922903118724,34.16201103432812,36.87432220035551,49.47467799018505,51.33862525977412,45.80086811055442,49.4207644450817,49.032277930759754,38.29182917371383,35.86367796407134,36.55221839328091,23.970136835707663,13.648108574242903,15.103083802262601,10.327417171201951,1.928994009437026,3.7249762388505188,0.45319859711681976,-14.342271741729705,-19.62725258292144,-17.617052813170258,-24.423208189641276,-27.090566100094758,-18.694797495967716,-18.116737672719616,-22.17242950694439,-15.53241534395924,-11.724277861681898,-16.469740745760095,-9.583710951725788,4.949976137707562,9.235122969962752,15.140090666562957,29.728852466809997,34.090712827344014,30.78861271093369,35.688730542887015,36.118238161635915,27.012025908584512,29.72395753914354,40.476056789842055,40.440142052812085,40.33505307786638,46.64447576308605,42.69638288776835,34.34008299217058,37.29153449634902,36.62434467012889,24.911379335980232,20.70935710719172,19.893636272554577,7.447834227271005,-1.4840092946446422,1.1369811180045422,-2.0584841090432864,-6.736504736386392,0.2835481660239849,1.6015712935293631,-10.155730784389059,-13.008820685844238,-7.159593203653641,-7.473943351961195,-2.6959988421777887,10.292105295196293,10.779321347664546,4.106773793347083,9.589620619357433,15.76214030017753,15.105154131998308,24.459997004112147,38.24362301082154,39.33554493702624,40.77971264717645,49.637499120784426,49.05376863291449,45.81701394152116,55.98138510704934,63.07260256580595,57.284070126099195,55.156421449103135,53.34710993939262,40.54868165954878,34.02511589147716,40.08042036184102,37.59367285344459,28.341076153949224,27.41669203732286,22.120284765508718,7.073991985782435,1.7230063515766199,1.851925424626493,-8.391446920730331,-14.30597762446745,-7.958303226837471,-8.076039638713446,-12.614739631497994,-8.240240034175653,-8.368871196616844,-16.81845016262062,-12.127282527068953,2.8408430915136442,10.40074558571598,19.14998863025168,32.439890923857995,33.29905645853388,29.08411570658441,37.058318030338306,43.2986386128756,39.08222515206773,40.308515856207286,42.044336130260135,30.639768292621795,22.661516220670308,25.618733215233966,20.53233972188784,11.50397693819238,12.830481485449209,8.15577183028395,-9.003386634796684,-15.11880535663425,-9.246448625735786,-6.488754437877267,3.2977008278468127,19.61621365141123,17.831999152786143,4.165009656451806,0.34173208658859844,-5.502440819768773,-22.081962942326058,-31.751804471497692,-35.21911196634117,-42.45594775115974,-37.92214517526059,-20.02274176747713,-14.388995494716985,-18.84393942733212,-14.182325198267748,-9.606547013516149,-10.532581327730385,-1.2810943140728828,11.019187827023934,10.779550562417786,13.020489235426332,24.328669428339715,24.70129754974944,17.706383998298257,20.14985605761707,19.300826005700728,8.298829074042619,4.922916812445003,4.543471684638146,-7.2917766358140685,-14.733716481089917,-10.356756506544164,-12.866418962481458,-18.969407300954504,-15.45984139392825,-17.726166805694795,-32.414464331700415,-41.08922505143195,-46.4235403612211,-60.062438748591575,-65.89724016857268,-58.7233621430418,-59.331047519097496,-64.26672400458489,-58.38843148249035,-55.38461240352694,-59.926884890209486,-52.99508673798815,-41.2927821774029,-40.534528677286126,-34.49053219311565,-16.472535609080133,-6.126299996464105,-0.05392135299341916,14.64525100236182,22.189379398373333,18.034058024977746,22.868590301285177,31.422744918771144,26.99115607443948,22.923006805806047,25.109150702654436,17.339938094371163,8.143531150212846,13.078619103067624,14.718164476649687,3.670584876195081,-3.0013301942504453,-8.532587499461613,-23.75266570346872,-30.312247582191617,-21.771645506130934,-20.27865214716405,-24.96787713297264,-22.741914425464667,-28.05084427726721,-44.36751679649063,-49.14883627040493,-45.12885033967579,-47.67443789177883,-43.96331496663198,-29.892236188897087,-25.852659959802843,-28.624172659904712,-23.010390886732942,-21.327448875025105,-28.289908394682726,-25.155893264697973,-16.450113181228577,-17.07793213804427,-12.792003465579654,3.12145458136583,12.811075707693245,18.687652056432132,30.990953495640582,33.679852059777765,23.295341851898435,20.773149926788726,22.250617641346885,13.648694773086634,9.175626786953362,13.720028453722067,9.216203424911226,1.477153552588829,4.210813490089229,1.302008026309571,-12.89065900040783,-19.23264391986007,-22.76623726965626,-36.61670119550108,-43.645038277303016,-38.00017188258787,-38.59527685855543,-39.578199973179906,-27.070814160735253,-17.365079851405277,-16.80863417471872,-8.62354098817367,0.3562773586332133,-2.0491904534902954,2.8518255487603366,20.39626228086653,28.633313642481436,30.687519409863054,41.084133817132475,46.539951458846915,43.87422041029956,51.27159002397299,59.582120414111515,52.86964958881116,49.32458310868867,56.877353978908786,55.77647492499539,49.23012410743384,50.032711897290085,43.112967965170114,26.025455296089234,21.10340666565683,23.30943435383675,16.047004546133856,12.813577412156894,18.151104153879643,12.880426376814304,3.3450075104720938,5.697382733140866,4.767862731826352,-6.721065353822012,-10.978734374405363,-13.128154434838072,-25.705413758016505,-29.373983574849348,-16.743431457385952,-9.315179494303784,-5.17597023751672,7.978454626254901,13.884765922287219,8.033147766697375,11.289044808049669,18.925517777543483,16.751822653552246,20.818154326058032,35.45228631397781,39.04616323928646,35.47297792692312,39.603705467030935,38.60698475108213,30.037561454238453,32.59323509304755,37.608124569952146,28.730739380596276,22.140096589530877,24.945775105254988,19.15177208302275,9.466921274463672,8.822385690744317,2.3869725834313638,-12.683195487887103,-16.61995662428395,-16.540758350658397,-27.958477073793055,-35.12313508848205,-31.5965117892905,-34.68517638495178,-37.872283897164934,-27.83430210524285,-21.96934228202137,-26.241291513668518,-21.58274575004379,-13.853401160395235,-16.974423202171657,-14.252657254634705,-0.38932055831506585,3.9979224911403737,2.9468933296290416,10.867156773871496,13.652763180799496,7.630038751689039,13.132373982964685,24.913131833275244,26.645310099685233,30.585343820264608,40.1960687015024,36.935336650111196,28.136355531085336,29.791531792121173,27.303646709357032,15.711355361277972,13.37712921543643,13.680427482557334,2.377660575173551,-4.4785110192977875,-2.2976382600005336,-10.312244870028596,-21.04140377053011,-18.76540565551855,-19.396205453695213,-28.678304308519543,-29.084429479337913,-28.991900694936852,-43.3027105067685,-51.87794048494561,-41.59103799884671,-27.63127130067778,-9.075925994925605,18.45074975527576,30.25662901055395,19.546445590543964,12.778921263759242,13.102998050153012,9.60139688532971,15.268031304622156,30.51084183384487,34.55876938916214,33.55332976906713,40.8256033845476,40.26837770734997,28.243060422287066,25.604274339638785,27.65128105422226,19.823849153974244,15.88463775172022,18.390290613011963,7.972774063497798,-7.262000207886663,-11.401736334810698,-19.541293087691123,-36.523412655876754,-44.07617669312334,-48.118656409469644,-61.292484446773315,-66.77920799804836,-59.86822357576448,-60.466645104562005,-64.12140167765679,-58.29819380008075,-58.47838727409285,-67.19352682428132,-63.59237280315871,-53.586120958775446,-52.17992246175241,-45.2515348719054,-29.611317503991444,-24.005670504854546,-20.58328956285527,-4.707387700420802,6.463027847749179,6.293136736711352,12.416700795410598,18.911044488827383,13.265536513536397,11.92098429116961,19.25957389147312,16.417475688291322,9.487551929682652,12.435638453263309,10.264628697083204,-0.8386648860428494,-1.4644728171861634,2.2278017140197335,-4.736774949355416,-8.859552784806048,-7.231842782077798,-17.592307242415767,-31.16907363495308,-32.53861827848534,-37.070624558708936,-49.706308849571464,-51.91118902696947,-49.35435938551688,-55.67855906292318,-56.17973027922453,-46.97218836766482,-45.613968842951834,-44.305182163587055,-30.143351286225496,-21.87968623360956,-26.114122611863248,-23.318200356134284,-16.188764077074932,-14.841681674796963,-3.7040740767577045,18.284335934644457,29.795638668462086,36.288589423431844,50.65210394553885,56.572735824521246,50.101002461434675,49.84973018542363,49.60053836973257,37.937413946728384,32.108489432135634,35.95286052326994,31.208254404477028,25.120276717378808,30.16345280637054,29.215928603766432,18.274540359554734,14.84448217174654,9.853514011003668,-9.388433394997833,-23.49361938510005,-25.617813810307993,-31.874229936434574,-34.754941601636766,-24.189388429392807,-19.6345235325712,-25.174265616029025,-21.772251236022978,-16.34910119361909,-20.99903287009459,-18.34468468495274,-4.5569835567440204,1.4074141180992574,5.810604968909387,20.138245483894558,27.16666939057287,24.06173007532578,30.493962652822265,39.15458581398756,36.03082213751601,36.610641653855154,43.5037044400739,37.67141605523715,27.392474655069343,26.42872794727144,18.683742936758183,2.2644122965233278,-2.617375382011363,-3.1758450822356776,-12.782271273766858,-14.971119032712473,-6.241388635904625,-6.07927808404744,-8.59847101139146,-2.0653979500783493,-3.8312484440926795,-16.801543996853002,-19.550892491211837,-16.426469359321526,-20.17590669952961,-17.070683485569422,-6.5301493104082144,-8.442352678586152,-15.205296954314358,-11.63163025622229,-10.615223633407242,-13.581316813645573,-3.180365748707403,10.445380401599763,12.308122009929122,17.175661830893887,27.849221413322876,28.233595249700883,28.293069864235783,40.2983505038,46.70024177890388,43.6137395119807,48.05705488107283,52.53217608899962,46.43042445422622,46.93278335038419,55.95916320907091,53.62971312647668,46.58697415619961,48.00285013772626,43.0472742081423,30.00231672151147,27.581732405715247,26.967255773965356,15.286578656003504,10.943060340248952,17.073672593596363,12.690330889974712,3.1546729056557172,-0.020117328212358787,-11.782421705579845,-30.426932121329177,-33.421676634650794,-28.110089321072635,-29.441161464554803,-23.62395958635082,-9.785989721937405,-7.214743364902146,-7.152212361448917,5.113084585963156,13.960809379284889,14.980238509192766,24.229348643810294,32.74346178456904,28.73119217209817,30.54808082297916,41.63327633228694,42.21966532759961,38.33908631138043,41.89200794275976,38.29607400487673,27.562851057483098,28.007612007346168,29.59645000780802,18.307247184176937,9.970099310840652,8.113583928159235,-2.731470199007105,-12.312878015940646,-8.908298122497971,-11.417955782754232,-23.98795205188842,-27.245146989532515,-26.46381567247282,-33.53480053948244,-34.19571214230571,-28.532590338144406,-36.04665273409584,-45.158458954767546,-37.25747197517694,-27.559630449251422,-23.046352943900857,-10.780360869406755,-1.6113975445645248,-6.2770498466306925,-4.251646963116153,9.175015828257655,14.852405668363623,18.078832186037474,28.296850649942243,27.881289979901645,15.900425674037965,13.646753348694086,15.04270825069351,7.814030764373266,7.476058178805831,14.67714199572917,9.702835382360583,2.0954695683880584,6.246630339182144,4.814140889513008,-6.154236933305374,-8.126395812972037,-8.416534814315732,-19.032923091245713,-23.393458068466902,-19.00083672126449,-23.998248297876724,-29.76224397349316,-23.25739006609701,-21.134980190822333,-26.767695061794104,-22.72143059418593,-17.60756180024924,-22.88841541000967,-20.684225378537754,-8.926392338667831,-6.248150681807366,-4.098782248360491,8.22450745434429,11.88336582550934,4.908986668589247,7.539048934078134,11.962925227399493,5.269703081697057,4.91256667895072,13.815876250597423,12.592977274532961,9.505813191831466,16.29962728776504,13.451818444431336,-1.7382416397196012,-7.763688189882923,-11.095895608435013,-24.77380203462806,-33.3346441681582,-34.97211320951617,-46.90485181837408,-58.25977416759871,-55.46389942037007,-56.315179102609825,-64.26447589180559,-60.97773819962123,-54.48643644532489,-56.91979582264126,-52.27685790999787,-39.65829521676703,-37.32632617119575,-34.86550163169855,-18.78603791308803,-6.705423762864058,-2.4736860533314746,10.621243943191953,23.298356439238972,23.6248521775347,28.02435263669361,37.517009398185984,33.74078841402773,26.651163294316774,30.705382174570055,31.02804717054208,24.88906114583194,27.673318616387164,28.69751743939677,16.284051617098857,8.998631319549556,9.435018144174734,-0.9043585350629906,-12.104655223358215,-10.24072153048499,-11.769327095326641,-19.477992264518797,-17.32471365736982,-17.639486122368147,-33.539422780294494,-45.14781508003239,-47.386754865651,-56.266016386541196,-60.892799099190704,-48.998089425231534,-39.50589012337293,-37.05139285784851,-26.649102161622338,-18.996584962288754,-23.357598047019657,-18.13258351038656,-0.20539584075148998,10.230175634320355,18.91206504608931,33.878120177772175,36.96094773876666,30.687268898575347,36.80378154722818,44.59373291188258,40.10481060966944,39.76039925182518,44.54589401012392,37.567905000683595,29.94179299069431,33.19794956895828,29.06866319976536,15.972598517274859,12.941639003944097,10.78030434522679,-3.3142151201295205,-12.30451357660406,-13.518888033601923,-23.746813464332956,-32.60637518705387,-28.385577876368718,-29.802961913741214,-39.44165334627186,-38.965242688564416,-37.65204006215622,-47.18125755756865,-49.6536780384437,-42.74565563738804,-43.12449101224853,-39.82944139996651,-21.013005415950623,-5.582134002437267,2.013665185180391,16.612348177081934,27.76767410359961,25.811159632713707,30.34490574798174,44.01000217797332,48.48821288853948,50.665328150254396,59.700545570262484,58.6619209923403,48.25287145059498,47.89503605052596,48.107918486723435,36.89926439159139,31.349733320560098,33.09480254732991,24.97571614526816,16.928539328758795,19.292325677498308,12.95265297576411,-3.1780581469897493,-9.171482301155296,-12.985770969856565,-25.136874658730225,-28.35777537661113,-22.721202514679767,-27.213071386358866,-32.64325488804317,-27.50021984360495,-27.28732668433294,-31.58924253209887,-23.997503122647075,-16.514400631666927,-21.257810539923184,-20.23500815228968,-9.94472065334305,-5.87010679631734,0.203492405981599,15.557466657935338,21.904617954288103,20.491339797440325,30.445502748981056,41.19352315819076,39.83117089549321,42.18446056331898,48.81110700087564,43.20871101190953,37.19667073142672,42.7789223069541,42.334492498654626,34.8083176910576,36.9939266121373,36.69853604470404,21.845304329837106,11.817203063264452,9.742701629113174,-1.8288745049154658,-12.945367469816997,-11.60914417880427,-15.214167967327846,-25.156782992893,-24.258844091519382,-23.986770703763835,-35.33858863816524,-37.68618236472195,-28.24369686897075,-26.50437967902055,-25.432212915739292,-15.34782148335471,-12.809823169618587,-16.183031619883153,-6.026855640108281,6.036506642581324,5.472954381062431,8.64472437655979,17.36724398808383,15.175966243726329,13.89064603614729,25.48512374606106,31.181638462891804,28.17507504207196,32.574992352267074,33.78339150142066,22.323024906796338,18.38197388546795,23.899193544726447,20.159398447588917,15.399953372939017,18.81770248791955,12.10561704369135,-3.8127811944496193,-8.584438700577524,-11.698474716354518,-24.899976991167442,-30.497644651942707,-27.879767914370348,-35.0092977086631,-40.226408290433646,-32.177301616780326,-30.722398953254146,-37.34890054160044,-33.139692542445566,-27.68748137138617,-31.46321209581005,-26.40591441007254,-13.073549448129292,-10.546352347296153,-8.06127190013725,6.226447948392454,14.307699754272932,14.796400726061611,24.7834437784311,32.92916503244052,27.649108985177623,27.197634893333298,33.205451588816395,28.91742938355351,25.014893541614956,32.5987494019844,33.68982910082379,25.553512305244087,23.94714014242058,18.513088365442115,-0.27913146757257845,-11.36596064254719,-10.524633218785809,-14.402933589331184,-14.913592923897006,-5.507148492663478,-7.170167781387587,-20.989224540870072,-26.928157659501892,-30.32391147827569,-38.298609670703314,-34.17211282520115,-21.577465977421497,-22.53072562074376,-28.428020002386834,-25.32326568511739,-25.030661960162007,-25.46932156748444,-11.965597060389227,0.7291541264167463,-0.4147688687157296,2.552698747734893,12.293389347948906,13.540566863139489,16.610492579397945,29.70736333316264,33.37606353087418,27.714233806092345,30.954228720048334,33.11794108503446,24.959128615076377,24.721045365987,31.396115325879087,26.53763597395846,21.01135179604007,26.004540170755476,24.03496825576576,14.396250565468893,13.224870289814724,8.698666611741272,-8.873663430099793,-18.948689998133265,-18.7746672695288,-24.66780568240486,-27.30450650095495,-19.482661584332476,-20.659965488192007,-29.55010789700726,-26.654101838826918,-22.21022201838324,-27.317760511349768,-25.3489579666888,-18.062843082423825,-22.395341634987734,-23.87611589542283,-10.820511123995587,-3.343868981662102,-2.963828852528775,6.453900736399339,13.211774682926663,10.196004678821119,18.5226779863075,35.63965863293132,39.93227944362176,40.08387288158093,45.19580868397902,39.042174024599994,26.503405123333156,27.26229281225737,28.624277784134982,18.685472269938593,14.727491591565402,15.948570623231765,5.733526406743751,-3.036152353420377,0.5788682345515124,-2.5068759774828555,-13.7655546939562,-16.396103986785317,-20.50371432022815,-34.9505844049554,-40.801386511272334,-38.0449104712976,-44.26881314633093,-47.94826510341895,-38.03803104471331,-32.73261009601857,-33.39494167089252,-24.877929927607767,-18.721176441442488,-23.239973183339604,-19.086358606064294,-6.614284247858563,-3.742627307299113,-0.2458574411786716,13.634999381937305,19.78871251460189,17.616027107636405,23.731312677998922,27.520162270828003,20.089052540828803,20.905324988318565,29.576543096174326,26.14869589895084,19.54812566997682,19.73093017294495,9.659767461474166,-7.594610536515103,-11.612561119624282,-12.731253110398752,-21.873343217693588,-22.78459921899436,-17.65857700249612,-23.847435616332646,-29.75633306389086,-25.586728644891807,-28.745722134289004,-37.55279112012848,-34.35165271965255,-30.68076578311149,-36.92480859125413,-35.82816592703848,-28.259670731364853,-30.29915805012071,-29.778222204650802,-17.337094904201564,-12.070967754736154,-14.297015129747981,-6.819186524877601,-0.5863891918691457,-5.017599478465284,-1.0664397583414273,10.936794549976643,13.404123545783111,17.226886821459093,30.863527692986974,34.774909325653546,28.865130450369044,30.06698951670764,28.154517172641135,15.99083415259669,13.84728781868158,19.69501322868317,12.526813572600014,2.523807022120729,1.3846197359118775,-6.323439064056427,-17.479332174339703,-15.314001398713671,-14.546013028648922,-26.226877797527216,-30.50693133305059,-26.999790152239807,-32.74170983087705,-35.90930721764134,-26.577566692216074,-22.744142455186278,-23.92018569530287,-14.929891092195103,-9.62461984145056,-17.361430669009952,-17.533429456628657,-9.12963904224964,-7.814980626123244,-1.6942672676916564,16.248667393338202,25.241936213171222,25.55733531313394,32.99434055661235,35.410543631238994,26.151920135538518,25.8579740084524,33.20352638523441,30.516658849282905,28.502751710677167,35.36065842969081,33.6703451313054,26.579275577356622,30.944816150200513,32.02389639714303,18.116529074138885,8.595618175854673,5.903774629398752,-2.862409156668495,-4.253999438879582,7.169233634392537,7.308458581436542,-3.755019045542898,-6.115541387280905,-8.118012760992993,-16.52544462245931,-13.757498686081796,-4.630707637329092,-8.005434905951384,-10.781604802069227,-1.9780441760759464,1.5544534808203032,2.0472803601201868,14.889048097071786,24.70967698415422,19.964648072792826,19.205507886501255,23.31074545067567,18.096871035313143,16.81282594337855,27.216998723770885,28.884418485528236,23.503047073244012,28.83287177541478,31.4767140949464,20.817626182561213,15.383647430811468,14.792144039306532,4.349873894925156,-2.1279755892689374,3.5439417843978562,0.7326987894428747,-10.247228122911364,-11.612225050243488,-13.603693518007846,-24.306841051020392,-25.58493172102588,-20.592311365629712,-28.018546992977967,-35.085518202120454,-29.8153474461651,-28.439373962658514,-29.77861642464581,-19.414460057471835,-11.885807842189747,-15.870991325916723,-10.459922253258343,3.7524440026661616,8.55680149207257,14.170173381280781,28.153923517951988,32.04889524336021,28.765104196237175,35.84149932872189,40.51840809311357,34.03440241143015,35.22207321508662,41.28079401762147,34.799072803388576,28.12730403731688,29.68233620106693,21.792982398292335,8.157449635402106,6.880035754079272,6.278906554167763,-2.900069166447707,-3.9513660595547906,-0.920303163151541,-11.770393967162967,-23.46306492881561,-25.36531596227951,-33.92214036586109,-45.60648130707301,-42.244420431644585,-34.93827058476215,-32.57906489352594,-19.252403548885994,-1.0872011435710878,1.880728568866929,1.2474232204234041,7.3837658484770445,5.873586475508747,2.1950059315935397,12.836858787803353,23.111532993444882,22.31589792734411,27.051763782076165,34.50765280080445,29.868291676286987,28.357387341437573,38.6061563168581,39.97111924726305,33.00519665047012,33.52152547395107,28.912502144200527,12.42187745392963,4.968648188620946,4.957914137879347,-5.07067903466343,-12.34497877245214,-7.982636890822443,-11.853237355287527,-22.838194585238043,-24.049263423819927,-27.857733329011328,-41.841711905181256,-46.212738041379325,-43.815849511152564,-52.771729168288125,-60.41174903563369,-56.63661302575386,-58.011366479389345,-61.80844473803239,-53.48852026930541,-47.436016057681826,-50.355874464699845,-41.20879153346,-22.733891106994623,-14.597229592907581,-8.554404688901938,1.6357242503150462,1.2507839908936096,-1.8592865442087103,9.77491190049077,20.70465951691202,19.649502730874282,23.19676390912348,29.60708855537623,25.33583361182771,24.20732465598114,32.84927769709575,30.909814973244515,19.407748836195143,14.58588588069186,6.241579013231334,-9.593169541117652,-12.280923690210264,-6.520580382964478,-12.57674767683861,-19.42353618160458,-17.87588001885227,-23.706259585285295,-32.06653533955151,-27.385895286580947,-25.50881561248219,-35.79573143630821,-38.14689269497627,-33.150907451492756,-36.6625093885139,-36.7373016577501,-26.516886129965645,-24.4710415422031,-26.680130004519512,-16.54050659596876,-7.636061953549369,-8.34531081253539,-0.9321605500459467,11.243357512801895,12.473136276955543,15.708393601944355,27.988080785954928,31.495894082535962,30.242811300503426,39.38368939722909,44.221127456166634,36.609572714897794,35.62024695794322,39.50339688361434,33.045148961928945,28.882324296318355,33.44445261467526,27.160625991462936,13.298895408125237,9.74196134902337,4.799416276260153,-9.157277271644894,-14.036837047864491,-13.715715241238449,-25.62272563099894,-36.761433999819744,-37.888248595409934,-46.26922713437921,-58.0703749949843,-55.7900826656727,-52.20153896992203,-56.27260016746946,-50.31507227211594,-37.643131487603554,-34.9672886920573,-28.85981629690285,-11.010910286952624,-0.9334583549275919,3.09456502572964,16.213586604043428,24.058246084775845,18.957382051296648,20.564643504232574,26.510983987492175,21.54787657284988,20.250336288489308,30.832708640858577,33.99510523972742,31.754903780797605,38.93452593697049,40.86373234960461,29.893473219878366,26.133683841297813,27.066582702929324,16.44926390742559,8.877545000578776,13.680842226815718,12.221819705796806,5.942363923751123,8.092368282484879,3.6322476269115445,-12.581181699999782,-16.748002474922565,-9.488957923607767,-9.425537399835031,-7.723560718322341,0.7922233368827838,-1.6692462100705099,-8.691053770691472,-2.2571770611849575,2.2827808152784668,-4.284383535608925,-0.9421070511639589,11.706193216043589,17.664558594254245,27.741676434004756,44.20153253863719,45.26098592083365,37.04251400649997,39.94132931257636,42.16303479344875,35.855300856340584,38.481419896943194,45.689804004992965,41.654540493703514,40.03141054323524,46.827686516288466,41.5767051868797,27.835012691531325,23.51792946656039,17.05552187420968,1.8227307953568026,-4.207066978987147,-5.143178445958517,-16.03589228134426,-21.88337379833812,-14.822725744707794,-14.375515655806304,-18.865985208541716,-13.965445750684509,-13.630031626573729,-23.91614185793595,-24.756576343592812,-19.63829137833725,-23.654689014208504,-21.380209841732434,-5.938774913239861,1.4511494232889048,1.6636575325061653,8.801874475283961,10.612418775549763,4.511921121874424,12.235598765436915,28.384019940418643,32.9263113255466,35.9566971375671,43.64504410461298,40.31685085303556,32.98895033656977,36.6897842940923,35.5046130753837,22.327650079811548,17.211811638773195,17.54646863370936,7.884610717964207,1.3284202630235427,3.9754061912163623,-2.81939001184187,-13.904900323816962,-12.60125625655778,-13.779119921218811,-25.728608556768187,-29.364129618269537,-28.177497943379883,-38.08499906526139,-44.13567847033494,-37.40789494447638,-35.96984771096105,-37.009876582261285,-26.860432266959656,-21.02106883034559,-26.269646345222057,-22.901200378234698,-14.292077417972518,-15.458924610527827,-12.42787534187481,0.7889298607210851,5.459800641144202,5.826529532854517,16.0018111405271,20.953462374690737,15.529958007151297,19.933264609062356,29.108987233684932,26.088198559987006,23.739734157609423,27.308858627255756,19.219633010137258,8.864954814001337,15.80979139061094,24.80183722409892,25.193290892652673,31.034748069146904,34.11145798939089,19.60302776393135,6.211566676176179,2.9588028076688127,-9.125089954567404,-24.70682212301897,-26.707273810229868,-29.166616517738717,-38.52907638563802,-36.31203444850122,-29.182792958943278,-33.93086494420191,-34.95395095456955,-25.009142600899708,-23.328591352559844,-25.377445587958544,-16.147942234480873,-10.722180497619437,-15.629735596890892,-12.10151122787861,-3.8115670383811207,-4.838296727150973,-1.813926957578928,9.269627886055677,9.226876384318638,4.459977601281146,11.770073222477446,16.492511367344097,11.218815303555495,13.036822631927441,15.744511789595633,5.5273812575633015,-0.32693990812835527,4.010363117305483,-1.7915623484529632,-12.343671795670645,-11.880838101823045,-15.559437366530428,-29.490078064865276,-33.94248003032361,-32.90129609600493,-41.65590577497481,-46.30695347421753,-41.185033507974616,-45.63338311793117,-53.9868828861803,-48.3373341230475,-42.61495207559271,-45.226451335620766,-39.2689961523572,-29.976334630379384,-31.470794900673095,-27.62018352099284,-12.592855585264306,-7.088211674169175,-7.381321690639813,2.0262667482329135,7.411875312240551,3.500302376172844,9.0321387157044,17.90768029738582,14.717111421858867,15.078594296397904,24.776999263229612,24.207092949404487,18.547424197636502,22.76278659807081,21.396373599559187,8.547094178850184,4.076952885501571,3.6547736360090237,-7.834524684975529,-15.71310237208477,-14.162727650675569,-21.67562685254208,-31.635330498757675,-27.688823410694134,-25.255667649478028,-32.14466690423422,-30.795482753009345,-26.350411402751615,-33.23378558910721,-35.47641701667774,-26.10322614365354,-23.56199230144336,-22.821812786188225,-10.346730805383395,-3.00911707131145,-6.82050199584646,-2.1399092528734043,6.456881710060123,4.6814257839033475,7.226107028577887,19.201593894108687,22.17766466853803,22.285677696580073,34.28645363545746,41.58629986611105,36.718756154267695,38.20177482350471,41.1525719715375,31.931870110275803,27.554961990918265,33.88493275308977,30.42468325310231,21.67045032752439,22.171028113778632,16.492176812726356,0.14986703226714493,-5.318461256402885,-4.048103193517455,-11.958340469022527,-15.508473170078794,-10.213276259255549,-15.522867671948724,-25.02089438941779,-22.065370051699777,-21.286673333115232,-28.606356395646905,-24.46920119225166,-14.027545751950552,-13.648076362023268,-10.00676814338971,2.0363670915578655,4.640784541324706,4.602208229456682,16.492443652036428,23.513856983399712,19.161437741138563,23.60581874974863,32.95926942141811,31.584334860949614,32.09229798555958,38.617440770456746,33.86773060515658,26.430168365427633,32.471709621155185,36.19817773161167,30.13988469319365,31.100457832376318,33.09910355750896,21.728211853095726,12.769740061836487,13.42097601367755,6.241257523892829,-3.4164631355578696,-2.0439664766178263,-5.376496628349054,-17.99089966385851,-20.02977569751255,-17.029713178344096,-24.387673904361456,-27.222970414012,-19.135793526003923,-17.915746332298554,-18.532816701816536,-8.090622073747156,-2.485070681308107,-6.128248110734456,0.54768285304353,11.059811998602433,9.338199769326561,10.44245634747958,20.955966743370674,23.190284879211262,22.713501499441307,32.54251038788328,35.86428774397988,27.6309423790769,27.919250695023457,31.42762061221987,23.48026775869346,19.80402726074355,26.17989753205996,23.41054622436971,16.242180913716584,18.071302168896505,13.13641155898637,-2.518110028088733,-7.956928700786208,-8.237871885327397,-18.794593797638004,-25.05148341603303,-21.39714051761846,-25.423515075049373,-30.203859583401027,-22.065952825668756,-18.837121125396628,-27.160511071505557,-27.686174174191642,-24.285866120560897,-29.277807171452384,-27.212844485374113,-15.003573707123568,-12.75832890389866,-13.9536504111397,-3.332729898733859,4.334931025723298,4.2702395553084145,13.69446169132468,24.348728870071515,21.515098732036023,21.77323998074437,30.944533133920856,30.41273096595703,25.579290941317545,29.43710486839871,26.407512955211068,14.08930113314543,14.306103433215727,20.864425796590695,16.042247406994903,11.975500218953819,12.562666736440395,0.7898617366871328,-13.213758767964293,-11.971628767352282,-11.693990149831226,-20.29122408989938,-20.545275806127098,-18.16820523966546,-26.43163482883491,-28.50870662953975,-19.478809333137974,-20.317998831772897,-26.03988197046612,-20.523516506672046,-16.956865966407456,-19.561500174688913,-10.941186499208756,-0.39568452729530446,-4.799372519102592,-7.421374775805114,0.4296119019840674,2.144778096619306,3.3285454850483305,16.329184317347146,23.213434998191776,17.655988643473414,19.251730308305063,23.42958746716054,16.437562456928774,14.131573546778776,21.81961440885461,20.021977869147108,13.280563026908485,14.884821065119354,9.543437437425828,-6.2963843071337156,-12.046270669575913,-12.981265532811722,-23.751904485512007,-29.333521345624696,-24.900327682648317,-28.747223715535565,-34.32475703140608,-28.419003051310753,-27.98559470205329,-37.04259232595457,-34.97869837162847,-27.175020148719046,-27.356752584064747,-20.799706031345202,-4.854027051471634,