-94.01425353441672,-83.33924048027319,-89.42879790994121,-95.55458653957527,-78.38050372684042,-72.73053246275092,-83.78658711710962,-76.83854363233128,-68.98057004880314,-81.83451626426748,-81.45075384621879,-65.92507711507908,-73.80318274175609,-88.78538113769952,-84.23803908604376,-88.93579616833489,-103.95652488751679,-93.49146404615736,-78.71645490850582,-87.72956387392713,-88.62016713823834,-78.0852602200686,-90.78301958666094,-103.9907200499337,-88.61869828972608,-76.6799771038409,-75.4327612947479,-56.171723166237335,-42.21275317053067,-58.67366068511655,-69.2843428515066,-64.18627942687155,-75.49868246453609,-87.44394382989987,-77.85669953250739,-78.77336160159587,-92.43527848274769,-82.3452457238631,-68.8112060441467,-81.91124711326874,-89.70456572618917,-82.06433706074021,-89.12720948007465,-92.39496865542304,-70.38413688418329,-62.89595940407745,-78.97632189230083,-79.0933395986439,-73.05159314161965,-82.57796737492296,-77.56399341067396,-57.701730920250114,-62.45086353766379,-75.21946460719113,-66.73432916504747,-65.98050347972959,-78.26373835547355,-70.05271969991114,-60.8947567976911,-75.76271961387671,-78.75905013960464,-63.63132387013815,-66.53856577181737,-68.84397092138654,-44.55583591233207,-29.304588677626093,-32.59017047616798,-21.45264699437239,-14.566383672674606,-36.801347377845005,-48.929470601780125,-37.33869439239136,-36.13042371523874,-32.31414363589771,-7.039311676727185,-1.8722788079612473,-26.41968681242436,-35.519876106746224,-29.53096887457839,-26.67147481598456,-1.2243864982421684,38.97199603298503,47.054566111311445,38.317286996923436,47.96197737503121,53.03367001147803,47.995502983433376,64.880577180595,84.16510266452904,76.8689043592082,75.087310534983,87.00750377640259,76.49145116281105,59.75147918979374,65.96638791414098,63.64367573730834,43.08931459476534,39.055867189731345,37.176257092433886,11.573768414735586,-5.503395956121775,-6.6349349768749875,-26.330299519420436,-43.49897313827387,-25.443173935438743,-6.551167641877349,-4.933905020647645,4.2574008029866715,0.23884398261984274,-38.879222155317926,-65.9974640436869,-61.233924105344684,-62.567576728202,-64.01327791180239,-44.55175922920502,-41.17910573929089,-65.88187179420311,-76.8326149186599,-78.61235590841343,-97.24227034873346,-105.91565852397216,-100.39679359177111,-119.12783330133011,-143.1164754219248,-134.8765553805762,-123.80770631589546,-127.40920632208696,-118.63628263953846,-113.96654945128356,-136.20965073801128,-145.45783545832703,-129.79823116439943,-131.25308655457826,-139.02213157118007,-120.45863910750226,-105.14110592220868,-105.87871771627476,-88.21678531002165,-68.36742436645739,-78.14161926935061,-83.73511390302502,-69.29460211048429,-70.01152306334558,-74.44366989444546,-52.53446581536463,-33.30880423300209,-29.642105858490552,-10.19637113717987,7.356572791091899,-7.577870799738309,-19.36977453169415,-9.83454664278721,-10.05435520695594,-5.834187669515316,27.16639847777363,52.25419819917856,58.65598774358216,82.59062182120482,106.79471233045227,101.0365121219878,100.55551342662706,119.78766738858468,123.1797947694334,122.77671841914396,143.4886162651083,148.50610552547187,127.46319606913698,123.84374248254197,128.92359889448,111.78754939617878,100.64806922579623,104.09938515508026,84.50810365597496,57.60098351089222,58.127101718686696,56.364036646273256,36.08859995344272,30.29432641975213,30.250393852228303,11.252176280102997,4.352593255547559,18.69680390953615,12.893158170035946,-5.498461309452325,-3.916725243669401,-5.80103624578222,-20.743665514260226,-14.576566456874335,-1.4371208225304901,-11.95970914052857,-15.816064022739365,-2.525796421763318,-10.205115377504708,-24.823105500883667,-11.892090691447347,1.4335736078345924,4.670105036385861,31.76579333518108,63.805544855911386,65.98935607074279,68.36377008012231,83.38905738972309,75.90373595566018,61.62548168037321,75.7295002847784,89.98974104777231,89.1433084778762,104.77368430145242,120.3464495510981,103.25163156485127,90.23390882826462,105.02455655176084,113.5433555096814,118.79982935939282,141.17731508005167,145.5309985776221,122.05584600397158,118.23990397228863,133.04210065973388,134.1693373874054,140.77545586174864,157.82131852242085,147.73699098765547,124.45062239307944,123.93934173075792,121.56231732821627,104.93860065572245,108.04994501431256,118.2029504804603,103.43816145819628,91.99662353478611,95.9687287845876,78.81178238847082,51.54722651876252,47.34840781495224,42.44535284886297,26.870112033366247,33.8103766822793,45.85351935718566,27.09211883402758,9.370487315171951,14.23976373003682,10.014002739927372,4.579716327759666,22.514925042413175,28.62245166941885,8.267478524594694,2.696810272848627,7.650980112866649,-5.664983383831808,-10.317914322300698,2.2575555560361913,-8.704773895520457,-31.98049583252531,-30.52476747719639,-28.570370384038846,-40.568731734939455,-36.68930314472999,-31.144041148315328,-49.27383518631348,-54.05434614489883,-31.76414227717802,-25.365418620398927,-31.891958137633885,-23.506344852297826,-26.785069684903174,-48.752231745992866,-47.9254280707645,-36.193677130025506,-49.00956547364904,-58.111328171252126,-51.24997474235175,-66.3886666755951,-88.17340075530643,-78.88702076613995,-68.13951407399897,-74.73910575537569,-68.66458833595756,-66.73945128014681,-100.0961233123847,-129.6070512229905,-132.2416846524044,-144.4036509550594,-160.08448630552584,-150.003238602681,-142.74294288376805,-148.53569498243422,-127.05995108950228,-92.17899077460225,-84.69648175546827,-79.85632118252128,-61.15890576834529,-61.88959832475379,-71.17642160383342,-58.06481897391832,-52.130221346666524,-67.33829606791377,-66.33592023835497,-59.891255032735685,-85.44045567688102,-121.31072426309169,-152.6274068383255,-205.4892691438422,-257.2703221383355,-265.4458256370532,-252.66903991846215,-236.3689018248764,-189.3038089298936,-127.47409951023171,-85.39315802501856,-38.43560440309112,22.42123615032522,57.24317106612732,76.54124053750226,117.02957305397447,153.78633403988613,168.51949259828555,185.36026987216033,184.53514506415553,140.4321082486885,104.677825817499,115.07184539538262,139.87358260004106,171.68912512573496,220.5343083295396,246.08163472135902,231.42256396231002,214.84833975292702,189.16802195777962,122.82430236791176,48.49259693980815,-6.7932380682612905,-66.57498023029909,-117.52299310993371,-131.82699240287513,-141.95103916923142,-162.5841052571745,-157.15123990722628,-134.70394079546116,-124.16035606786568,-97.25028133087947,-48.70494490527422,-28.181787255841357,-35.704162377091336,-40.04299719653574,-56.83116200750622,-80.85822677926362,-67.80103657606811,-35.681281555996335,-26.945684705964815,-15.85228169124777,15.417665150445588,35.40310799741536,52.98175496937691,90.92198927578531,114.02829325958369,110.74828975659216,121.57918844929195,137.94951859410892,130.0394533991215,127.39923627670814,141.71152161233653,134.51263704135675,114.85280546863845,113.90687763249437,106.66453000607194,84.27915274993364,81.09239786805762,81.93352185168922,55.67694126350725,34.8401424518638,37.09272450943575,28.287470876645205,14.25466469856925,18.45163267375208,10.489799782198435,-19.082785889583032,-32.44297922127373,-39.41905744704087,-69.1230704373758,-95.06453138681994,-108.47535725661896,-143.02922275142464,-181.1943696696,-187.57676969561453,-188.86179400612292,-200.77113290766883,-199.5569752724929,-205.67891056416573,-242.13434079692686,-264.71833726122964,-252.86107926736844,-241.71285151181286,-227.06405190341184,-191.4297828411072,-169.22190885385635,-169.0142722401077,-155.51013892882906,-143.16485391682426,-158.38864308529924,-165.13860053797342,-145.45356312448715,-130.1293082325605,-110.49719137224484,-65.80428166923326,-26.56838243828615,0.7772004427123953,51.9591412237776,112.77978274448964,151.98618656575212,193.7015796005204,246.339987002945,279.151081304239,304.68873586304767,344.9527549419346,370.0978006535362,373.33983388866267,387.1311873811843,398.1843416576111,382.09449775225227,366.19504513594313,356.6687201344138,322.1091638793582,279.967538179416,262.25239804752783,247.8683817040892,228.83126879213938,226.57867691379576,216.01294592623537,169.41138176590525,123.50896455139178,99.2789341585634,68.2759057582933,35.517924687796494,19.76220928679361,-5.109383911443782,-39.53140865799895,-41.75792441923068,-22.34663817740644,-15.742911323420692,-5.214128516427761,11.16595948846485,-3.0686377927004367,-34.92958626688962,-44.91557948112644,-37.505995968374066,-4.774833923748146,89.01485107896482,214.11454421086637,299.4890956589055,324.53481801047684,282.84280213332795,171.12856397533494,55.95324029823844,-1.3743520878723645,-39.59662222088748,-104.31176128003808,-185.99380886187447,-285.6091988724733,-393.4822585089878,-456.41952801690445,-475.121144369264,-506.0800609351429,-537.6603903215877,-526.1033478951722,-495.3415488869127,-468.88116580861225,-429.8337982786156,-398.8646150233393,-400.16740101594314,-394.5434637919647,-365.973027908611,-353.4710427238076,-349.032040837081,-318.6312217177423,-285.448172010652,-262.6491920294479,-218.9906417926536,-168.095789725966,-143.88123486010244,-123.91853829671865,-98.50460192840904,-98.63468731749117,-107.48077435116868,-93.30412837710847,-86.51188741742568,-103.36662697152278,-110.10694947585341,-109.96112285965596,-123.04188915375687,-122.90215597193891,-106.0372276936597,-110.11895780161063,-122.61318537676985,-110.33657287295206,-95.34427292083926,-87.78932489023717,-55.99538610886327,-12.689254152392966,11.569600861567631,42.241290338029096,88.06634338435528,113.21736741367559,130.845197265262,174.31540166110727,217.947128439563,246.06156147391457,284.62366868765207,318.1396137733227,318.5026176553682,316.0395482850696,327.981576962851,327.07732451436954,323.4865318759038,339.12458339411967,342.94638767646103,323.5569294407991,316.0709815165447,315.45560914018006,299.15686533918574,292.609686820002,302.63695316887896,295.37090132870543,282.3498625986026,292.0302352508987,296.5888025225672,280.8560111143602,274.891166921188,271.4952629830393,248.67442954199277,235.44783252810137,243.52034615959244,241.46530872278325,239.14205886568993,261.33408097362883,276.79486046323774,265.57899223338745,253.24950821585446,233.84065435037496,191.5445281788985,161.65565911986056,157.26161564032054,139.91781911354005,110.43621029264281,93.23901067853686,67.03756105357877,26.930800214286812,9.786273157866635,7.5195669289403675,-8.947979547275061,-15.011977211154921,1.3352255975807452,6.421825814957154,6.180158096137834,24.98990000998899,33.40674115536695,17.28442597705769,13.163234350761211,19.020920843306186,10.282857786844422,13.511642266266724,37.06549458917757,36.01410794149318,9.276079384584307,-13.245862087171256,-52.177949189138786,-116.43932404455714,-165.21024704797958,-200.66385933825427,-253.89008709433648,-300.3756315651073,-324.383005470404,-361.32564470487324,-405.4670367478213,-423.943243786112,-438.4503316710374,-461.7939859264565,-459.84896454209706,-440.898322469312,-438.21671014334277,-428.31193250700807,-393.9204283866878,-366.0005468178016,-339.21447009887595,-286.91552020478736,-237.3788548194225,-206.75564203253938,-158.22935704880655,-95.68486812392571,-53.37826492365643,-14.375138388605622,28.853188308656524,38.229792129229196,21.715244216094277,16.771927925936875,5.449524738614578,-27.014117967357123,-49.66305900199738,-66.87128250297073,-104.61616557535677,-134.4562014775723,-135.99018155800275,-141.46052535998388,-149.35413202596254,-129.66163101934694,-102.4386315491241,-82.04109492386978,-36.493342523372405,25.3526993081381,67.11162669737112,107.90278127976846,159.6189015435696,185.24803014276927,189.77419018229924,206.10636583077385,211.73272594210164,191.2718956765656,180.03403235235027,173.79439889577282,139.01032221962038,98.11711505402084,69.99562632996685,23.6543197095971,-34.15622224312588,-70.72801946110968,-112.08500075973173,-178.45579710363702,-232.42315934287393,-267.5805866179116,-303.56742808546034,-307.8511363160112,-260.68138078221205,-199.67779741941402,-129.32085001998718,-30.63281910193488,62.72022336151488,132.0222743179075,212.4129792918114,296.19296784508407,344.4258279069867,373.13734002149715,396.13690009314513,385.13576963211545,352.9829372084491,331.40398548171396,290.39739208561747,213.33880420933986,145.88281504737446,96.0368950691813,34.624624832394645,-20.142270872696685,-57.60230977179764,-112.59535233027289,-174.44630387121936,-207.0267662279337,-238.99855272317606,-296.1417788586284,-345.0782694519968,-375.54090992094575,-395.64362047830855,-365.1200974365007,-267.7523458280814,-153.94469460041253,-42.08074576536343,81.93625011054175,188.65219223697045,263.29855839177924,342.1075044635418,419.7237020022082,461.80087393587905,489.755871063217,518.278784521219,509.9382055487019,468.0038907030072,428.93281142070936,374.8921060415108,290.701693296415,210.57515523584107,132.0784210346181,28.911107406271125,-67.24034336671244,-134.64643236718678,-210.239882241987,-294.92913616826485,-353.55749469103006,-397.1977054706854,-430.9777842708395,-412.57853297054857,-343.46053641509206,-263.9506341158071,-165.9986703748275,-47.167946993040005,46.097666451591984,112.82443339774541,189.32444057489909,256.85427484717945,296.61853429176233,337.8697623302494,373.1996673446988,370.9777225082671,356.5246074915996,348.1125985438697,314.2545954031749,263.0313834322915,227.95195472332765,183.38036314133723,108.01185949304758,36.8621081334513,-26.689438156389627,-109.85716955950619,-190.59248692724194,-253.80296758297803,-328.63719959744634,-392.4722156594376,-390.11379148110564,-340.27066564703773,-281.3491706362017,-207.11588357623333,-137.6110299685799,-103.49063216246613,-65.2078011878131,7.907190482937342,75.28384276998591,125.18058611461205,183.1258063777757,225.87991921636265,235.6388473950675,248.29900180368676,260.9845557500174,238.0903836198965,203.7296128569019,182.2703863361919,139.77032766687643,73.26178193129468,16.10962539759202,-46.71707784824082,-130.68869620945972,-201.943034412691,-258.42792326635856,-326.1540814467524,-376.02498491140636,-381.4645557615082,-376.14375329842204,-366.7525170525001,-323.42845682772776,-262.5277013094912,-203.68564394840186,-124.86178439860294,-41.04870617878583,9.064007612479147,51.87533660585875,116.07165970561577,169.33362445060325,202.98780711256882,237.22715823181568,245.47855833408457,215.22364484614724,191.09736186967112,175.78463088904934,133.73813572436185,82.51841841976889,40.363294878735054,-22.097540405507505,-96.58620910977437,-144.58014106167002,-185.78598025045207,-242.69098945107726,-283.5864094814603,-304.6190310454126,-329.734866418873,-331.60966356911104,-289.6036630710023,-239.99011047893634,-189.71008698459238,-116.05313758147753,-46.26066358575113,-1.604519751525161,52.36064589056729,117.83142557603722,162.70568856522632,201.26526762400266,243.0347373785277,250.28654433040845,228.80198360710978,221.46907806175838,213.47334006093922,182.39209246304205,152.26231997560257,115.39116945243897,44.76885403123957,-24.21782850842692,-62.436722573167465,-101.97831170595703,-145.98133411428458,-166.08823004575333,-180.4209431688682,-197.6696340565752,-176.22104325420392,-123.00200388849964,-87.91701458588606,-61.71891017579361,-22.655768937584895,6.2725155101271035,33.0988399722122,87.45997242337012,138.82966691257596,159.88894903068376,181.94666776596463,206.24428020854518,198.5309434126631,173.48370017633187,151.8854321046639,113.42992569347274,69.00500606362601,47.55513837841827,18.50282275742222,-40.689002446970505,-90.65423048723467,-123.2337926969865,-166.24041529322707,-201.12616079938073,-214.47388348078283,-238.8905973584853,-261.8209571757938,-239.315538840438,-193.45472099529127,-153.77153965968193,-96.22916744020543,-28.239968020067252,12.822371445824993,48.18346921599283,101.3193299737849,138.4969684866868,154.70154384407724,179.7285446716487,193.8938624559824,177.12049096916098,162.3498394290326,151.95231694979455,113.97129691808816,68.77605556272809,43.47245509419407,13.037286945853468,-25.302300624606794,-46.05548332491247,-73.13695389060284,-128.62044853431783,-174.8228285081999,-199.1752131558673,-229.33350052396406,-249.1583869195215,-236.94587569206874,-219.7492326088336,-196.50348991434484,-136.3071189416206,-67.98642554803672,-27.33133846730724,13.648366086283843,65.81825518272446,105.13564706714688,148.8070685218993,207.2515870758592,236.6978841728667,232.43924633508382,234.2388655416015,230.33632262000955,198.7545604059605,167.39488829573014,137.14354746931036,78.82069699967957,18.35723563698784,-15.43884079325159,-50.64188686152683,-89.75506848468787,-104.78576184322397,-120.64823559147594,-161.43322090014223,-190.56511320608962,-197.2961317490757,-208.28544505824667,-202.11003667701524,-157.902207410874,-113.82977569840864,-79.46104688005322,-25.339419689939525,29.02120941819394,61.51236526374649,105.0680433668182,160.66039761595871,188.71447203351516,201.8115383026127,222.4313323998227,222.63243503343278,201.61540519804248,191.69857746954088,174.25077001930703,127.66012479638843,85.05421630332238,52.92968012524883,3.8035155360501456,-41.669794819546986,-63.25532860403571,-95.13609705978628,-140.65858654358726,-164.95925746453992,-179.36333253954925,-198.17587366201042,-191.33900770128668,-164.0111337203349,-152.06888071720402,-134.84300405550994,-83.94529009701641,-25.966093228599483,30.04257378881181,102.53753898358644,162.17195898250665,182.65275096402644,199.14012711489494,222.01483683121506,223.2607790354978,220.41614445197973,230.66532137950733,216.9473594425206,173.38141822052359,133.9375474941748,89.14262544553787,29.914202083681573,-5.051481435158682,-17.75114487497426,-52.38876219996201,-98.33566289975752,-130.28653363594182,-168.13323369386217,-204.1450395464127,-203.1814247343404,-187.27055206192074,-181.9677721345639,-155.8333817415113,-108.0906141289077,-78.47310375374641,-52.64497255249172,-3.4345385278226015,44.352656537546416,88.14453340040916,150.97043627868027,198.36335596406929,199.24259690372537,193.09141878815564,196.9539615862551,182.84852356148008,163.50894181714062,154.0943490346366,119.3836744511869,60.17243021420774,22.111777258255007,-2.669885116705373,-39.99914137859433,-66.52297619651341,-83.48811696242396,-127.08677907914597,-177.41886891697152,-200.63444508296334,-217.41995058247593,-228.5484570585329,-203.6767040195883,-165.7659071473996,-146.0067216221985,-119.98529141401343,-81.50698997346848,-54.18760119735944,-16.870171432174537,46.446934044953665,93.85334153434962,116.42973028796436,150.03150131918022,181.77447742249666,188.72437243369416,196.13698864107576,199.13729632806337,164.23638035053045,120.20863564138403,98.69381792475245,66.35766752858227,17.35792600468005,-10.784193745439115,-30.51778650129733,-64.28929757247231,-83.13462384087534,-86.87643977662509,-113.40098906679054,-146.4629231773094,-157.6938492255411,-172.762477933513,-191.2807478359985,-174.40797422812457,-138.6736617505973,-114.87854570747264,-80.24453065155619,-34.835655706910615,-12.522259419456892,4.472407051879339,40.26144307633858,65.31776576441689,78.58907508781299,114.89462246837803,151.53337656671306,153.73451510336676,145.8142832634898,135.7078919792418,98.92757107070182,59.113664366767914,43.16081830433397,21.09882980987592,-11.692776405757833,-21.425895979656225,-25.113591768106346,-49.41603416412613,-65.80152535855896,-68.2645248800933,-86.36121691675505,-101.2386841720838,-90.45944490102801,-86.07547564824134,-92.4108457464717,-76.924103184736,-56.53515646874751,-53.36860059816474,-36.19866499959244,-1.78094751368055,15.552790721017484,30.886963311031856,66.3448421373047,91.45670432533177,99.77455036550089,118.94943875816526,129.76362605138894,111.72097330817947,102.60044940889719,114.20967223543116,112.78372869589491,105.66543372233846,108.00512389804028,87.2135376711257,44.98990721510306,27.583973538028534,25.75119819863037,7.663965398600775,-8.74266292858691,-23.314968159650096,-64.13862741748301,-101.47161392337338,-100.61499957598147,-96.73391266892531,-108.31037470092431,-109.2288357034789,-112.12372028849049,-131.54092751817336,-129.34646333343485,-101.02141468959056,-85.50362154839995,-67.52967344422571,-20.76997175308506,21.109375042555953,46.98044679008728,84.3416426045829,110.91593013677746,103.25918626212805,100.46379140294871,114.20873363619766,110.46177165083915,99.6110162877384,99.81556314171135,77.86979667178339,31.145088073082878,2.312013240390888,-15.506718425172243,-46.11551887107958,-63.80210475099304,-67.83046899857911,-96.95608891455103,-136.1958943385245,-151.96542969748262,-166.00042888042236,-185.66796719154848,-182.8410792801592,-178.23565935813286,-199.25606998195937,-206.90304397128673,-181.20379263843287,-153.5890457644757,-117.75239000114999,-59.00973454773646,-14.359037228840787,9.818416135691065,51.897948711203284,97.95415180174756,118.87708650503177,140.47266867726,165.3825180085782,157.7816612948311,137.59775629445352,137.89819125821134,129.72272854542865,102.26540465373058,84.9318596290236,59.81354455706419,6.591202035335289,-30.080209610976613,-34.15396211235753,-45.46282617111779,-62.0311407666523,-66.88874056761814,-88.30504076973627,-120.7845955131903,-117.15900857708772,-89.69273420236087,-71.93590174448596,-44.44131997210485,-7.803649945718569,4.51227413648172,14.348194858516322,50.88307212357698,80.68360720585662,91.2673157193174,112.90498286436679,130.39897329509927,119.90651501018341,115.3425293027596,126.6936114488861,116.84957766761475,94.74428825878991,83.42536223293156,53.17112655344121,1.4023258483515484,-26.826497527801777,-36.20577885175101,-57.29513593276681,-75.68135419660551,-92.72348252595461,-138.1314560362853,-183.13421325174556,-184.30725310228613,-165.57273234408873,-145.5187388438951,-106.03881191448517,-69.00557592061904,-57.39118967757902,-32.32356459533755,22.39985872272026,71.76329360601216,116.74761929260683,169.53529437237844,194.49057866013504,186.8677783495599,193.11099721414163,210.40382039547637,209.12417516552912,206.63756729786235,202.2842849008603,160.987024411363,103.52163415399323,68.28009490685852,33.85681902142505,-9.261694292232919,-32.616711608902826,-53.18530502713357,-98.23822283674421,-135.89340962419257,-151.66598015167253,-176.11286761646298,-197.05870504816437,-188.40048903640158,-179.47411863683496,-179.54753207342296,-152.4168152709125,-108.14698273248842,-74.34089797512375,-26.460171689001776,37.98058131850975,77.54799027421484,101.04283952372266,139.27372859474903,170.1689157376497,184.69823578935478,208.6301626583197,219.34393130962934,186.58327652108986,146.97380811874277,123.64079194959898,91.83732483923177,61.50614152038035,48.91898879811505,19.364484659971268,-31.433224598596375,-60.93960620597858,-77.04561585584311,-108.45455800865972,-133.2241144333717,-145.88950654714475,-175.04126700733215,-198.9877721670158,-185.16600062745474,-162.57941293711528,-146.74170001621948,-110.8539305191851,-68.90394198458085,-45.24742142003892,-10.005327259687304,42.545233690882256,72.69244719070129,90.27600071338523,123.06619492008684,144.56361494986095,146.9670822750408,160.29171381862818,164.84916666213587,133.85332369916352,103.48423868829394,86.70579997740192,49.480114657539104,6.803858115661846,-11.638922168718024,-34.08512717522688,-68.4922484863087,-79.52363498409697,-81.82638288925077,-107.3066252475899,-129.19934832480092,-133.8275433442571,-149.78465301807876,-161.49682388817104,-137.58517205066943,-104.68318033965713,-77.73613091268282,-30.39814091785233,20.63873200417855,43.51729664878106,61.41469217194693,84.70520229840172,87.31301762251466,88.8413228064076,118.69570074443091,144.94860520489198,150.1555443670524,159.5272533552427,155.42542213654855,112.67828878222105,68.87739481293224,42.397032827765436,3.216651821178022,-36.52250578479987,-50.95457992458758,-69.11534367147503,-101.21090544197381,-114.39197217577623,-121.81105593290978,-151.44691796510617,-172.14484061449383,-168.7473054651988,-174.14469316820072,-179.99686923939265,-160.4717116657028,-140.1372676331244,-123.55431194251773,-77.50717332427132,-22.76156555220594,3.6124322335780334,26.608145190181542,59.54470655237996,74.93029616990593,88.63221569178555,126.26639916921633,153.44593106222416,154.210437197745,159.70662336092366,158.3081561813351,125.70786225669696,95.62904224154788,81.19405256470603,47.9140803944258,8.533059395246728,-5.181416165860545,-18.195061746736602,-40.786249543291646,-42.09962452923284,-39.22789695653471,-64.56758875502818,-88.51266644613005,-92.76955073239802,-103.30158553581583,-104.40125881615207,-69.87360072820304,-37.09091360344546,-26.025744745835652,-2.9357316642611444,28.004831158832598,44.86077108284735,73.33162379374095,114.97259930646855,128.5098000518912,125.0063062960259,136.91904699332218,139.29262714269208,120.11444770564292,109.81028591936034,94.82249683887034,50.03829653042784,11.368198575868297,-3.5920023645248764,-27.519689753144775,-51.70492920813732,-52.55404311794034,-63.76091202770246,-98.05065463111104,-117.88319854985821,-131.02689642539082,-161.95404725618675,-176.39925507658796,-159.2209779785093,-145.67199027812757,-128.9508980760819,-86.81659858880985,-53.142628019983334,-40.39094949229097,-11.49266593406489,25.211716384342317,42.14656974119487,66.44829263237922,105.70439965974644,118.77483512502008,111.91619867543305,116.90862546981774,112.30180748838514,90.01601425335048,84.03282062967071,79.56870729826895,44.8257818231378,12.110662119661646,0.11559971419987192,-23.936765361686685,-53.879387964269334,-66.99703647601822,-90.93282497893951,-128.5436468089273,-137.4450209013661,-130.67830151773677,-147.62049229712187,-164.8528759683406,-160.82294561276578,-154.94121919327117,-129.04390990995105,-61.69860530504883,-1.2633029215077407,24.003894487811227,50.672722482798385,83.57608468334625,105.4088004613524,142.00630184843797,193.9413414382759,215.54390755977374,211.0950816257099,211.59491647476113,198.7533792667675,165.7854024846061,143.08995810121047,119.29401101441108,70.52931192445756,28.499855427825285,7.2225276847614115,-27.745193183200147,-68.55907661304182,-87.83076236476475,-112.64402408228378,-152.3585751334036,-169.67223604062832,-174.79933618628084,-196.18106187209276,-202.46046097042904,-181.25669298862897,-171.30818000519326,-164.44043464563723,-130.1356571766009,-94.49732735948815,-68.26243405772661,-17.626709095404294,41.16132952042585,71.91832183719201,99.96996061007152,137.75774454295683,151.84965839780367,154.68441391650703,176.76185912394297,188.06227638170867,170.96676825178469,156.3339922589131,134.68111104183248,81.50941259183122,35.267725573031825,19.2083525089185,-1.0760130337913667,-23.40657830206439,-24.756780864239197,-34.96317696345826,-65.23355900006516,-78.0064651201713,-81.23336953472679,-102.68897681275644,-111.56625764750063,-91.57208709523351,-75.13746058840327,-55.11387882759246,-9.590938203692414,27.452077011360377,40.1518308285237,62.00528935373695,85.93749423268646,87.44821103217664,96.86006787185252,125.25628146810014,132.60297199325746,123.287878043397,125.96557350945724,115.711223759584,82.29800157035254,62.96038313434576,50.40427896017364,15.428356020914373,-13.001920192232804,-18.982045312058638,-39.51344292331117,-71.8782970819409,-87.73276755692365,-111.45415725004305,-154.9084074481867,-179.16165565524682,-186.45552648759113,-205.68473801872045,-210.92188778828478,-185.76885244768286,-164.0273816854191,-140.62752786291185,-86.7401597433915,-28.72832855941413,15.03058834534468,70.76133337755867,124.11008470014592,143.91114802593043,159.7075673014217,189.47298741002592,200.77729051464874,199.76726478570293,211.74337105394278,208.01717262377662,175.11010412395675,147.22579522480532,118.60473158636276,66.3381622835563,23.695399477359196,6.930540362219592,-20.677314785726526,-57.019971770906174,-78.0065784683294,-108.75104530452907,-155.01658213827824,-175.56972138475606,-175.84915951130043,-186.20511326182458,-184.18065553797612,-161.31607412700512,-152.62433548912372,-145.16275945707238,-106.18249080807382,-63.67346425362345,-34.28832708876102,13.244255364606055,68.05979984624625,98.02505996144905,127.83311654773763,169.92896810411136,187.29146218610197,185.23794743703095,194.01921583028155,190.19824872983423,161.9236008961176,143.67350986823146,126.62615542897083,79.57405238761838,31.05673176807508,3.4717880134988075,-30.39392689071752,-63.51084661291857,-70.60714115502682,-81.76096585031159,-113.59852890091044,-131.3284546289633,-138.681706797176,-160.89308186738057,-166.68849561607735,-137.9836111723728,-112.47709112215482,-91.88452246395701,-52.40282282816052,-20.034002569910772,-6.050953020043662,25.171421939559202,64.24880008483385,78.95338607711503,93.8141590933478,122.08744614538384,129.61714633990087,122.10205767736403,126.62911600823993,118.29974004366107,84.76867582702563,59.78756218680688,37.98416275243284,-4.379724518901282,-35.8451213727256,-41.68698051020589,-60.58885889053755,-89.90701990231383,-100.5951736416462,-115.78126139788678,-145.14398521412284,-151.33929676671576,-143.9826109512121,-156.89762032699792,-160.60904091437274,-132.72873271401238,-106.9239065487923,-81.96712296237018,-32.0966003716669,13.2084099308784,36.69763164210753,74.32957071282726,117.38194404854794,126.36016789040787,122.95602530446325,130.01345507733595,122.46123589151352,108.4858678963968,113.7074189421147,105.96291081787686,67.37956977222603,37.36130250737315,18.438712393004156,-14.641320627633522,-36.610174357113635,-34.932093228290015,-48.60458181765914,-76.13460428078693,-88.54590934115063,-109.47149102472744,-148.1805618992919,-161.26675743752298,-152.50795231264524,-158.44206003628506,-156.78207333482325,-129.11994780072192,-106.69791011289908,-81.11940665345217,-22.90274573777588,33.34593390982689,61.02474090003947,90.83859256949398,119.61440134720445,122.46971476631678,130.653471775926,161.34097850097973,176.05235636824602,172.91514107716796,174.8440726792805,155.23062015248314,105.01507263313462,68.59577367694354,48.87974596325907,17.73931924556639,-4.857225988489505,-11.311305812504413,-41.57559569373553,-89.19460552329727,-114.7493955919253,-133.03854522066513,-157.92707203722443,-160.53974425861563,-150.91808887959047,-161.26026666856086,-165.9273206716662,-143.72350673957516,-122.64246854680744,-98.35890168346529,-46.14863128537043,4.124560128368065,31.023353553711928,65.61154532721389,105.87513654586785,124.48081739128742,143.29390749527687,171.4863145234047,170.25062396456082,147.62753010221172,142.6190418093903,136.35663356850276,111.98961350789088,99.10354379516696,89.60188456184238,53.08269335071058,16.59038831258522,0.08155628652409275,-27.951489007036027,-61.768449818247596,-69.1263528747345,-74.30167939029914,-97.69540916361775,-109.3523898511834,-112.64426754847939,-132.98373111812026,-141.0151728395902,-118.14571289446769,-100.73182354349646,-89.61430413036992,-56.77905677355359,-23.65699418208642,-2.9669132143759547,38.75707626987764,90.91245594430175,114.23598342233086,129.60476780834333,156.59667287105975,164.0448050414252,156.70394212270918,164.17256024558833,159.8959608763357,126.85231383835395,103.06352375780611,88.33321619730104,51.44496414439861,15.740339182734989,0.34246687384311353,-26.221210591534543,-57.035700132233764,-58.18485663906651,-55.7429142954293,-74.60347203113389,-87.8817546599248,-100.06934052084883,-137.09400463384313,-166.07837742407983,-158.48660159694205,-143.22661272648782,-123.07812327915377,-76.37388683094487,-33.33154257061808,-15.841317972569389,10.278148801524175,45.92840253379382,61.95099084852066,80.5277856637072,117.17859394085862,135.94472697319637,138.00931708602872,152.29293029588257,152.24198827476079,120.41349616452968,96.74460290074094,83.44809998969438,50.14875224926949,20.51470375724042,12.631584947366619,-7.908010769250822,-37.54763242973698,-44.190074194086634,-53.63372004977214,-87.56929046328241,-111.17453410422193,-121.75721317189785,-147.18483288909678,-163.76337028003206,-151.59933619341206,-141.82739074524306,-131.58645310541777,-91.68074058983478,-50.34543972005556,-32.16056750246371,-4.144051893928272,35.36902498487064,56.030762801503876,78.18350243613499,116.45005513749672,132.3083638165526,126.00225483348231,133.00551352907027,134.9305780138028,112.71208134886999,97.33620238750456,86.91330156940941,51.90704121024226,16.79831067804239,4.678023754114839,-13.044545723551503,-36.27300828362953,-39.70816238376912,-50.34388432142804,-88.63871525393047,-117.14685729295053,-128.54502396287904,-147.4494583239708,-150.1645094983819,-123.24921449066152,-108.48176952477303,-106.30904648463755,-81.44057218490207,-52.478673666922504,-33.81273703318746,9.594674002703004,68.64007907546832,100.81579891511576,122.21914211492623,151.76223778503294,162.57135826261435,163.11685122660265,182.58178590722457,190.07876875401206,162.09564844194873,135.3977715777047,116.91936319349568,79.88708945400394,43.659644872164264,23.355586267085584,-14.298549447647448,-63.295703024662004,-85.30330231490744,-100.66215195289246,-131.27759713899133,-145.26043053647743,-144.68495664566282,-161.27354730280206,-171.04922067313416,-155.039706533303,-149.03358653240193,-151.67645120967984,-128.78339863015756,-101.26335502253696,-88.40490743760328,-58.54349683930636,-18.21170856761871,-1.8153001133357092,17.168380949987053,60.23348031788572,88.99350885908146,99.12945207339105,120.11920954556176,130.1305125084633,113.90017749434725,109.51305249180578,113.73112683409343,89.22276627911964,58.4508533344208,46.11588668049718,23.579844493609492,-5.257279130173894,-7.7648091907916195,-8.626702904647967,-33.04883448679792,-51.25245128222042,-62.02979185442198,-92.1995471500545,-115.92156684671843,-112.17800205631326,-114.62619477612894,-121.81579654139705,-99.50556622915205,-69.33629331827035,-54.45371920800868,-26.0918179633602,11.415587467917092,25.623454914491834,41.396265245251605,79.39503721234438,101.75479589190242,106.06586266025835,126.95074966261402,145.55815906980786,141.53147529602452,145.43082499919922,152.63260942451848,128.09767602221353,95.28202988789295,77.9938171975856,45.10205947693453,1.5621947188504581,-13.092023479071845,-17.65343906677235,-37.204666912451145,-48.647414646285426,-62.62722982158553,-111.57379985022311,-158.12016299302329,-162.7045861991545,-154.01724872489194,-143.70208972966714,-116.60539960938416,-104.77143394295487,-124.22912065352244,-125.48456343531355,-95.94743579064573,-68.83239651478117,-32.87474086181067,20.536592902144022,51.45697704126344,63.00578812412019,95.90442449065924,132.81336564428813,148.42050700756386,165.79866973605178,176.87203170301646,148.50646108174732,109.04149086647035,88.68270520226986,59.758857039843036,24.024197967746158,15.911517419381372,14.988834830709486,-1.9598505591312954,-8.556722723441105,-14.375977769515945,-55.13832025086735,-97.68558572463945,-103.70129358853197,-100.15658407457371,-94.58337435785484,-68.46487106877001,-55.058586125558705,-73.24911985416922,-75.06314639566592,-50.37083038601735,-35.10902636900849,-16.04063231420879,22.113347664878464,44.8874643382274,57.45122018642664,97.42022071688297,137.94532434461132,148.0625867149489,155.36437853342585,159.0070877550966,130.95946629921994,100.21512792232281,92.14627153313651,73.74663197081607,43.55860138006793,35.050362211917886,28.58741592939987,-0.35512667108968543,-23.72772241379538,-37.897195869730155,-67.56842183569867,-89.10949656534191,-84.92861158708956,-95.0745047157203,-124.46662543814622,-133.60088744257774,-129.8373860053968,-127.82516253232933,-99.57408545519108,-54.9210554856417,-34.9658997944352,-20.44498797734059,12.387668556849412,30.59913699273033,33.10836459288584,56.56767570867534,84.11489882431556,92.47681801171876,108.24491733172329,126.34244761402194,111.30575243708195,85.1785393839932,74.51329679232788,51.66343840437136,16.15858050241151,-0.5179451721436772,-15.806407127612838,-47.697189561267464,-64.16648771460032,-66.68325993379946,-91.54919474293257,-120.20668749011017,-125.66350673394157,-132.11408148992203,-138.8663489881289,-118.91720443324874,-101.138840436183,-112.13033583286612,-114.05039998640967,-95.38354919748213,-84.31872206134892,-61.975269494429995,-11.64174984785647,26.990513528151943,48.3117221951597,83.84608866542874,113.5062417555153,118.50778469687704,134.60979301952727,161.9549622536347,163.0335898762587,153.4963048594698,153.53736902261915,133.00130497091345,93.74420278916335,71.22191506477637,49.3318779028952,8.996848764795844,-16.61160675782798,-26.14623665633564,-55.93057697253518,-89.45528608729927,-103.70986945219323,-127.62012040974327,-156.36986458142192,-149.82253149925484,-128.5873254636928,-123.42759890704804,-110.24824705532376,-91.74365335391826,-98.9721024259616,-101.6488076298534,-69.31437182776246,-38.260787403807946,-16.738389314526017,26.44048799345233,69.18473683722834,86.25131889145995,107.95012548933998,134.1564544908228,131.01051797300755,118.99015245058942,121.67542798887654,108.41429111046776,79.45809516541519,68.84269448463178,57.713157432381266,25.673132013706443,4.624347368064239,-4.320232796685406,-32.07817153236467,-59.59016465121661,-68.25645402379615,-90.06697495773241,-121.76695104243208,-123.68664401257561,-112.87105104387626,-116.36358602051774,-106.18042012986109,-79.24752617735966,-68.26356140531179,-55.71852324202062,-20.4710206923763,3.660226433658311,13.521233289636946,45.2017541503371,82.36000170505227,99.169843821947,121.28172759031304,147.86288472869256,145.19699240369135,131.49522221603954,129.88742386915345,111.7003797567821,78.75415834606098,67.7275307345011,59.72394231977458,28.348045850078137,3.9599830003199257,-8.315316790930117,-39.316211150184614,-69.0563568888363,-74.1068577419203,-87.81056410068058,-114.08756753994172,-116.88798257173207,-111.71198253724938,-121.44561479473569,-116.39454570245701,-96.43258650897658,-94.52149309246421,-88.49658184917261,-53.19566061357141,-21.219934824545593,0.03964422667219081,37.17907171832319,69.3819040390492,77.01471851757569,93.67025112836404,119.40266453692743,118.04123379484818,109.46456942663194,121.12377922504194,124.08741476308175,111.30828753095636,106.67724072995564,87.56940471767018,37.924447648132684,1.9464978204417385,-8.28155097216974,-27.3809005202815,-46.81566004589689,-50.78939032895453,-71.1026494963518,-106.66409880941917,-116.72261723931572,-114.32373620677397,-124.56113911458903,-120.03994301183491,-100.3879598905001,-101.47321443779539,-103.79494892446452,-77.19966310910218,-48.472428845027835,-24.47672200585791,20.72492727387688,63.173690666784864,76.42472150356201,94.15756315821986,125.73792833098793,138.4987570641445,143.21410336126752,155.3988002133524,141.6718770292432,105.06252047916061,90.25440268839711,84.8549395964026,60.78908836190356,40.5638251340401,21.09684371814144,-29.535661232558102,-80.523543830217,-93.14293056379631,-96.51758566494163,-105.3268156522703,-98.13757580087606,-98.78323356089402,-127.74384119216093,-140.79485611386514,-123.1285653029779,-111.13779458551241,-97.82243300904858,-64.5410419613537,-40.49485834263536,-26.392378903483717,11.164791061463836,49.84416686718418,61.31429245164166,78.23292674186688,109.24581936477752,123.02707546647756,134.6890155339137,161.33882913915073,164.6293136178367,138.54399809814774,119.66262235350558,94.8992446892475,47.03170779438188,16.13398475812202,9.510907925073553,-12.545977170870287,-39.98837192685311,-51.46342591047961,-76.8146180598541,-113.41943148817765,-119.11461946610044,-111.71199855754924,-121.81801183410954,-119.2602715146392,-97.20547532528698,-89.4960523540933,-79.6379978107689,-45.32667441568336,-22.77747535747494,-18.404657512449024,7.010523369325673,41.58308276292665,59.2467525344422,86.21296731745396,122.24210654667164,128.4547373940061,122.10421452199645,134.30956956670528,136.28528453350634,117.45293018008579,106.5516335181945,87.2908100366168,41.06560934612952,9.331311112918936,3.5408472549487966,-16.229028128042636,-42.6165952014234,-51.19852695934321,-68.1202538340099,-94.82936463142612,-95.4488386465622,-88.70589809677674,-103.47156522748429,-108.00687476574245,-92.83060380195366,-90.8246469718909,-87.50872013167499,-60.62933186795634,-42.90075907530202,-37.20376593742406,-3.7476550599027743,42.584773326713254,70.6037362063255,101.61023371381005,134.10361060450344,133.03855687319552,119.46824007387146,123.81365220679642,115.61284537385382,86.5230060143794,72.61078170214687,64.63296185252753,40.38490177834528,27.66523483486497,28.420383200576012,5.665265305243952,-24.56677682647725,-33.980535787697804,-52.363669752397676,-86.36965947073655,-99.59767182319622,-104.62272558174408,-124.78918601357807,-129.3065322341094,-115.64308686538376,-120.20942755337913,-123.53471041772615,-96.37825833572664,-70.82478244072792,-58.05336511273005,-26.93747227599907,7.430646028047743,20.03520467472773,42.03902228325721,80.45653256357106,98.0212284610925,106.0167233451748,129.76718473439763,138.4811511326937,121.10005346489456,109.5580015081669,93.19507389928175,52.975065266684425,24.807567291597948,19.27361425134897,0.14142523988726108,-25.57222148864118,-34.70112034546129,-49.06064499903999,-68.46381390927938,-61.60474106006926,-52.60781740863395,-77.27442665212594,-105.07009467454974,-114.29969318967412,-126.29088457551222,-126.53321189906173,-96.15575479323752,-72.17815146933079,-63.85497917479983,-32.659726219677914,8.235029837505035,26.474145071702097,47.360253394716345,79.96483281576936,92.54007946302272,98.9232675649834,122.61408226034732,130.73066777097242,113.79946289279522,106.62901795185537,97.68676658545118,63.6323279913757,36.872193779870024,27.22162171175345,2.0759472640351913,-24.84118585968744,-31.064426866477937,-47.32724818979228,-75.93540273367829,-79.13697048142339,-73.50708068562544,-90.14350558321638,-103.69062330672733,-105.38872892037001,-120.55033127236639,-127.1044839493244,-100.02831782776444,-75.76751283399764,-66.21531984460651,-36.87648929644318,-0.592385913616182,15.208717467353704,36.399591533821294,68.19674923803723,79.58051237732496,89.03871696472643,120.57249966751223,136.97441409750647,125.40788616085493,120.44454901029052,111.42869921122777,75.88128137434234,47.10413950280726,36.963459395220184,15.08887736002324,-4.65370601128071,-0.8169414396051957,-9.681111143046271,-43.662828531352204,-66.77154077557495,-87.83728469983441,-131.25576698936143,-162.79918362867116,-163.1151265532013,-159.45534540526515,-143.02780777784446,-100.43576098820284,-75.6164821733777,-81.61828050001226,-72.64148624173032,-46.03099129446748,-25.68835846755401,7.285291945372473,50.96346071172542,68.40429783569945,76.92147750923385,108.28080757444101,132.4105086293892,132.7490028848457,135.7869881659862,129.82184204219004,96.39878942232957,70.83569430386721,63.556966099234906,38.922476053169135,7.284946162949024,-3.1228491899269946,-16.697854732827153,-41.38557341696746,-46.85859039095991,-50.40190828958667,-80.8422884093592,-105.19294050254953,-104.50213785133448,-105.52935891527989,-98.13248516097676,-62.621551605548376,-32.58190059155738,-19.313093979770617,11.454047791052332,46.956243520627595,55.44680168106701,61.415666490063074,76.24654412852388,74.06097702730008,75.48135868727205,104.91076816830659,120.03996791593772,100.46741395570578,80.3791168061222,56.85542785411549,14.27558989278471,-12.74946648792939,-16.78077766362783,-36.90956476457311,-61.77397148970137,-61.596925886058585,-66.01232983591633,-89.71013825229198,-101.90169573033364,-113.3689029451123,-145.4927815708893,-160.79932698956517,-143.4603363234603,-128.64726469468874,-109.80549778738497,-65.76595396462484,-30.18166960178761,-13.666367328799037,21.060331331506813,63.36722024306293,84.36400637501275,110.96885150329561,150.1387853317448,164.00182208960308,163.42398849796814,177.33602712814974,178.31155052182945,156.12902855536134,144.68567392054024,132.98564141036297,96.11851440097824,66.77069074306762,56.708643278367354,28.286910844533548,-10.11374902845123,-29.466919458963787,-53.71707342637918,-88.27213991820508,-97.24159345373761,-96.44260440459736,-119.36715992663787,-138.73460872683418,-140.0783961550668,-149.93898892894512,-149.56950646975858,-110.86227336529339,-69.58358406302588,-44.75556586824101,-4.482496736022963,43.50215271404131,72.68804360052945,105.57058204473618,145.04558678526072,154.88156140700607,151.25496272549785,167.7283338825571,175.05398368289946,155.42069285849504,140.06753491625804,124.88806476193551,90.72316733764745,66.40908261043687,56.99491096711944,24.001119974501442,-18.572769732613146,-34.24355622295471,-47.57604683883643,-76.34957808563942,-93.9468361063639,-110.45944873285111,-146.43484788346225,-164.89039989117083,-152.00378832422598,-148.59943605051845,-149.588921230703,-124.11270578593852,-96.74925360999765,-81.6328730598479,-48.25335170779525,-6.638942843380931,16.285835396690526,48.060532860423976,97.03989881639957,122.26317349139853,129.7421956760697,150.3402229462505,161.3734567492312,151.37147404455922,147.8258247357229,136.55831700522614,96.23377768870118,65.83113105029591,60.45710005856038,39.22843613608844,5.449096218913692,-12.952047144280524,-40.84476707230526,-85.26830248118394,-108.39621656432317,-121.79422705392489,-154.26611692803655,-171.74191810748363,-156.14508864241236,-145.88447329082453,-141.8686807164337,-120.42267978652404,-105.71956775846655,-103.05610016579354,-72.89000279208129,-26.13805941793301,2.788585037483591,37.04715246844245,88.16261921238106,122.50482347952439,146.03023239809153,180.09836457680757,194.87524187417256,181.13624471511363,176.06359052509424,172.83083840824435,144.50933657985397,117.83091990716817,104.92064527935587,72.24298135273787,29.27265857018725,5.906880302699627,-21.488020475769233,-61.29914330048889,-79.38238412060562,-91.10748682246916,-129.83174438202903,-163.26159388426527,-168.15794537615798,-173.47639805504267,-173.93367452830512,-148.02497745513347,-127.2324843059728,-122.81336037763774,-95.47060869970787,-51.293258579207304,-22.421751737621626,11.958103673639851,62.44730757736866,94.92076856159109,113.12897579128928,137.96536337133657,139.47015093334204,108.15416127716377,86.77683896509456,77.36597378934736,56.06463478481366,45.257394931670184,47.06144845910433,18.793741908487597,-28.888567000347543,-57.3570567190928,-82.89624030980093,-112.7423862839677,-117.42372303918572,-116.00911032083323,-143.38179033157067,-171.57921227108096,-180.72330061640497,-195.13125873912517,-199.88630258759457,-167.92828314700336,-134.77703325922073,-122.99157066087372,-102.0304961959566,-77.35376997889013,-71.74345488222706,-50.54534465991823,2.2515616824357565,43.02425698307396,68.24237265106302,103.17322136749975,121.5956787428609,115.12235436518375,126.58872340268871,146.46727639627773,135.08536266901658,114.75122901201641,101.9724968520361,71.50222618681103,43.46174750743836,46.33387589004422,40.15368210888596,3.050938497467204,-28.78048618985089,-54.24388897505261,-89.87449281686241,-103.36944741316454,-89.73529931210705,-96.13748796758954,-115.74107295236385,-109.46373010967497,-98.02162808710665,-95.95453314936253,-68.4662333160033,-24.900786893069064,-1.8669016304869728,22.468079391297195,60.56376152128912,76.52517719826761,84.02218438887077,123.53562182770621,165.7390708994635,177.67803584392266,178.6607366314001,163.7145519647347,119.34214659657206,87.11241462883955,84.00279662066649,67.03676013997978,33.89654599877498,16.117480777852236,-1.3381838741701504,-30.243862230050837,-44.12429371261491,-55.043346244953746,-92.68005040172466,-125.88407082158034,-129.80931363135232,-134.77106307968432,-138.19131482704947,-110.89290694794536,-77.25730642126271,-54.64289592018609,-11.172295150087852,42.84985097033214,71.2273513738021,100.00191593445592,146.28479364800017,170.2882217418336,173.91749594647618,190.65478769142612,202.1255889293264,196.89908052273657,202.22250617610462,198.73752477885685,148.25744912707484,80.08187046807944,28.7006853106045,-17.831110360775085,-52.096132741768,-61.15929291142252,-82.33949585297022,-130.69950818218518,-164.75564571736763,-179.85129065732318,-201.20756061265786,-210.06834414338306,-198.46266825130357,-195.25076979797544,-184.92594380640838,-140.78313755160204,-101.97958084360756,-94.63316352712052,-82.74250930230612,-55.002097415811164,-23.131370304062877,34.70661158669248,107.18434736494153,136.57311407147623,130.39915664348217,139.29379927929654,155.08929637185673,160.4850986456502,170.20597232984233,159.52717092207993,101.58115803873287,46.534813026133506,27.96034845867821,7.239533933607345,-20.545276953431255,-30.55839099077533,-50.082904006378655,-86.7871627621083,-93.0467413163568,-78.26412386652326,-87.94209811150647,-96.69054238954891,-78.98575108836681,-66.22569286898958,-51.44651248897587,-6.31661967298362,31.284471197537368,38.69810173471322,59.57659487352412,94.87855649918087,106.2238977602719,108.45686975575673,115.27542819945002,98.81226787443583,75.30899685677693,83.1749068982431,93.25905715500367,74.76338521938379,53.75766677825669,30.508132540938057,-17.352805830874594,-61.29861683624741,-88.5691344409625,-137.63913675037466,-195.5688294358826,-218.42503166028658,-226.95217945397195,-238.38376915528994,-221.24715265627373,-188.25532640263157,-173.12687174630062,-145.2599736010974,-88.1458134268302,-41.88587330453896,1.0272776447023961,76.9505840822264,154.44161731432854,201.25914669846046,239.70545731070223,261.6053057454669,241.59201481453297,218.87669040136828,222.8215975315057,216.94843244836343,193.62503565984127,175.90530551937036,139.6851690665938,73.87842921058277,23.272384622647415,-8.281542565630154,-54.943220272580255,-96.75826963635528,-111.79010974366406,-129.8108595346732,-149.74184560913935,-145.8306085745973,-148.56083850092978,-176.61399802321625,-184.75072137318176,-163.49094979511392,-141.65891241263452,-102.795309037935,-39.56826537577179,9.457799093918393,47.73307828776984,103.66464198152872,150.83885951977066,172.21416262986241,200.9625113200182,230.8433033727057,227.18063923584737,210.98166475866554,203.70143249221138,180.93900779126423,150.86915236219997,139.67278998407346,112.90686892314758,48.84006837846425,-6.391947299587962,-37.960431228366126,-71.52425452670202,-94.11970192143468,-104.64837262225196,-144.98292815564665,-199.9075242124324,-213.7395788833418,-197.4969181826544,-178.4816665171976,-142.12593818083596,-104.85583983875011,-96.4730762017056,-80.6651892752565,-28.442797523338793,25.548571213903873,71.58076712224587,126.11840168406724,158.66672907738644,154.9218793424396,158.4967099948429,172.10147669070088,161.1900880554342,140.41222939595218,119.24132651600053,65.4188833660469,-2.731647446005521,-39.15412733904334,-68.643330259836,-118.9839285145695,-157.53050610375053,-180.56844462476388,-212.52618899466125,-223.42659109979112,-195.86537344835102,-173.09372035986587,-153.5129170986998,-96.93082724452239,-27.014490220796436,25.78277016105967,82.37048950518674,131.7233064258254,143.62322874700956,155.45402872799687,199.30100208650566,237.5934241654267,257.4937833896567,278.5962616215701,272.3668086778825,225.81355420168745,188.7643963693419,166.88252744235558,120.00779228420274,60.73511309937521,5.079834553872489,-74.47668945913215,-158.79296873567924,-200.55451612042128,-222.99868621511018,-254.79813909901375,-272.72429313029534,-287.1263717786309,-326.5683864102152,-353.4826957147934,-339.6872751627111,-321.4915846199078,-301.1797842624584,-250.32396079282444,-197.46998738834202,-164.28839590597195,-116.43522432624252,-59.41529387774085,-29.78327067705019,-1.6088718353513132,49.898050647333555,87.13427778155524,103.95135570386122,130.61200542929788,144.30451281607478,125.31669274090592,109.8348595536981,97.85493273882844,55.85760033553909,5.788979267450285,-28.476059337630847,-72.6565220553497,-119.39256458443909,-133.2874941992659,-136.81913049527833,-155.6628829216563,-160.98873409640504,-150.1045184465246,-148.0676435750044,-129.12391408265526,-76.95605486775789,-34.33071284543621,-6.4512642060883305,38.83299199206607,80.97397209439158,103.1676676580991,140.9581420362886,188.37340306007752,205.1578236523056,210.38023664981532,226.8337221645487,226.51930822337323,213.76331242360027,217.04099441548743,203.94563752229726,150.18096425754095,100.15291623485822,69.5234092775547,33.53756529198711,6.98481972628824,-5.740427994393883,-45.092482938909775,-99.61010396844833,-119.55374545271786,-118.00814260081742,-119.23785538340022,-102.77349284945159,-80.25466269778381,-82.00248977122493,-75.29677224474057,-33.60524113394052,7.708312165203587,42.681230541734976,96.9191934797581,144.36121970188643,160.80867441979626,176.47287482209333,192.58746837827726,181.2982488117769,168.45203879990038,176.971947868666,170.217987399682,140.5201530951983,116.6268850347582,80.80192740198741,20.297174467279543,-23.82756540194184,-48.592993066579,-89.37042686500509,-127.20583197923821,-140.0828787900565,-158.96087781195982,-181.1481346012646,-173.4480725532745,-162.01699999655295,-172.25276729923038,-170.5049866382344,-155.71724539631697,-159.97035064427888,-155.945383637557,-114.06090179533824,-64.76943045278996,-14.667708223988257,53.12637586628532,101.13210747930664,106.20745497770605,112.02225398581635,130.09503010548994,133.72623497314197,141.55206231208138,166.1765893513106,168.87846766146686,146.8468577673453,132.2887704669501,110.49895834985436,71.10217211536337,52.83876245748402,51.96986795788337,25.79746182168756,-10.834230052944765,-34.32996450269081,-69.36465913678872,-105.59457965319886,-102.75265282861068,-84.27270131994416,-80.6796123966982,-68.31255287628221,-54.0236874059385,-70.35940365353154,-86.45275097472313,-73.00839048182655,-64.11047238791554,-66.12557370553,-51.41452629153771,-39.64801977690757,-45.085833608953166,-33.759863342468,-14.095196370879416,-24.480520966349996,-39.08836866740399,-30.453122520930176,-29.31980689228076,-37.29810708333203,-27.992961998234684,-27.87212953804507,-54.34115463282776,-66.74215529545008,-61.27524053204029,-71.41596593355106,-77.74753340705244,-60.057206887831924,-53.338015576982784,-62.19056785837482,-56.516545957207015,-53.560908734904935,-67.66787497605853,-63.78256360351705,-42.479140898552714,-37.80613206129561,-34.11697229799586,-15.42590081040496,-13.134706799935822,-23.016841101448897,-8.900690214258375,11.603481522289265,21.05425197685827,52.422465304201786,99.67856267439826,122.94162150873504,139.3439450509009,167.46146480163856,177.5865550108743,178.4368115920986,205.81955720009026,234.67656580543908,240.00070929995042,250.8465264328293,265.17145936493375,253.87936684869527,243.37861716089145,256.2254339744845,259.1681557016667,251.01079941012858,260.13196050310546,259.73254080347203,227.41158203042022,199.77054213464945,180.96348977083042,142.62534847285133,113.4282054772003,119.54004397512006,124.93225430933704,120.88472785846974,130.30560507042196,128.4751954164793,103.30969589967901,99.31373894495601,116.79919915394048,114.87599219332905,107.60001423160702,112.58650461390809,98.40144455606661,70.22086528089072,64.01093530996539,57.676217751390325,28.995923987200854,11.228195371393877,1.026455082519492,-40.664362452703195,-90.62751000839467,-118.07717414543097,-150.47939377002655,-188.0090391170594,-200.1077999613551,-211.9655644369995,-245.93619559096004,-265.2514692303728,-266.5650144999421,-282.78510401003786,-293.4008788484169,-278.2431129650419,-272.3513173674946,-275.9272559864181,-253.08459703272626,-221.55297808041698,-200.33331759809727,-159.18666974328985,-108.38685996908816,-91.20456844948168,-87.95492879913787,-72.11612552009025,-71.24122991462589,-84.1636493325459,-80.69001456683273,-83.23677611191177,-108.94609036112627,-119.41250256567675,-116.19251710869624,-142.2111293123678,-183.32792575372244,-213.5729287884065,-253.65019042473347,-293.3805341864124,-300.51786446499153,-309.5986711849253,-354.1524710668709,-397.77227660934204,-425.40988693250875,-456.22015331424507,-462.4547001312636,-425.8584259522199,-388.91787113125116,-357.74284340365267,-297.5368517471519,-226.16501303288763,-164.86028507378126,-82.4424753257639,14.371532132134327,79.43726960229358,126.27999555931117,177.08442026530918,198.83983325675388,193.66180858564698,201.79352218483305,204.58893150723634,178.626059836653,157.89496483511567,143.99287859021948,102.35863093929211,57.34098318157357,39.46097723076582,17.0299570967806,-17.603566398820806,-32.73523619160057,-46.009127365169704,-80.180042914925,-102.5930814310191,-112.33876842753497,-149.8947466567549,-198.09822928602887,-225.56005864635299,-255.56544041017762,-282.6184158166204,-263.68142886192277,-215.51177559327925,-167.01206487668853,-92.36331409027082,3.2976927834411853,77.95233115769156,149.75531532198147,244.87639931013948,326.72116403418596,384.7207045319826,448.70380931502154,495.1581565858838,497.2706543367866,492.0907199547205,490.161038471885,460.79545244226404,422.78013539079217,396.98278174353004,346.3312068131348,268.05055442105413,206.8931476177723,157.88973692628628,104.81698959390143,79.19794488926439,74.72849031204765,43.330411361072976,-1.8877976421247258,-32.10337462127846,-76.12235162894787,-136.55695473428526,-175.98505545324593,-212.37058638437549,-267.837875031071,-297.55526869076857,-286.4137010433521,-269.85954458494933,-234.71139829494587,-159.7307914333818,-80.15088272234993,-1.61059871134686,108.34380428755314,221.70762520315952,297.83329535014525,359.2622906773365,414.204814572537,439.30906900186216,458.61023741574655,493.0744688289094,503.0248081427185,479.64774212966506,459.36760324176385,430.1810819812013,370.5596011527942,312.8718692132967,264.6894866625919,198.5369666436083,138.50731586832853,108.5400496191032,68.35070622304286,7.314562350378397,-35.492073487626314,-67.77744396450566,-110.70863821169989,-136.98019414663713,-151.68142133579937,-198.19329925303134,-253.03324452944537,-272.3760996822735,-275.4257570286181,-265.03817966256264,-210.46648894281344,-139.97117599598127,-91.2323664907657,-36.11701700458727,33.52528818042159,84.45730105085474,133.55832906150786,202.46095667179566,248.0432104172445,256.11016532118424,267.9391778959929,280.3867142098878,272.7993102329293,269.4992589862086,263.9463153667403,215.3215725471516,147.92794016274817,103.05672309205661,59.59569485113119,10.006293398022146,-20.107176459012067,-51.83875685969984,-106.03999911450146,-146.10635263919863,-166.43534304767167,-203.03945111095229,-240.08685775764752,-251.41661773462943,-263.8620974784365,-278.1483610469904,-258.5191520142303,-221.6117683957959,-192.6856768199441,-143.53928830646845,-76.08054464867604,-31.97262607891986,3.973572375166957,60.60823177159392,108.9840226900763,140.89871571352495,183.15952707899595,211.3846228311738,200.46972505069328,187.79833213836554,181.55063389204042,146.87253290929232,100.79366946954264,69.94162929495005,25.796436730097824,-35.022363666405596,-77.10790544502488,-114.31960635510967,-168.6021627497198,-206.11566348475776,-219.45798956834008,-244.88399162526096,-270.488932521239,-273.0901466095577,-284.1582254289052,-311.1563539266482,-321.9676347203992,-333.56725739494425,-365.8641939345853,-374.1823633555167,-340.6149592457982,-296.9045668250999,-232.74327812741544,-137.82385591777,-61.229837384692196,-15.07435399486002,41.07229758461486,96.39197673505838,126.72684220001139,163.4907891915432,207.0275597466582,213.10312911873908,198.92184636300644,200.3192214794487,189.68369598066624,158.6242754483837,139.36112859478106,110.70442051484144,46.924978388202135,-9.29485949738205,-42.409098032818804,-89.11798539415346,-136.20116640049096,-154.4442577071548,-172.97240396713164,-201.01611267431778,-208.052817009109,-215.81897613361278,-255.13823299382943,-290.64797325416237,-302.9975988607895,-316.4196529043012,-310.5990557614324,-255.85862266236023,-184.99428093338287,-117.82296943139963,-33.43181375154618,47.61505730628993,98.33647145173373,150.6945236752565,213.9709793956818,250.29052397289672,268.63058791717765,295.3592798456297,305.14018471171084,294.88822023463825,297.75472945188017,291.903594926466,246.02370392680066,192.01916412562545,143.24469210774058,73.07567913857203,3.438471045210509,-35.8253923945107,-74.64006798923947,-119.59033748195232,-136.55347457832468,-145.34088194058916,-178.79900850751744,-209.98046980446554,-229.62667293805848,-265.9978930189999,-298.63563630002596,-299.76282852014776,-302.9755766146461,-319.13147812791897,-309.76681513935097,-280.36961353727924,-251.14726981123982,-192.5850682613914,-105.28267131633609,-33.47265737619778,32.2692600274654,115.83345135291192,183.75742328080247,224.17032617775578,268.95986701658194,305.8140051351121,312.54974341848276,320.092915299608,333.3789042279741,315.2385949976534,279.39140154834365,254.34070585618076,212.40735311436302,147.081593730671,96.50551866435224,52.14013698956845,-7.535591791116413,-48.43387462294498,-63.57584535654644,-93.38607526262278,-126.55707405046766,-135.0908173028268,-150.3598349341155,-184.1632130137313,-202.30124586304055,-219.6033943721121,-264.7918869052095,-300.9409197021021,-306.7141004629468,-306.66128737613894,-280.07027344373984,-202.54795664811544,-120.0357194031819,-57.450943899916965,14.36267122568933,85.45886697424984,135.86290802466166,198.63162712593362,277.04048944652254,326.1659382420507,350.87718957972254,373.5247768702239,365.1416635844788,325.51671727233486,301.3134946364613,285.27575679518094,247.5526662243806,210.53129435033105,176.74385709353234,114.63502218989595,51.67884432282341,24.044260745259727,-4.34362413489549,-50.892480846595376,-79.38086789154367,-95.32926269223029,-118.8232875821634,-121.41152584062378,-111.79603276520803,-147.1165370216288,-214.023843861419,-259.2797015800622,-287.27412081389195,-300.9611215556785,-276.41643209646276,-244.17315885976774,-238.89350030612422,-218.22986301564902,-155.20421250136243,-83.09629078945233,-4.570801812366598,89.80425769971319,163.4364048202981,209.59602700468056,263.769717564143,310.5227441628308,320.6109972268371,321.4377216771962,323.85127056192084,300.46190547959645,268.1999602366009,252.99523536362514,225.42541589722623,178.839226461654,151.38050133355952,131.69848863287453,89.2042297421612,49.65556453956896,22.929631014181023,-19.700301628598805,-56.4512072375392,-56.64355838658187,-57.12782429900074,-79.05887672385182,-94.04410076734806,-111.56220026319846,-151.202177896254,-179.37720227999378,-188.0229859816694,-212.97351023925847,-238.1272533203111,-230.76375363104387,-215.73118619410258,-199.58365074038412,-149.4712373330318,-84.41193983938828,-38.45743796029557,11.753999800364555,70.85980941553022,103.73639650778021,125.49902119042292,164.81721510852145,192.86408489110303,200.0161724705939,217.58425571361545,229.97084221824758,210.9718745803887,191.18481509217463,181.11553723603058,149.70720672973113,113.06053520026646,101.65527781324838,88.47680604124389,60.64159952170087,45.110542482549164,25.290751906808538,-21.1948862685435,-52.42464247343547,-51.190755058957244,-60.13912125020862,-80.13131521290663,-86.66691729500488,-102.63806992426092,-130.8384419091914,-135.25324643168904,-134.7308322047446,-162.78120476498623,-185.31283661073937,-181.27897079693963,-178.04723925309577,-164.45004799409955,-120.82326847015159,-83.46147103176307,-64.38593678279199,-30.640752148767934,2.802392250427493,8.624476269599178,17.807679452569968,40.70884789380607,46.82859152852906,55.19637989271864,91.62754110683345,115.42696751127417,105.8711131740473,96.55151329115995,85.85685019744332,60.036015910098335,54.225166265160794,72.41239641441967,67.23506906704802,44.11825501565359,35.293383524085144,19.15334149733671,-10.16388641672861,-17.38615053857906,-16.44599338347898,-37.27103291647046,-53.13761112842723,-54.419469707491984,-70.46766514505116,-82.76356846865652,-61.19044943336375,-33.78801227894368,-12.874149689787973,28.962342126070148,74.3333390521363,93.49377710747382,113.5816834355962,143.8152369389583,149.3005388405228,141.00517629810287,145.82927665618544,135.5789410951343,104.27292954104573,91.99657575460269,85.67055976239963,50.52044358448302,13.840411436887196,-9.93224381626292,-52.14962073888911,-98.1790041756891,-118.97607267909277,-144.5829985971021,-182.42982084400555,-192.59171739918912,-189.21925227740502,-209.5366318384356,-229.81463658262814,-235.39764700508408,-252.36559595949683,-264.0947140198805,-248.21371280276063,-247.60191794654764,-278.54116121103755,-295.2008589366882,-295.9346119585501,-303.01574621567113,-283.71131640119165,-228.23079836384778,-177.6619274653778,-122.57507997500961,-37.140355965815026,39.66249280276859,88.6806120147406,145.77449471400595,202.02806818028097,224.9802519920375,239.53838405349995,259.29087244751287,253.5366360419763,238.90793114847546,248.38957002582669,246.52351093908663,211.22029805199196,180.99280704407204,156.23619660885095,112.15472153086372,76.87403994141698,58.832989718216155,17.475492641788442,-33.16710977518233,-52.03761433226001,-63.296076328749805,-85.90075513968588,-91.63181653219112,-96.0701348210021,-134.56284494876772,-177.86803811118997,-204.53874854011744,-241.23655519287794,-271.1642737376054,-259.61542529137876,-236.36668639581313,-220.516852518719,-180.73776970002442,-126.66816425024867,-85.68282918141514,-27.176341828219307,59.84532806915384,131.2190689503827,185.08071093736856,244.3738639060723,282.8213049502733,293.1970183648872,312.5211731725527,328.665435406486,308.3347292523076,279.03824887665473,261.01136564918886,229.05391210710735,195.11452570382622,183.41610440606698,159.23180121394563,107.12453714288759,66.61148442112606,36.225590184234115,-8.37056459158002,-39.75709309189722,-49.28873529347807,-76.71396922883311,-116.24829639595394,-140.16405319465798,-173.6131769308261,-221.0138251976366,-238.03794447588322,-231.19323771206007,-233.78502692801925,-223.9215786228468,-193.90060923412787,-177.99042431399565,-157.4489655503706,-95.40504230657149,-21.717760297470832,43.450919356216794,123.10773734803612,193.1320269913441,216.13188575176434,223.1050960990268,236.61744198892183,230.12727384588436,216.76785809548502,227.06063533508342,231.61931062732737,211.412512935204,195.0835177509902,173.24509725288488,119.95198163614165,68.63419993844758,44.258901073117585,19.471704771019578,-3.602066612086414,-5.510086886329803,-19.758448454914376,-63.4688907735096,-96.62246565274481,-116.01990138485189,-148.37075330218636,-173.46386926528177,-183.723065950838,-215.39765392436647,-255.33826854777064,-261.6759501695619,-251.51127312617072,-239.72832824535368,-198.28306229426718,-140.33992830286718,-98.90446440604893,-48.41664189211053,25.49387543077235,86.76149448794419,137.6410253094637,200.5420023763341,244.89466809771397,257.05858888266255,272.19771908590906,281.8879386167865,255.58926541567655,220.97814886718265,198.7374531895806,163.76891243131567,127.57821017044253,115.76319399325644,94.0664882722393,44.51953713752039,5.317532095594545,-24.147122074091904,-67.71512192941451,-97.57937384511577,-102.98027909780774,-121.3994237379282,-147.15039526879306,-151.91483094546248,-161.70056223059524,-191.05394005313048,-208.1498688853252,-222.00500775343585,-259.3744547408758,-285.5034423773851,-276.72898441116934,-263.50061336948585,-240.52009686933985,-182.79673222878452,-119.84944401679029,-65.2511482618253,13.253665408482028,97.69065309937476,146.62891818630425,181.36999989570245,218.8832326668417,232.531567848247,235.24634413077075,256.185276616369,266.80204365604226,252.28022256050866,247.1577858006589,241.84657411170497,201.4612727984528,152.45748480678742,118.95401687473647,77.47828094292396,39.07933570683627,27.891813090931752,8.585853260502876,-33.751810497154366,-56.49851390524841,-62.38966037007799,-85.6156032444399,-106.65326143088193,-114.2697357576154,-141.87394126981667,-178.2511563318898,-191.25355775055183,-209.1085680370707,-244.9820439290935,-254.28060057544457,-234.0671400216296,-214.9595236032286,-179.15673304281796,-119.90597649418088,-77.15822192476949,-45.6748648647271,8.676220857061185,64.65948333810718,104.39719374714997,153.31924808851898,198.50768222205403,207.82110455339358,208.4855829549053,221.23596586891017,217.5162941821398,203.94580764821575,206.6362324464745,198.8492106503512,168.6045033849477,151.16141576343796,136.77617805165758,92.63048578394871,47.241191259304344,22.147718801983054,-12.387411469244622,-48.26854807399471,-56.63886969458267,-68.08673566985033,-100.60534258726352,-117.22967204451714,-124.10888299640582,-156.62293712513397,-190.1683314648929,-203.7885314589587,-227.30667441753607,-253.31669805963992,-250.68721003301178,-243.92978105700087,-244.81817306268167,-213.12138789426933,-154.66688816602772,-108.25276840150478,-60.105044435326576,-4.915592977589409,20.041929936155498,29.28262990873108,64.43026516988137,103.75164836852875,129.67510596356195,169.14356952624763,204.59142287981098,201.39299729680067,191.28629425064662,197.00326921164393,186.71913765583633,164.37628615328185,156.56108263087398,136.57497933304214,91.68925201385534,61.32368496741908,43.67655093059542,8.857038930501144,-19.82487195473728,-29.210577247410427,-54.638571256801,-87.6054046397828,-95.09554092393489,-104.78150086874129,-135.55802004640194,-154.80020173769583,-168.87520965589854,-202.46359298784782,-220.54205741135016,-206.42948539086822,-198.78788018887678,-187.19466783738665,-134.3734262336984,-71.04402190807505,-25.66104621515379,24.16707174556678,64.50394655460414,70.1672448725065,85.5286336794388,135.83400859516271,172.8277034958696,183.25068281004172,193.26441134005807,185.57993523117057,157.08036726073215,153.31670202318685,167.44647384115257,155.37638352687,133.25314497029342,119.03749994787377,82.58963922642582,33.3208005769223,8.257665742025154,-13.132426591384469,-45.57312044399339,-55.21909991526618,-53.557210212264515,-79.99685028668972,-110.87474635221504,-123.57095783757275,-144.75232115003973,-166.32698369005806,-162.565606025451,-168.76912224840862,-206.64024827081607,-231.99788415473506,-232.00528606358745,-227.89391369943985,-196.27830844501395,-130.46526546127987,-79.02103802366402,-45.99978083288562,-0.3570947971198404,37.45582749550767,54.65753162744022,86.29239607266561,124.7116101044142,134.1230982697303,136.96272048082358,152.22300399074794,149.9394839866299,139.38565756508373,152.95273413611824,160.7326102885501,139.53371574356302,123.07419284688208,110.84919158341906,76.7655819180973,49.32903653256578,45.322779011736614,25.86098901118502,-7.304437503145357,-20.077666266317415,-34.099563817013205,-67.0305324546352,-85.353928931318,-92.36767758110982,-117.0479503102852,-133.83280374362002,-129.07631062486132,-142.5291569345791,-169.39066736592824,-169.85775200515533,-159.5895735855159,-154.43224099382127,-123.90353272520585,-75.9679608750701,-45.86664586761238,-13.888100936973569,32.82037161725998,59.863193695579824,78.39609966086522,126.17878527569015,176.51711846784437,200.64966465945884,219.2050342743755,227.23305056742203,207.5517287444146,196.68509545364532,212.24598614113782,211.29055208190147,188.00672792648928,171.76632953988604,145.23171466317564,99.56794832563743,73.02363753043662,60.409007251035945,26.07616749921096,-9.850156733093394,-29.816237354904153,-62.952562028531666,-99.53873615456712,-107.45306997969588,-116.40425802490306,-148.92371297094078,-170.58969201157095,-182.95442598536027,-214.79255223108206,-239.57044529545487,-239.2984795348095,-245.10367026802925,-245.3665262126037,-205.38924312675672,-157.32556078765379,-131.05714090624423,-96.94547790759621,-54.09281017677009,-27.880885194478285,7.836799129392661,65.53153406801422,99.6584554989914,107.8992999869535,128.9709996683697,148.34542020761782,149.50007227926577,164.31825907492987,186.08203008702245,178.51426794508632,165.0614764621253,168.17115066492062,155.42424494303665,126.10593324166652,109.95641859379135,89.54477775687273,54.36635982326546,40.478291569884036,41.64230596428463,17.278252102835403,-17.860801183992244,-41.8341057671433,-74.49040729611917,-102.940966856189,-97.01877111364014,-89.18796591343755,-105.83491834358428,-115.28482939437215,-117.03388771258683,-136.6023549372836,-147.314496789527,-132.90614891700443,-128.6761645689641,-127.88346318293094,-95.03657455139407,-54.99900112652985,-30.7114573453701,6.484029022693999,50.60737920103165,71.98177057052551,97.16091817425783,141.87732955795613,166.0189276528366,170.02555655636957,188.3991191901222,202.08059317214514,194.6069841303202,197.9070449925224,205.10703120134508,182.5361272170355,156.79817825887733,149.2595525181901,123.87065261623579,83.05184778470974,62.62890804650121,40.85834994592585,-1.1991751802358408,-28.77919562267263,-46.3476436717182,-88.30677838250662,-127.31156285685489,-138.86397014776185,-156.3310824187425,-178.73279574845242,-176.72482857962308,-177.63051946402834,-200.44174909228826,-207.52187461598044,-198.83101054116756,-204.00495028045577,-196.357834101958,-155.96070446715066,-119.89973066192833,-90.22357322302345,-37.26050507154138,14.401510957961234,44.09935426360776,83.69047886021174,127.62544763126424,141.19685010773648,147.6523168021563,169.99511757992133,179.18531870803696,176.78734559574548,191.6565236173936,201.03427899878366,186.19206850711583,178.02450022190453,171.16640789459632,133.47662856554493,91.17665523777613,67.90871257550886,34.31961577723858,-5.40661966177905,-22.3544448353271,-44.6573657470467,-92.38141805025921,-127.34001448662129,-145.37805748282847,-175.14995950190874,-195.24832158508622,-191.7645609061646,-204.67934875094767,-233.52205450163123,-239.4851367028629,-235.06140357941933,-234.03563197576986,-205.12786912110934,-156.3675922342211,-125.91356129160621,-94.56152261367193,-40.89686660556232,6.6870660106475075,49.93986138601504,112.48435441083501,162.28356730498456,176.51497566677207,190.49706178868757,206.84485382103924,197.74119761767184,186.76112820064066,191.48866106640997,180.01388286908696,160.79024153175703,168.35203847380245,174.41773917212282,151.61549424178185,126.26058236093567,94.52466594293755,32.550760225026465,-24.490342788215365,-50.63948287039835,-79.8741414372416,-112.90303772515826,-120.1663318939461,-126.88540278530738,-154.59086502255724,-172.08114886292185,-184.0329742208722,-221.0461395965075,-250.32139442712423,-242.00791159166732,-230.07642324722997,-220.4914606251313,-187.5085485455469,-157.67496811837688,-150.43642057854993,-126.4980217718261,-81.88559732344973,-48.41694803606252,-7.677142522427619,53.19795493587065,93.58122399597346,110.22342703095795,136.2385726936596,156.17131012850973,155.84972296160333,167.37951182430785,185.78740037806205,177.61897621448725,165.39627857493954,170.11190257862282,159.9169380347547,135.3813739910765,126.91886305614435,111.94080203394329,71.82798909090968,44.50647196533856,33.307870680388234,3.5816858559919975,-27.090076051866372,-38.99257342549292,-62.181951479169996,-89.10629527864404,-84.17092819371241,-77.16383877778992,-98.53848728815741,-115.61023375058133,-121.57381229537366,-141.01167343174086,-148.50611795080678,-124.72174602295456,-105.03326156947011,-86.79850662032896,-33.7862952335219,28.455692195645923,68.88312721209769,113.30019128947751,159.57225230660347,175.12218877731055,182.67949459149906,206.02007326529753,215.02871674448414,212.05407563804275,231.11410741612752,248.3094429396173,235.85034772176408,222.0972513163877,206.95102638875923,159.0569576966422,104.34184555296349,71.60432816368561,31.704092289702373,-16.290286385208844,-41.00504835681363,-67.17697315291377,-119.78707187895456,-162.06244853827533,-185.41663021560646,-219.00351052355967,-242.6721442850523,-238.76136656930942,-246.02300623314602,-268.73232559726324,-274.2408671605124,-281.1251088330979,-305.12388030693245,-304.92501870010625,-273.0775949391206,-242.50254187448303,-201.44426272649005,-139.86568244183982,-92.2131485703443,-51.694433299964864,17.580565864652527,88.45663371421887,127.01272814118205,154.8435161539167,174.68545016437568,168.03515485991286,166.2927314570053,191.18698552635112,207.85226097776274,214.97350713632574,239.84607988654273,252.28086442256222,226.10293922866595,196.20802601193498,170.88015277842732,126.55503420000592,85.99661683006227,64.3939210620695,25.34252582758874,-24.773514691995786,-41.80517784606134,-45.18283365940007,-67.94293334610424,-89.97502192788204,-114.7151628002746,-169.6252983419701,-222.56835009284765,-242.29168691177566,-258.92005901897517,-273.5915104215155,-253.2753389987572,-220.92232182574668,-202.10911326467732,-165.70305718604027,-112.0517376795919,-77.10602331262876,-42.542016790862824,12.720620621852346,55.845872047905964,85.74630739880959,133.24251278613764,172.81602731812467,177.48853722946006,179.1220655395428,186.38804577458592,176.2618201984867,170.7159082202844,187.67019384449063,190.61846198545516,173.4193372993792,166.83451326059264,153.60483205437515,114.0824617837097,80.85998915086346,57.90601778541249,16.304630577256336,-22.041919211684267,-33.74790153844201,-50.17279387066259,-74.93819346094708,-79.93463966240458,-90.0497244516723,-128.99831164011212,-160.9030657659714,-178.40823623485034,-208.7790528612085,-226.9464679206216,-209.48698078707417,-191.8327017339172,-177.84503046512071,-134.68023000013355,-83.96504455613075,-50.529960630573356,-3.9652952568528903,52.71229628472711,81.9099352457366,105.94820933525106,151.8095369163628,186.28101114999424,202.20359562200525,227.51008430849743,240.66053397728274,223.64564958307096,218.61511444534125,231.91868855490313,223.62803418871565,206.53631403729884,201.2058021853928,173.06467069803,121.55420459413638,88.35778303373806,60.66762587834444,16.472773726757456,-12.637397988376874,-26.556316320310223,-64.7064949062589,-109.75852362484858,-132.37152746766296,-159.4558580518316,-194.3117262335004,-206.89962306432926,-219.44781057535735,-254.16623847048527,-272.17940308593154,-262.14003106042014,-255.32911070808876,-240.2931279071842,-202.23348401285898,-172.17063456258003,-145.77365151030432,-86.14875466096734,-16.135441920562023,29.488917296235382,69.66880652710698,106.3006330683328,117.71123456168677,131.75202674240717,169.72184995562176,192.84458167044565,192.45801926637319,199.74233388960835,199.47503758827912,175.39549983530964,162.00766775899996,158.83665721789578,131.3382568333266,101.6815336134233,93.97759228729919,74.00783646135142,36.70931114650796,14.1990636601146,-10.733390490073841,-56.49755235430366,-86.96695454345416,-98.6670384131896,-126.59198559241119,-151.4817880283941,-149.04393996815782,-155.52088747579796,-180.62070261849226,-189.5534769440067,-190.47965980673104,-197.27418654549922,-177.43535353232465,-135.44699280008223,-114.13339686650018,-96.12639655099942,-50.67744703172734,-5.094724376264191,33.596581847192844,90.893297165447,142.3249524065452,163.49904883399114,185.14739112229535,206.40160357162074,194.43714680801338,175.9459596414535,181.46624613733866,179.90960519454347,164.17508348441396,163.4032719171245,158.24184294253268,127.58120665944892,104.1434752622189,88.7014838611576,46.738638748489535,1.504089280525987,-17.643249707362283,-41.475392626933576,-75.86915677887936,-89.54546305487537,-101.09048028024324,-133.14639695344601,-154.46372340697457,-163.31002319322533,-193.51168461658008,-223.39790912026322,-222.18229184756467,-216.36083120376946,-212.21052376261727,-183.5477233516179,-154.7844955325441,-151.47478371263566,-135.30223260419808,-91.35230410263947,-51.116254650354946,-7.756682651961036,49.43449407100151,85.93347447323298,104.4242127595964,143.5603372978912,181.8959559098347,187.09882365265287,186.12644261044053,188.1617891238565,170.97741575189514,157.02743958534387,163.29722544897052,152.31716778315214,123.0825480338872,114.59778270544612,110.54249416687817,83.32831435287031,58.9478561537838,40.03782576658618,-2.9627698404428724,-46.267667793950025,-62.44632531806251,-83.85699686973595,-116.21366086010158,-124.87716038416661,-126.72718045156958,-148.0878282911682,-159.76177772976436,-157.56449390359964,-174.43296200934034,-189.82372522758,-174.2339611512583,-155.96886452353817,-139.76956171278533,-92.74502572150533,-33.980176720170135,7.081978701762763,54.42289952290696,108.09104228114877,134.68359850292018,153.42884507751108,189.27925712191288,209.16741413448221,203.94190714507457,204.97384480023808,200.36540594983998,174.05430240318907,161.5390205139767,167.15278209567973,151.59625083742017,124.23777138132311,107.19863461742152,72.20789728785515,19.31946658948775,-10.320375709610662,-29.076548090148428,-64.734888694615,-91.76370345587603,-107.35234930957313,-144.3101600288364,-181.72945099886033,-189.6921153301452,-198.51729735348133,-217.93534301999526,-218.34473124486894,-217.83930584729555,-239.86061025894833,-248.41525864814122,-231.7092709293185,-219.72297291232218,-197.5228476342458,-146.97736717590394,-104.5759479221756,-76.55143971459904,-28.140243774400744,25.164974274415993,57.96024126160236,96.65432440128131,141.92980355481836,159.27965445611366,166.4487924550654,188.0092214395452,192.4812355728269,177.13413904710205,179.89055937481075,185.42046781654142,167.79941300375964,156.24758741908212,154.35329629866428,128.14946990822614,96.55750444636544,87.00755594584075,68.32721007304764,32.55247620655683,11.792567361800785,-10.411123384604654,-57.12268426572472,-93.34970133754646,-109.4820309697814,-138.09902061781224,-164.0179333777633,-164.1494201463011,-170.47588617767417,-188.5066026461222,-184.13904891750843,-174.8555202510267,-185.5142984564468,-180.45385668691827,-148.65075563069541,-122.44873881904832,-86.98595857710556,-23.696108152127135,26.47202415293598,52.9429889681696,89.51135639729193,119.80690243879341,123.11091598336546,136.23778116283762,163.70210703260207,166.9563698130201,158.77068557187957,161.98814721740163,149.74232227033244,125.27559229908714,126.36458426799405,131.57351079052123,107.85893247211101,83.29786106901935,67.28934740567979,31.711974284449663,-2.1151144514122624,-7.241597831886319,-17.763126144516022,-43.65038846472954,-51.007225581752465,-54.21773268665938,-78.28659045323236,-91.83510697457318,-87.18957041976293,-99.49503216628787,-115.07081670580229,-105.02270155344235,-93.48915527790139,-85.29263459696197,-48.79172500273218,-1.9187663107299446,26.84521227491703,64.50443989349841,112.99302829089746,131.20400596076786,130.8282396059173,142.73490718891088,145.55601226446407,137.6189047597899,150.654559084295,161.69034682265334,140.83011416589028,123.53817594324434,123.21994506017388,104.39555675684167,76.31106262456692,62.777333848622604,36.044748955542005,-6.687279815999096,-27.50925823762345,-40.97684963789812,-74.77575880548228,-98.01773024653981,-101.71740235557465,-121.5347129259948,-146.892369380176,-153.2310107754156,-165.9545003693797,-186.79950004324138,-181.89889322913112,-170.02136668223693,-181.6495113443777,-189.0346888808709,-180.31095084703935,-180.37689868439435,-171.1891226666457,-132.51958370428187,-102.72024434313101,-95.00453176565512,-75.38702808092782,-51.56706838055176,-42.41494347674571,-17.420784955314723,23.636917766586567,36.892587134116404,33.502629566709864,44.04858631550988,44.302035521596885,30.563885570056424,39.36897873259785,56.86691033190864,55.97298657313489,64.52206065033144,85.71968144340643,81.33215042930641,66.28933668538274,70.90653506816496,68.77704465104006,52.88592352019093,56.086086838729855,64.08773100731771,52.201284405370814,49.777845859297976,60.6590011860612,46.94248054355005,23.56977154889298,21.18634583271602,13.410010275019747,-6.39403903281789,-4.61486838878923,3.2807955448324586,-9.240473594820342,-11.235786368972162,6.888398631020493,12.266101830599252,20.208805035518488,59.08331939806641,97.81430685995409,120.89161176140205,153.38935486061052,177.4280127068133,170.7123507193038,171.56455143358363,193.89922502789244,201.72051110173115,200.54474488964235,209.67961000674916,199.74577912800765,167.44283964376814,150.1314514669442,133.38012899799142,89.30991757512247,49.72926635170403,26.86381985553372,-12.164666901436584,-53.98083117065055,-70.17590550955623,-88.02678050561967,-117.61848412861585,-128.16369224657748,-134.20679787063932,-162.14578651111947,-181.20670876982115,-182.0780196080871,-202.37403114931237,-231.12039143089413,-236.66324967937308,-240.46157724185088,-244.02628270959232,-208.67624571140303,-150.95640354011252,-105.82234609209016,-50.13126679191083,18.030742139321752,58.03467191182103,85.24432537115038,132.68828191763384,169.9077691771122,182.1108298371759,200.62300690470346,212.12797649671427,192.30333770141527,178.7915191459919,186.89658057834774,177.5055530345048,154.9086815691788,141.99493763672294,107.68501909657336,44.9447865551933,-4.358821033910393,-47.60060808889383,-110.54139223372535,-160.62546105678874,-184.20611928028916,-215.8837099888544,-246.81896934688018,-252.754222644483,-264.201130067641,-290.7413020334114,-297.0437329992236,-297.1648585129151,-321.9696214766638,-338.86158193856187,-327.91499781102556,-318.76945515514836,-303.3748375519965,-260.5212941912419,-221.00418102239504,-190.76375392386845,-130.90078168003816,-55.137128923380516,0.6218454568945386,55.328998311152326,113.29231900364225,141.90868747429056,158.89870731365983,194.1367324549711,218.39856454123552,222.64195009842965,240.01977397163114,253.257796759936,232.61093152039712,211.1594202167524,203.6558670604753,177.59522535602537,146.68145648802275,140.00597293069688,126.36998217785136,90.1205509347102,62.2125088830461,32.01360649422648,-22.35982040021016,-63.846547389676715,-78.17433494434518,-104.93500882610175,-141.35543304353519,-161.99833558345102,-187.9670057523419,-219.5561420803673,-218.7412943018523,-200.99273480359363,-198.97766785818854,-183.9344633503861,-141.71831712100789,-105.48758039430273,-66.34010122186766,-0.924144826806355,56.768509212170095,92.43663045299196,139.27448394750647,184.8452636219148,201.13952953660785,217.3852754367545,243.63034859710544,244.7040611534287,232.64162500414454,237.91290606216,235.33974117802376,215.04049795751922,209.06798633256847,202.70525055962725,165.87467067144823,128.9357175404493,107.19758040467994,69.71995230026874,29.50945902203366,13.529209372765788,-10.895363986915322,-57.46804855795234,-89.82815682672786,-114.89586404038886,-156.4130959630978,-182.1395164376825,-181.6331049498434,-193.98467654463633,-210.6960951181349,-203.10102807101788,-198.1109561654709,-203.41013678607104,-179.56739391719998,-136.00810092767847,-104.60439185343732,-60.07045657416876,6.386548468247394,54.23578446742062,90.39281165804371,144.93808593033614,190.52557789297242,213.33414327787642,244.0438721080131,266.78234845646966,248.75832032738663,221.50101019841358,209.31942898890577,189.50890196320668,173.82708344068845,183.30779189949283,178.32625747736728,137.20155492949263,96.10604832931637,58.01831277962944,6.645821681507719,-26.34137904752872,-34.0696808028509,-59.84987826073838,-97.67571515967849,-116.59203820875474,-141.43558609184578,-183.49764628124873,-208.21024359098303,-224.22184174857222,-256.394781971842,-271.4949960639,-255.38081366451127,-245.3419414745048,-234.53330446570743,-194.50736518227737,-151.3575463885933,-116.81477489378234,-60.201068730640145,0.8121998921396312,29.737343761073816,52.913444813274,89.1976141184837,112.68667211149184,134.69690996608932,175.61523706857815,197.30005746601515,184.59638713726207,177.82532320658845,176.54314629855185,157.5104917816759,146.27496408470998,149.32653019503744,129.45125094665644,97.27692920694443,82.18786956017065,56.156578906316696,10.008747389923132,-12.862263053536143,-13.903953144998534,-22.306945057909925,-17.827977956656117,2.172831901785665,-3.0527641658437004,-18.74663652444314,-5.037276345720731,12.333194627803081,11.660512788153003,17.69076208292397,19.528805964925372,-5.333552095702537,-21.121222353051287,-11.0853740884676,-13.49797533612184,-26.038273068049918,-20.30617814399388,-19.45809839188153,-34.794306180149135,-33.64715034210328,-27.930630022454956,-47.84414122330556,-63.860157100143105,-61.974925909216005,-79.40101390844768,-109.6600885341572,-122.08985741308108,-137.35501442865308,-159.61887079446473,-150.63288413922834,-123.34690182791024,-112.58979161097085,-92.55893629902798,-48.17360423261748,-11.227365576457913,29.268870172472184,101.54925810058764,171.50848194607624,215.71957520311693,258.79331624902414,283.6765253059009,260.0505923077616,226.31989052450893,211.59559230884884,189.56116923583883,166.51597017393436,163.57719570713098,143.64859532839375,87.1388690167866,32.11541732588246,-20.221163283634365,-90.66146678145157,-145.7378437425545,-170.23830832713088,-203.84041786954728,-242.97238453497647,-257.6299526240209,-272.47016847350756,-298.59888694254244,-301.14867793051087,-296.18701344595894,-324.60244550206636,-361.31581053166605,-383.3648269305694,-413.6411063367133,-433.5047296036657,-405.08353482208184,-353.5528567355168,-296.4192735881608,-203.19774480970796,-89.74874776030745,0.6939505568447402,84.05087315253404,171.7245557021173,231.25459303413965,273.2502459880543,330.0177393861589,374.6623835362655,389.46014433924773,407.4104203938247,421.36578049392926,400.0275939248409,370.5960887975853,350.6771765885907,305.1337878582933,241.5539395639454,195.56513637516446,144.68733585859462,75.95192517751619,27.256028928541,-8.058212460864693,-63.37982513930372,-112.29826037533027,-136.94393645118248,-173.23774772865445,-217.90679967243403,-240.9825317625431,-267.5907223349025,-310.92261935974807,-330.37129414149035,-328.5537550562569,-341.0937681084175,-347.00950708968793,-324.752013489457,-296.36522601449064,-246.41985743644528,-146.0007862788889,-37.24268050603705,41.123102805973794,109.8776844450744,164.83116849904465,186.89948078243336,213.60624680841428,265.86028659885534,306.9990870984719,335.3850619053305,370.20943051417805,377.45779736620256,343.5332849493897,313.47517486246375,290.96132191298943,248.3436533891509,207.3166208224436,178.63472421827157,131.60191454211963,83.24285287802753,68.31380829254397,52.66903827594671,8.67075885673116,-32.83193239963734,-71.49166478273594,-129.0512503118471,-174.76976286246685,-193.21229982356135,-223.15659394579177,-259.5744162932838,-266.87655961818973,-269.94787544505346,-288.40995612976093,-283.8254674213022,-252.89873429700947,-223.76332611139316,-176.3435606529974,-104.22120876857576,-51.179729638846396,-14.950908833838591,38.75674248053041,90.45982909496871,125.65588688181869,172.28010058465702,215.67656331148697,221.33259613943116,216.7402265775006,224.98177038459923,221.91782545509838,217.09331710114535,232.58980998459978,230.9486238026367,191.52046518470908,154.23021998102536,124.92745089986974,81.1915026116898,48.73929707680179,39.988418108242975,16.828027312381746,-17.749341020207638,-32.50079288643718,-50.19533601919943,-86.03802562677512,-105.24252872059293,-113.93128887599005,-147.7387545453298,-183.65088372460568,-198.2582171457608,-214.1769377209197,-217.12265706441295,-178.0096127751963,-135.13547586709967,-116.35723325799138,-88.26124681698373,-49.8397599279928,-25.167113049738475,11.08469823269571,67.32988972546006,101.04500936918558,116.91351534134168,150.6638445555555,179.00108490212554,181.96608530242162,189.00370588191657,192.50931838413902,165.3675864151433,141.41917701993395,142.4048510917455,130.66313478371583,105.05900855025074,93.86976206285705,72.09288056005803,24.993742076965358,-7.513787117320996,-24.200736504109422,-54.39996147777676,-75.42339612050023,-76.07682216162978,-98.85307659986012,-140.2347480633146,-160.17693482191572,-177.17954833164262,-210.22359205277093,-227.73807882218372,-232.51365456293613,-248.63081709862826,-243.22947218695867,-198.88457264626743,-160.3570481433477,-134.41020689999482,-88.83279285649634,-39.34567585171919,-1.5700741857431204,51.580543390297564,106.95960267881006,125.51530754344611,131.82932912913319,153.8131475480943,165.89174545007663,171.32893542954986,195.8585016548754,208.87729713814005,188.2438887918483,167.90952672671568,148.6812286918349,105.94773336512722,68.52878023985176,54.15256096879823,25.801592765327477,-14.690319657284315,-33.65321801082025,-50.119192056677456,-79.75510272685915,-92.26630797394202,-99.97942569897884,-142.3877178196064,-192.07447236637074,-217.55513611762737,-243.4663628922612,-266.02980109341144,-257.3643926006677,-245.01206930423538,-246.6342283529208,-223.00069552813744,-174.31444588545358,-136.14974949815854,-91.56688264535862,-26.784234116399094,21.425409869824747,53.66737135648722,101.80842802329715,144.24409429573686,161.4130223747733,183.48107577608536,206.98307562121187,202.41883349498198,195.12967094352845,205.84013779510832,199.52240751056658,173.93758199171737,162.4406640465673,149.45182837052982,117.63660820219903,94.41505949553559,72.09806873005527,21.246348116016286,-24.394498492369415,-35.799226748969275,-47.673479762642444,-69.02126886439063,-78.4354327734106,-98.77613642606217,-141.12259912858553,-167.42983937798508,-182.17140480834433,-219.75907758921952,-254.22977914902572,-256.83877365108754,-250.10223339877055,-229.88844483585672,-174.38201146149834,-119.00898761854968,-89.25819635804439,-50.18284858585861,1.9253589616113977,38.33028044215898,79.03523919069588,136.57022128172736,171.70573694839197,185.22290759538384,209.94064344339077,223.78833306782022,210.9533250995538,211.12747015663356,225.42521964253638,218.2980546103897,205.3016809589699,199.83942329806453,167.49947531216807,116.78335355948978,89.96951163014113,68.35821300828536,28.719581517814643,0.999972336404146,-17.614632813831015,-58.93092642279884,-96.35763998926406,-107.1473333239307,-127.86593609567763,-160.4275936594184,-172.39234835922036,-184.9327991593386,-214.20112278582317,-220.02205027298453,-200.6223103825859,-191.91193247500885,-176.26542020827367,-136.92914387244775,-108.71817453402497,-86.71701449987947,-34.80161627571262,21.134730067277374,54.791380438523255,95.48175822790706,138.9436000431117,151.42682950750253,155.98188437309193,175.4594156662221,179.95883622345957,172.5975932167569,186.82379644408365,197.63998430528798,178.07695464906476,161.80713899904055,155.19841778143723,127.27855017764722,96.3223607815023,81.34571630218879,49.63748991965484,4.5107152925422085,-16.18246093236501,-32.50907663013106,-68.77377029719082,-92.97579288189847,-102.03308893388852,-126.99463847836803,-149.10440555320596,-151.52755106207542,-168.02970872798304,-192.68241939955263,-184.27279885610733,-161.21943644324205,-150.20152104283284,-128.37683879719353,-103.03158786432286,-105.28533682767055,-105.27111793290608,-73.46346675578317,-38.069928944535505,-1.42803791321926,58.193850658094085,107.20034707797927,118.14090546818426,124.67985797721322,134.6014803446139,126.43580885873746,126.0108344133388,146.88020761744903,146.37549210810823,123.15303369890565,115.63272294123082,110.54581509884855,92.93845486228184,94.8023311266088,109.18931486920313,98.92843136151168,86.71655349282781,96.71865597505546,99.72585425160976,99.65113090893328,128.93487307125378,160.25621682728905,163.5346197448767,164.77141376036107,162.8480507619928,129.18441077773713,92.40866713777763,78.83734964864146,54.14157410864839,15.74720541738315,-2.774160439077072,-22.211454218537607,-62.86301856898672,-89.29885697043213,-102.82884723438042,-139.77428972829907,-176.62239849794227,-185.87069953240476,-198.1800909448114,-217.50226472560368,-217.36746602098773,-224.34552343457025,-259.458239199167,-281.04654908561054,-278.5328624784844,-282.59766963122354,-278.3693169018599,-252.52074270807026,-241.86991867222454,-242.47303495295205,-210.44323799850469,-158.57406200907914,-109.64071972647271,-38.766427389939096,44.58982178991661,99.64908412567813,144.9168662950064,201.56522571491186,234.47621136420673,241.40765150054258,257.02389537939393,264.8726581792965,247.47248784375165,238.4768153559169,234.50275585094923,196.40422223960553,144.73905907318618,108.85910644821665,64.62572312883478,15.65622853025102,-7.45120094817196,-32.377871151708206,-83.50203750057254,-122.7698954044397,-143.60072000396923,-179.38093954224382,-212.94787381337778,-224.02719019569406,-245.5901123460219,-279.3259325048694,-292.4583534447365,-305.092867875662,-336.9926939897208,-347.3228540520158,-323.507190785292,-294.0708412379576,-241.9028986655348,-150.67428146976897,-62.52051977687613,8.041296312140508,84.59140253507246,146.74851311106207,179.7737240550874,223.72348855542043,281.721268733614,315.768605216164,338.0854788669629,366.425175065476,369.71468258964717,348.74378772817715,335.2874763339811,307.4458607596802,247.4001938234579,198.01936880858415,168.37005574803047,124.09661520684566,78.71479870983774,48.71863921598401,1.2761584561087567,-57.80202237236737,-86.14192289703566,-103.02292871154226,-139.30039242269203,-170.2880486263926,-193.47763593975296,-235.7948375669249,-272.2226442423671,-278.31101999479347,-288.32542680744166,-305.68475980456697,-290.5743600039609,-252.9829348097943,-214.59496927668835,-151.3728523732567,-71.97728779467664,-17.338727469652127,30.40323508280905,95.18920345351513,144.99192434490834,177.6950421199139,227.37764025411758,273.9316041124336,291.05749725466455,306.64963105732147,321.42260211716166,304.9775561238464,282.18899014234006,278.61763726617596,259.53357132039076,219.8929552983259,195.14893539148997,169.50181406850083,121.17396745567862,83.2057711584836,59.36764318276474,17.57607697275672,-20.77010672002556,-33.330169210274306,-57.35628743903189,-98.67009310909413,-122.37037265937293,-144.5863135880503,-186.3222546595386,-215.3912376295402,-229.37027952394976,-257.61345131037257,-271.2637545442177,-238.4604367307789,-192.37397033477063,-147.43068241872697,-85.0137442440184,-32.79761764781432,-11.639529909191632,19.309364608007687,68.00979171682567,98.78793599209313,125.86488470866804,168.8752036183033,193.75451265285045,197.44825293525307,214.51230531335807,227.0800817495139,212.33547409713395,202.81758517731637,202.00177478712067,175.95935109276394,143.65569828103503,130.18219258708496,103.14798109048328,56.74295508310037,26.458921877157383,0.9456143896597293,-38.70111705661773,-62.794399600700274,-74.16895767658413,-110.85292011376274,-151.7479204682354,-166.12722530404278,-183.34217106056246,-212.00679285277707,-225.2595409707552,-240.51345470925543,-270.11289698993824,-270.8434242444809,-237.97874747166327,-212.96130787894361,-187.26795525444848,-140.99386763921845,-101.71650652174918,-69.73268284555667,-14.759980273373753,40.28552250781736,68.87699363828959,101.47626211104074,143.40615238775712,161.36055997850292,169.23661747106732,188.42034948384506,188.43081936950495,166.93375130531706,160.7979065842184,156.43311073488934,132.8014423539451,122.20435242877187,124.85900602186575,100.11557261894873,61.355368787988304,33.52615507926072,-6.969034192870049,-52.66223752763994,-65.07575777163865,-67.04256322170798,-90.93260406696155,-110.64340793647821,-121.82410826794863,-153.5495339842004,-182.62791556321574,-181.73145293388063,-181.9251437726943,-187.4749450818039,-164.5301139622833,-133.13288089591407,-122.22609548049684,-101.00048879466326,-59.59127426502336,-28.857110711034984,4.789765658787614,60.79012925279705,103.45450646674024,123.30581499566311,153.01415213832206,177.19430534458886,170.6001492914536,164.74454049390462,169.82642808600582,156.03717358657718,140.38805404714026,147.39085742955896,144.21393430579212,121.37204443688269,109.09325086607735,88.9478676518586,36.85786624747725,-11.273732830747017,-40.79100866685103,-75.59806472826796,-96.06459553829798,-84.20387579306282,-82.66066405398512,-107.4243712043988,-128.37874545656126,-154.21426793732226,-195.622632452132,-213.5151123143941,-203.67862648518525,-203.49095823193926,-199.48542075398188,-171.4190093950309,-152.23216403610593,-143.30688940058448,-106.2910950016859,-56.72959591939137,-22.276237832631512,20.77531831909392,71.21848176873112,95.21529838872817,112.96424548505156,150.9235940680906,175.29843427618414,175.02353395851753,182.74250183121688,186.6155349091978,165.70116832484527,153.13734863847293,154.98795903787567,135.31754359561998,109.00274169499292,100.30553936112008,78.64994695779774,41.00521413229123,23.399025305289076,9.441854396115346,-28.391865414730244,-62.258834594324114,-84.02143818895817,-120.07947715515394,-149.91712079348392,-150.6871650271261,-159.25538854305802,-188.5128214921759,-205.86413781261183,-217.90500681582233,-238.83176000868622,-236.7017898459305,-209.61261605660752,-193.97249103140945,-176.02183437599746,-131.56923745707695,-90.01745534610328,-58.18212246530169,-6.1692156784958865,46.63477717791182,73.019071357751,101.57306977676824,137.91639783225168,151.13284785396283,159.26677047042458,184.9702968821188,193.70568799594386,178.06425233574265,174.91253793612364,174.5438778818326,153.81294945301033,139.89997239453353,136.89286375008408,110.03187519083116,73.08604693771615,51.89568318014088,19.165670367684015,-28.396508076224126,-53.21069389354107,-66.44530822246146,-93.35825564487294,-108.71391471314163,-110.59531021691916,-135.75356790414023,-170.65704127552866,-185.99702020134387,-203.47620006382886,-221.46635873993012,-201.8163393059837,-165.58117612440614,-149.98033469325617,-129.61836938124105,-95.82129039931745,-77.52351460555349,-52.68531457802096,5.772974187107614,61.11004735793116,97.96562812253276,144.00169989214294,181.7413338664134,186.523788365281,191.11514774623708,205.51232471670562,198.65506638889212,186.5888301388164,194.0669870281446,190.84546872863262,171.17042379902156,169.7653356829537,172.42270365953695,152.5126974500745,135.26665546152424,122.10031107892753,79.4866428921992,30.483412660176153,9.966768794979833,-9.78398686216013,-40.73731016228509,-55.27022586668308,-69.78409585006668,-106.40542708890698,-130.1637940409136,-132.2952005352277,-149.23279139611267,-167.16372359805104,-157.65093396188567,-150.62493717675082,-156.37498818497778,-141.9292173056756,-119.46145948128785,-110.30475397706769,-81.52861018333411,-29.569673718066607,3.4201715936973516,28.234163795115272,73.17462041872078,109.3558320224433,125.27416138869587,149.5828912004756,165.40738234641827,148.8854956232056,137.11271206397038,144.3595825914922,135.32293676293048,119.15897580125814,120.95198910373804,111.91889589287038,85.11034903895025,76.62468548949636,71.0669448015268,36.03115594363963,-1.1732114215567826,-27.987619738453066,-71.13596640054675,-109.0555770466261,-111.0257085282469,-111.45659618180729,-129.7079131203912,-137.18180325439252,-143.83550406787322,-170.82690282992968,-183.9155682264551,-170.99217675323715,-168.07883267973514,-166.70722191184265,-141.00247924995247,-116.96678817176621,-101.25076208996757,-60.714492322442425,-10.106021501141973,19.795126523089344,51.60287223999005,92.95323783308214,114.59599922289382,130.4423857862415,164.040312391351,185.2911930623867,183.96824946852618,191.86724465958352,196.76283120667924,171.9266754404747,145.41183887183246,130.23244726749311,99.71276583527947,70.95550018364509,70.1605173558969,62.97614650057656,33.33854682659086,13.138311529616999,-6.500012852573311,-46.85083356843169,-73.76827689489565,-77.14582924253446,-95.53581275870351,-119.51832330114107,-121.7248329994215,-129.98692292703703,-151.90939936016187,-151.86245203425028,-141.80222079293293,-147.7744601299329,-140.32577314479198,-112.04805659589573,-99.48420949500334,-88.8453007669137,-48.369697159068465,-4.95689303081107,28.674952681860418,80.21800053361258,128.31801815285388,138.67960938623514,141.08341797950112,151.1345909216718,140.31380435925877,126.07292788075347,137.89339124620605,143.47786073369377,127.93988193573333,122.37238306160562,115.18246471808695,82.38997171923236,54.06862110401247,39.17907125283686,4.717283565981209,-34.405830090593625,-48.50533932182611,-64.07843550617737,-91.62875423338464,-103.4705458223139,-116.52964268093197,-154.4058519786943,-180.54961953404487,-178.97364451917107,-182.6130879199585,-185.4647888708815,-169.65400787114083,-168.20603686403902,-186.00887095268394,-180.1069427030459,-157.5240529638757,-145.86971795601897,-120.06474313771565,-73.70431837082376,-41.28917670809308,-10.673080470276597,42.48106379153941,84.6658496139855,102.3270724172558,128.91162006414973,153.84282034280287,150.14203613755694,146.54074363243305,154.94442668722917,144.23228663872231,129.36006919900396,138.5414430302398,140.30827936453284,120.72716578016414,111.2422091856901,99.5180467662949,61.142009876895685,29.564832264197328,17.746612207273387,-7.014257005338371,-32.330507839150144,-34.08226654159272,-45.506411094709215,-77.6759924328068,-94.95641901018502,-105.7973413066866,-132.40627042330553,-144.47466695405663,-136.23316409004622,-145.88320393049887,-159.98369620394038,-144.4170285350811,-120.99693429519786,-101.25002053492473,-60.43529074983622,-16.13240574922067,5.64670502939408,36.26443690352705,86.67561007724865,118.71374832361818,135.4765305392718,160.42387844791946,169.46391857942922,156.91619053999145,157.7806000267231,161.48738682951324,143.15202918904254,133.39950292894963,141.01261713020853,126.59293464435541,97.47481771568143,82.83085576476343,60.67835636943899,26.851773972181803,16.43746905535655,11.118114576044054,-24.32964779699712,-59.92713532807387,-77.12596137173375,-103.32056221302149,-124.81551040928213,-118.15621906708306,-119.63684338137051,-142.4883140691794,-147.6723606095233,-141.58504791821156,-152.15102758843668,-154.27837509016433,-139.26867048795688,-138.1800305840831,-132.79576525272506,-91.16191943479001,-44.017809775414975,-9.51341555618239,37.975668785535944,82.56079807230886,97.82327218226433,115.40730798259693,146.45590410937362,155.33148519126522,152.7288447027151,166.7543638754149,169.8216563699599,152.58527351407582,150.0257509126071,149.28035933278034,120.75871330837222,95.70125448562509,88.33293562446795,62.22210870352512,27.976651047809565,18.593021213431633,6.838766213114796,-22.441809201208386,-38.55439653197884,-56.31359760957241,-104.16084059840401,-142.64181616640298,-145.5675660707202,-145.53369980855223,-144.0900452690457,-126.24001338819659,-126.4406029294759,-154.07100183660907,-164.9091723442022,-158.99238317746457,-161.81946872897691,-147.07006971442846,-102.4323352948401,-62.26379515236853,-23.34755654344115,31.707901554717488,68.73587718893705,77.44391369860398,99.21386351990056,130.8317366642798,142.0594832534436,151.15480858762606,164.0284911324785,148.67084712581178,121.8592210577515,119.09816229932875,115.02789044120654,94.22550788286847,87.18715824336005,82.87639457150566,52.4645902850112,23.39001412627624,8.175459973471657,-25.190907583554065,-62.229770672650304,-70.83679404241526,-77.9542066579271,-95.81521629457244,-93.39674513769931,-86.49646311847071,-105.47902693793037,-120.90393464545159,-121.2738712640124,-141.63246729513634,-167.4739215558958,-161.41772853910626,-142.41548133338196,-119.58754061871059,-67.47968379581107,-12.645150899293238,3.0563634044889527,7.255501152880747,28.24127092511256,49.55956506252265,81.89418375321428,139.7453738215213,178.9109489067101,175.55222638314365,164.26922029036186,150.97775518769205,126.97439649560319,126.1518560988298,149.79043635903065,147.7238047849287,118.38171013896654,90.02548364849685,52.848422315282065,17.687642448490553,20.86085225688597,34.27618326503778,11.518508650682778,-25.855422301118296,-57.05407908977097,-98.71668734955684,-129.89213813748674,-125.20135890039285,-123.09852299332857,-142.79968565865852,-148.6131973789984,-145.5203908050512,-159.51969185146908,-162.7054500372716,-142.95062207799947,-134.05678789406284,-125.22860491081656,-85.87864268879079,-43.73330869757667,-15.975622807297109,25.920907301789086,68.31992109058783,80.6123689924272,93.73552311255263,125.33493539522294,140.8881300502042,146.5309931456024,166.84656800529947,169.06384112152944,141.42802094114006,127.1423739403512,124.33210092795116,104.85334799972216,92.134865834697,92.50153958125755,66.87751686237789,26.498150995742968,8.197261569330463,-8.886834209421695,-38.03298491693291,-49.00889519937205,-53.23958579751994,-80.99056017438971,-104.8967779382279,-109.96787286837372,-130.0654443106593,-155.70768123496484,-153.78437564951952,-148.4809676243745,-155.46327766394944,-145.842376399395,-131.86096335879384,-140.90444440103525,-137.84005643550108,-101.06278162055179,-64.2731637585295,-25.70716320629728,33.72275484551836,78.6341115339902,93.57935275423569,114.73355342993426,135.7459575675103,131.0481307824182,132.06801610788168,152.75107366553982,154.22582754135473,139.8077957325775,138.3277174957947,127.82502801778497,100.71455404767099,93.30350242379235,93.01124300034405,64.26898688979814,33.49382442482871,19.22945170481608,-8.397214311474498,-39.75806250855757,-46.81653817237402,-57.22850964489004,-83.82883617336583,-93.74291732836303,-98.78569245883136,-129.59135269078902,-155.17044382021422,-154.07696405503117,-158.43991253779524,-166.37798151579716,-154.29122355313888,-148.17398001555262,-153.62422465935967,-126.23225400531234,-74.91825903142667,-43.10247704355288,-15.733720085497387,23.705330156652185,50.724865175432484,77.60848729100331,129.55335745492866,169.08683793502564,173.1242078605464,177.10003168430853,179.47745741781375,154.40654714228194,131.73889433744145,131.2115041780455,122.31163749389935,110.00065542964516,115.99042532036408,105.93339169487739,65.05179136647328,37.54396889857014,26.71452937128629,3.3198673772460623,-14.873693845482732,-22.99930379237471,-57.81758539483502,-103.66206457984416,-117.57936292398223,-118.91678330529255,-127.50066922983898,-121.52036813901913,-116.68317608240596,-141.16499757823513,-160.20072206470306,-151.93060155158003,-148.59052394423813,-144.37991191177593,-111.08340690856087,-74.68435728758965,-50.54270949757513,-9.879787090442651,34.21205653969086,51.7261832469749,71.56477715645748,108.92436119666651,128.86317685490135,135.80558545052673,155.13946127884057,161.65549895271153,146.21618471439177,144.0445318351823,146.36564015194102,125.00199097731098,106.55621600148488,102.7833074164592,80.11682735282477,49.7196425825887,42.518403505116076,31.39037941038421,1.5965649787969678,-13.569293178523727,-23.11871795961753,-56.073880594543816,-83.0397366128267,-88.21789904747178,-106.73422973034901,-131.41540915185658,-131.13628428339175,-131.6871922194862,-149.6316515742553,-151.4688081607035,-142.34582626270046,-149.80444435515568,-143.76917099900444,-106.74912751484035,-76.64860692773327,-52.712350173001724,-8.727586718451926,28.15615241109499,44.15514149640693,74.4782905190354,109.69101772053546,116.2466320632799,121.4183920542192,144.72117862423562,152.70111538196417,147.57897962023662,154.3184598301935,145.96482472277253,113.80587799234728,101.18179953221495,101.66739111494513,77.88340500344219,51.58649475112218,38.957902117484785,10.90645728196677,-18.909552820514698,-19.562582235681333,-23.171949788616608,-48.817236350711255,-62.385302855533645,-71.27038479542182,-104.75919567388713,-132.82861999024192,-136.66101307529723,-148.52327810353958,-160.9362222107163,-145.16059373151478,-129.73390782358584,-131.55915989213497,-117.46890846810294,-94.04741697339672,-88.35051048328745,-70.5666838838764,-24.59417578208086,12.018223669572054,38.266691167183524,77.92542630803321,105.41725205043802,108.7696284396764,124.2064480856196,145.1917801796139,138.9888964156346,128.89844508562047,132.23318159282817,119.46356948911132,98.52516000947202,98.13253404021731,90.75901127610234,60.04493567219984,41.58393884322558,31.71522465969573,1.723848097996422,-22.86627013067537,-28.30559073063661,-49.96129652740903,-79.66062785493361,-84.06432688150934,-88.34527800173475,-109.42025923820681,-114.2057318363712,-110.0342125165215,-127.74517346056646,-140.8216666869336,-131.48885090394327,-130.77426863135247,-131.68962308891474,-105.19005437536893,-76.55266514419387,-60.83311386559557,-23.867398093213133,26.77700863051154,54.942130875679,79.03349281941702,110.87310345674751,118.32072353762013,114.61685030486403,134.17059828486003,148.03789839581805,136.98013575231587,136.16826267720555,141.20948906108597,122.3082288739588,104.7360524725244,100.85637330497036,74.2245529553752,36.61207945456272,27.41096131469155,23.5250697845297,4.4512494822210185,-2.89359354987056,-11.327157086288915,-52.33671812953651,-92.50169032974611,-106.4012643105403,-124.02932294298768,-140.3278442673506,-128.91813398636862,-119.91124394911708,-132.19992669799785,-132.42156931204607,-124.07297755419216,-133.72182300176146,-131.52369040469767,-96.60942553938864,-63.24436891313307,-33.48855930822609,14.666933359170642,53.064090612531544,67.11076599195815,92.3488890001891,122.8843760204553,126.06991859313787,124.05237488472132,132.4538334331499,122.13670544162659,105.4174089131524,115.54564792945662,124.97687974747893,112.02278959403216,105.09931261781014,97.01004300916293,60.722717151158605,27.435253248045502,16.167801603287053,-9.360759647061533,-44.41743500935369,-54.704645140691206,-62.42282066393493,-84.88122035884065,-91.87003659535429,-92.52407891478049,-118.28298437488029,-141.18814531457582,-140.15447537982104,-145.2091365029691,-149.79767575053603,-125.88646751814008,-103.06195479259463,-100.6321277648003,-83.67374883522818,-52.09160300853888,-31.497019120471087,0.16429901989350348,50.13719339183125,78.05056794413477,88.62871007263959,116.22142471014986,140.34144842415273,143.12920193427829,151.67276489317075,157.41404124622878,131.40018675803705,102.03101288893275,93.49575889832083,80.14526905143158,65.66525655527207,73.01437110352865,72.54558578845209,45.53753438450544,27.335300510086903,18.16685328720859,-11.8538853852339,-43.116095336500244,-60.82831941478928,-93.50696740518642,-128.9847536820241,-132.321686730409,-129.2009711561279,-141.51263954028582,-140.39133445115732,-133.19307935367766,-150.35816765485913,-164.26577447771606,-154.56802103159788,-151.91601919653507,-149.9031165433033,-118.41907482237094,-81.36043838556476,-53.244141134150944,-3.2739418837314247,54.60233179806289,81.75552189022541,100.55119950079474,130.8857142077203,144.37713230296475,146.60838819175038,162.66487885736,164.5467611841876,140.99957083099554,134.8245526160264,145.00487201156528,136.94436414894238,126.69989073051181,124.43466406351759,97.57211061159003,57.70662952135629,40.868340152902924,23.86787169927065,-9.390805377424254,-24.91521387500167,-29.882018470333637,-57.56688077291485,-84.65849136830964,-95.1608383932312,-118.2419894029881,-140.02186621122706,-128.32238529812946,-115.94844201563004,-127.04741811482513,-128.93303989972685,-121.57381377116616,-127.86265221921909,-118.5631204706579,-78.41193847194303,-44.259708308468205,-12.674360477702212,44.22660504592532,95.512153256031,117.08211265218696,138.82025688528495,158.1001911722472,149.5443190404232,142.33437300286369,155.4360216096842,154.8351382724378,143.40483640620542,149.21473045226415,145.3125790668562,114.0212900602853,92.52048207663032,82.35470330432705,54.34071126951772,28.470272115511513,16.115103385520214,-18.312666105447367,-65.28764119911828,-84.62567422044576,-94.89908030496993,-116.2642957865524,-122.9401395110337,-123.06104091567548,-145.58447931511526,-163.77236440280862,-159.44602276366498,-166.5443447685929,-182.11900660418874,-174.2116211788204,-162.3108479268001,-159.57883113213808,-131.64166765883033,-85.1704821319685,-55.62133824194901,-24.154260835265585,21.811018927576484,48.82047167790942,64.89957703167815,102.78456527281251,138.80045811361035,152.32775909686984,168.18134078176317,178.7379882131069,158.81913289760328,139.82455584534452,143.36796478168645,134.88164333696335,114.02540097316822,109.94811912487093,100.69160127124135,72.92481847561695,62.21122047177642,59.56746434837805,27.527828456231806,-9.44922550621643,-29.684694872670853,-62.58082706203874,-98.74961252534864,-104.56286565465297,-108.08173998509146,-131.67978077656508,-141.8471896419566,-140.11809192909314,-155.6633502153372,-164.65563021810706,-152.10480662953472,-151.68234529435642,-154.49633126016337,-125.24895001938744,-88.29261553600307,-63.80322858589385,-22.054519738972242,28.28507806819853,52.42641199531056,70.58753403616868,97.3844295304007,103.62815410959122,102.91932340231412,129.00533392772024,150.67996080891803,142.50528379813125,136.54415807438653,133.85470457855095,110.07262337283905,91.13801900261322,90.95480032156631,73.93415025926444,49.14836449138974,55.21544054932891,69.18483334200513,67.05739975389116,75.29261867214699,87.68123470688693,77.31001544384182,74.97579781403232,98.68388151240431,106.72692040632778,97.00274205831961,102.65972502290582,102.73941275853946,80.08534507059822,67.69522480638575,59.39070719638675,24.18756277451322,-8.167299042313036,-17.16851811754375,-40.26972621402815,-75.13857489790095,-88.53466801085659,-104.16065435764997,-139.52123420563643,-160.34517525291201,-171.08672757911813,-201.80435974894579,-224.5981770583195,-219.93738499275526,-224.93361298977595,-239.75142497989384,-232.9507757880689,-228.9682559090702,-248.45215755491154,-254.99753547932698,-245.2661381374873,-247.2624614430709,-234.2220609361091,-183.74396393399243,-131.35055800614288,-82.08890558017353,-12.19170705660215,50.12971035471015,84.7441193865094,128.22923021102864,182.7281898170796,215.35797061929097,240.98171021067893,270.2296678887987,266.370130579324,234.6551637459042,214.93231396063115,192.4471641237223,151.3747491762625,124.0171081099804,105.51767911458698,62.03323778963315,16.74011330845533,-9.508870891727632,-47.99397159694995,-93.07288446222523,-108.771610502472,-117.60617515789107,-144.36614348703074,-161.64563985476457,-172.40115033834132,-205.30244928256195,-233.42193136990775,-236.73799762456173,-253.50130840684096,-285.87788472095497,-296.7698993359346,-294.12334143976284,-282.82083129831017,-227.29967593491966,-141.76288133078316,-75.84729275529487,-17.54776149206821,55.328712609562885,120.02068736188879,182.5235835196042,264.43417063118,327.5546772859026,346.90281666071144,362.10843088123613,381.87449191881205,381.55408636757625,380.0689304661659,386.04375533386025,363.20619983862514,317.3833257181018,281.61412295289665,235.50070076473523,165.12693905257967,106.32183741748257,59.47027108909225,-1.7278319790593244,-51.28843661961641,-71.60854631417136,-99.03174058754757,-134.70998819737557,-151.63516243531672,-175.87806180442774,-223.69743039206094,-255.31098854265542,-268.7452604036008,-296.32967452342007,-319.7305634646858,-323.74998838346403,-337.2972831046452,-344.62356194768654,-302.46015241961436,-232.99782255025806,-164.67549225042904,-80.90901232780674,1.1733839829629886,49.43998952463791,96.5839992938157,166.2675901757068,221.30582147139683,257.30848535098687,300.13832520678125,328.24465766444274,333.065052833569,354.2811840790338,382.72382109169956,374.3280601795185,344.7412290902388,316.8992608749526,271.13081509815794,219.88657121761105,192.7811746093448,159.7602565814906,98.53253819816169,45.84969874880828,7.72241951831109,-42.004795154018296,-81.79690758656935,-97.50080846682896,-127.77510009941584,-173.4021549894132,-200.74191341244756,-227.2892791315179,-266.72923087739446,-283.3938377858083,-280.73284465627546,-292.4581297916254,-294.66276496868886,-263.0770971853754,-226.65098551175242,-185.93416502358954,-118.08537204294544,-53.48308901291806,-12.962903517340115,36.4236436263536,90.78648056933035,118.64738128373422,142.59468595875632,177.9459842830249,190.15847860751546,184.4791037873932,196.49295237538004,209.25075382472997,207.2614876074701,216.34827454286653,220.4379139739807,181.24813952608244,128.6295517826535,97.19378328373651,66.6008840171999,39.53295274510073,35.80419954222924,21.079776519107682,-23.090015215932908,-54.514554251257124,-68.37512494726822,-95.20004099196322,-117.84950407687298,-126.4595344042938,-157.18811331372063,-201.88859178567452,-221.8309328119018,-234.45621789924593,-252.011434855565,-236.26337664899563,-192.5143627614429,-160.10101666606468,-121.82322839181816,-63.03916964843715,-19.090665763545907,14.162339927707638,67.59011884827285,112.61836436365878,127.0423327184455,145.35713300969772,166.69210276133919,160.51194457076622,153.15739642403426,169.3471703459772,179.24810021521984,181.19390259619647,195.13886621944275,187.16463755225834,138.68952376510302,94.70817236589289,67.33911009261564,31.782914136197274,4.874925572354592,-4.282294468229347,-31.315931896175695,-70.15483598556156,-85.72226282024096,-101.08679534463775,-136.7674075050348,-158.70129375104725,-167.232648922118,-193.84678271716328,-218.1755190672487,-224.19329383905585,-242.78744615157757,-261.5254062269215,-238.56454487335245,-196.11202002215614,-160.91729938597427,-109.25712941228085,-51.49103918324451,-22.743559166936784,2.3074209209285304,46.13391149534616,78.49523614943445,104.74189903414913,152.50575026004032,187.30454607574296,183.04657669517167,176.17160666007368,173.93791708081156,155.41031806404175,146.9823819924783,