-5.954364483404518,-6.206834052139289,0.6110869810981567,-4.52825659734456,-14.57322268361867,-7.413387592137319,6.269208463221923,15.772572213489871,32.09865256050664,44.00598097333098,32.2208015533904,15.414657656673809,11.324138056040248,5.934017229789414,0.4411874651827823,9.143693414246219,16.267223215539644,11.781110157019704,17.492556220495207,31.3668910112995,29.6091809780351,21.577848369722375,20.36776970041737,11.169019331692713,-1.0673443415918906,5.871357579625441,19.64243310372663,22.860325785713528,26.21257932246197,25.359068149424253,6.1254836737777065,-10.187706419863938,-5.068959053718884,4.2445672627662905,11.331753115437984,23.376168258539415,25.046336395932954,12.292127538334755,10.919179573981005,21.050022867384154,20.83867994686729,17.62645105401373,21.080893324384427,17.25260097178514,11.00609964890414,18.899969242174524,25.751838952435378,20.074826836767627,21.092333664249807,28.22814014157911,21.779645265322834,11.349313090764047,10.079970167941717,7.4006681717003415,8.683219607881298,26.836258742480645,39.60844268324093,30.49827173018335,21.345336227074,19.579251600667714,13.227470331490538,14.156310908121602,26.588280118674934,26.079935818109906,16.222532539944282,20.984949859556863,28.083975914621853,22.91497031273235,20.787222180796853,20.207284165954505,7.838429476056458,3.168628963024377,19.475146208091683,31.834126659448415,31.974598480922,35.493729017538925,33.00275623620582,16.369689430796424,8.650375459797765,14.286674481195206,15.521942728141573,20.471040694848533,34.35531823161646,31.79615159310478,11.140484548043402,-1.8133921520635168,-7.099600051286701,-9.486881330739044,5.86159582817334,27.739816554624635,28.915675786132034,19.834931215619353,16.239314859472326,7.175181838205055,-0.642715384658155,10.362457536448673,21.762694972667752,17.003766039549433,13.669809872863619,14.333717889789408,6.277839285770589,5.078436566644086,20.09513287420601,27.128201404121743,21.889250707546594,22.273423885839723,19.124785280165263,4.288009972448263,-0.42705920104223316,6.4320710458100425,4.781353056976705,4.231619711834664,14.371490923911958,13.959536911115233,3.9602257833153596,7.239984532056731,14.34252485761426,12.683035842480486,16.907761990226042,22.12246505742773,9.676788772414193,-3.756330391279596,-1.5209623067644493,-0.42022938788138625,-3.0084603544346957,4.117397043538887,5.611672800062747,-9.93240458595199,-20.058140797734872,-18.751705091525437,-19.43964527409719,-11.00472676172423,10.907488162968866,18.263620877301896,6.191467779444477,-1.3458456881995091,-4.303985884567289,-7.516086264039264,5.14246415016701,24.886661561022734,24.587919685708144,14.617137470124861,12.134512193789211,6.187513147325738,2.5099354171330033,17.96681998880018,32.0803643439353,25.13927289658676,14.21171277873313,5.674501991340029,-8.845085779829104,-12.118659769666856,3.0121325180805734,7.547701310910192,-3.101287474197583,-4.627458263347896,-1.442298258197556,-4.014187783715627,2.0241524429682856,10.714307455765562,0.8628324658000883,-12.648277644136591,-11.795462475614087,-10.249610418968366,-8.716017711230037,5.8908424436509925,15.613061068788742,4.321764537267963,-7.923946513584839,-12.729283680362219,-20.371545048959494,-18.55433390440524,-2.7301868905573388,1.0834509546806326,-9.019359332608518,-11.29600752068044,-12.68557793093404,-23.411399812361516,-26.222810714810652,-19.646036703914675,-19.713675235696407,-15.987008073746697,-0.9930054729188322,1.558382736776853,-11.096248800320721,-16.39212499057434,-17.975208765965565,-23.92263630936405,-18.120132914759317,-4.4562835230721625,-5.016114494795341,-9.621505548619421,-5.149893429422453,-8.687385662550106,-19.152773195818988,-15.714520114345776,-8.798344684487322,-12.326384221887498,-10.963332582021959,-5.265246653392219,-12.363658030608406,-17.723536633991984,-6.065310265529027,1.4847651456433955,-3.106559333549281,-1.8479002059648322,0.09253575096160971,-6.645467417791917,-3.917334416099171,8.64038220248098,8.87484633487762,3.2296420539265878,4.403711756222496,-1.334135066787176,-11.869961878432521,-7.16831603489707,2.8371943921245366,1.3074609828736632,-2.945379224092864,-10.893389219447975,-33.1198537981613,-51.01659941835178,-49.27153476846813,-47.499405416923196,-51.14471890758534,-43.336204692021695,-34.537325576707545,-40.42107767559657,-47.47882507657724,-54.98292424124833,-76.71523555308195,-93.48505391112377,-86.36169096192766,-76.35708714605342,-74.68409166963198,-66.87596074241927,-58.10545506214332,-54.563975598728135,-36.292447429826126,-6.280933656565891,7.02136561493441,8.872199200300354,16.935731632986723,19.584645977918314,16.404975102319227,26.110051088110648,38.82229519416187,41.99752371466895,55.393160317981966,80.32984770787807,91.31856646367464,92.97764613813288,100.76648244297277,103.78390451266938,105.4494126454633,124.1477740230258,142.81679245742797,140.78480116325883,133.68847342174632,126.50778702759406,106.14223803214138,87.82087190873197,84.91247192885385,76.172591449923,58.63858480894815,52.462858124114796,45.10975566329378,20.426691620584464,0.0029512203273664994,-8.601013986618705,-23.76944117643011,-36.94488479849139,-37.80855507856137,-49.230277298727906,-70.43018277016992,-68.92908091129608,-46.99497573859078,-21.986504804834844,17.976641762918447,67.8310072950765,98.38764255493024,113.53716355550543,124.22288392585028,109.03724192239443,68.5351495887496,35.157698620877404,10.299224920970424,-15.772895780715594,-23.520244489324746,-15.13659624328285,-19.376421930166856,-27.308055841506885,-19.457456374149828,-11.063184779151756,-0.7729963912371445,35.51544635326686,80.00230038990142,99.7645005064671,100.74833872730055,83.5478049844587,33.98034144601657,-16.189034593235668,-28.056296669919227,-20.172755609679903,-9.796707093203318,18.100366300314626,50.06228832382258,62.81713505760467,72.23900201777882,79.1512787198153,55.283622207084086,15.588486567530957,-10.256815424267456,-44.27986156545613,-99.94523225021014,-147.02686392571195,-180.70673618070396,-210.25037593246844,-210.63210239549835,-184.33328276535622,-172.82858169795213,-164.86666434956774,-122.91586815454644,-65.7441927575551,-22.273377226287472,0.12447766549903871,-27.81523559486527,-112.81391949080864,-189.76759506817288,-211.60068785501028,-202.26173134881188,-182.0364061651732,-155.80770999927591,-150.29731209318618,-161.02288744021814,-146.5301160295887,-118.05495363967049,-114.11215487246257,-117.48757415871012,-108.84458888357075,-108.17987705202655,-105.98266412624378,-79.90991262276657,-59.77936859047219,-62.82401109967197,-56.462234034608315,-42.74715149242241,-47.75163324165653,-46.78979446142686,-22.680737107874446,-6.1408901539161596,5.874871991065647,38.92745614172092,66.83733583161987,69.56915763832592,74.85224512525791,80.00694390868526,59.45442484478133,36.180183401649785,28.67569655601734,9.54140339497798,-17.91257714633361,-24.588727324322143,-26.76521323074605,-36.80272226840163,-26.107355303153,-2.2609517768137284,0.30446738658676376,-3.656018139433566,2.5293651591218484,-2.3729465386141873,-7.677912752092105,15.607787291709094,42.56766890075889,48.693864290649316,53.49333420765327,51.80696257362517,26.56241100226181,12.531141331227381,32.092854875115954,51.33692620100368,61.25723621838235,83.616304906762,105.88527811775754,121.05893127879816,153.0688590573854,180.32849640625028,160.51415377532453,121.5683162760215,102.09572476795002,86.27122849136485,72.97534807473305,78.253399659552,72.66377909584557,41.9049174955901,28.44409535369369,37.588382637552854,34.1781006052591,31.78057555039505,48.812370403538516,55.64707617906513,52.96085125344216,71.00142406264807,87.61027893491985,79.71771756323936,76.060557848538,77.97637081981925,59.02446555837824,43.08246634088755,52.2436683004209,56.4291745803006,53.247710904894525,68.92170774471455,82.24886057990443,74.70796777151561,75.78418792117897,84.26816098363166,70.75593796302832,53.956267296700794,52.4420385851189,40.39367500688539,24.245081896075636,36.963475996220396,56.74274061804692,56.97612196617388,60.89018740323695,67.68771483989904,50.59906918936852,31.754444867936904,31.228401442139372,16.851000420190964,-13.850476018722585,-27.461272847089045,-36.37097703281639,-57.97677382913276,-63.156329693170974,-51.13596609149525,-54.648545228404686,-59.93288617949112,-48.812059884704844,-50.1176649787556,-63.61482871885029,-56.74752475797433,-46.098760262761914,-52.3356369447249,-47.26243080364206,-30.760797285737453,-34.13874252048955,-41.04953108477767,-33.19007495501068,-38.47630661656012,-51.69252399740005,-36.12203241761608,-11.471146885256015,-7.27537374227606,-2.521474350467344,2.545981596765479,-14.94499605924219,-25.51876641026791,-5.278798478628056,8.927206483509584,5.432746426222016,9.54191552034698,6.423873178196732,-15.707805123918607,-20.386996082449986,-5.1402922226017935,-3.3262211664310044,-1.4726893491886992,15.430581521845419,16.3674000791711,3.7120182652672074,11.003708655023711,20.521747300597223,10.371741635028725,6.389647536909568,9.328625133428874,-4.838620608527328,-12.354869685070494,5.168292448808822,12.507430431769784,3.9800049250167935,9.75630376161664,16.495531911130875,7.939451610864295,11.397282740647487,23.46139360654452,12.609677141129465,-0.45345288904488834,6.633469298474454,3.7709213086717255,-10.668529360785964,-4.22028943490859,7.294985993151078,2.7474485527638954,6.965312409590254,17.09434285130018,3.633226100841175,-11.063638983432536,-3.1577890537875977,-2.1328206488916397,-13.452406922647484,-9.301519473638757,-5.0194902773499575,-18.352564984134414,-19.259289979907138,-5.6407334649566545,-9.217494710133966,-15.413425626937858,-5.844972687192682,-9.072850545675108,-23.93252233319004,-16.83931914385434,-4.337655384048209,-10.868170775880563,-13.079544754596817,-9.555259553798761,-24.59519855329491,-34.61093117538419,-18.729322153827315,-10.016996107016867,-14.821361670402752,-6.6345394998903355,-2.5348723507341875,-17.852100715393682,-20.222482422547507,-8.7266060559617,-15.463585222513414,-25.12080390033908,-18.730764414165588,-24.639301961949094,-42.18708369482708,-38.26719606871265,-29.956920594071978,-39.51656668809836,-37.64684157567906,-21.16155388061982,-21.911828909802974,-25.726529662142074,-14.257179422304079,-16.846026302907994,-33.21764017844297,-29.796189954445673,-22.282154652811954,-31.788764251256566,-29.608731623765735,-12.666956340450106,-11.508888394643952,-12.30930596287787,1.2829220789228382,0.09773940188661356,-12.724984627674145,-2.32609305199062,12.469208130904665,5.39988575584136,0.8074488090587874,1.0941499407116142,-18.2365895723311,-33.80558791972475,-23.029204014525035,-17.64591553800619,-24.649370554836743,-15.694781308587046,-6.954902247072626,-18.937610513181582,-21.962118803167115,-12.248812798315196,-21.50904833127668,-33.84273485671021,-25.147920791810037,-21.645707423840207,-26.911542306144753,-12.260136945505334,3.3922381245204245,-3.6329517353126732,-4.556888105669881,5.917934099375701,-0.9949459029930496,-9.092082808935405,1.5523848118782855,2.233299542253395,-8.741225921553626,-0.8981251157037198,8.004462163306863,-4.342230550200381,-10.086054578339558,-6.1557440791068805,-19.305775356238055,-27.26945028440352,-9.161021969190855,-0.3760293535280575,-7.9491530498941065,-1.8265230258949052,2.84712987470039,-9.79228040109805,-6.555945753031429,12.085764564076799,7.759011282795259,-5.9756719773550255,-2.2647237375662703,-3.0273217547236593,-10.09252264990426,4.273522067836239,18.209944089940432,5.66206415056543,-1.5916672150564704,7.160704675537623,3.6109116109271997,-0.43256889123689457,11.174993004060394,8.691552807769098,-9.291037655519101,-9.243396571661174,-3.783778433114749,-13.515783928227473,-11.468988743531925,4.912197259517768,4.464290294824448,1.3832764297387576,14.138852142061264,13.021640395432348,-2.3886751705869553,2.7361993432791483,14.93847486028605,11.099889318110144,12.62029385070494,17.627134446747334,-0.15946049266431928,-15.459070449009863,-1.4195125725922457,12.033719426910519,13.810622562088334,25.95120860181245,31.378648285464998,13.641265992779513,5.151692953132684,11.048772003022018,2.4118057859388897,-3.0026835402752114,16.11463222033154,26.670571970120008,17.829633418178368,16.959389613014658,13.369704364438316,-5.692925244068873,-6.934190224805832,10.353273164753226,6.997998417076115,-6.003995601465093,-1.264717005752126,1.1006877998280395,-2.6994129784287964,12.09430269636352,24.67992920985655,11.211777282201716,3.9292454574859383,13.886247325055493,11.189962668757605,5.41462818896327,15.502302524520179,15.87384890654506,4.597769563791109,11.74743526454248,21.732348156069165,11.962915176416189,8.44524058842975,16.02355428749329,6.052312072782609,-7.806258874781215,-2.4894648207223122,0.8597378893544811,-0.035008603026232876,18.019293340372496,31.694445290492467,16.723581890015875,5.07215005935832,8.524937288284885,1.1524569831553917,-5.396033100247376,4.000028095623817,0.7287937926575578,-12.823940807748075,-1.0079137637875348,18.115878285786934,16.463605184064022,18.706695593264982,26.923969224552728,10.716288059286335,-8.53208736616672,-1.9502645572065695,3.914255637882112,2.060453434230275,17.28309643305626,27.095938935897927,7.072704998488444,-6.690274324774338,2.0813960474243185,5.378613286566167,9.92838987341312,26.975314785296668,23.674075783226385,0.6817028820360811,-1.1730895568188702,8.509939146455883,2.90968566489509,1.1797939270963451,4.966745716296234,-11.137688596412175,-23.701342815107353,-6.727175626251508,7.266244050133451,6.198617343401665,15.607837095103648,19.58337517359886,-0.10291964481552895,-9.225531272049942,1.073796482192635,0.6954391678007945,0.901434531888928,17.860364198636333,20.19053163043545,3.9739982396838,2.6740559718143566,5.895487105025908,-4.080572584429496,0.9651864764657225,20.0935449479179,15.672045846671853,-0.4985125542830593,-3.5868202261290714,-12.56015496374209,-23.262044941361808,-6.834660132049527,12.74323192650408,6.723812574560527,1.6659761683292016,4.962034597732893,-8.68362992429612,-19.771889600637024,-5.867072575341551,2.587953310544925,-0.24725899322950928,13.435321287783903,23.55825100205646,8.609505769267331,2.5756017594817235,11.827698373766012,4.268826661237117,-6.011421491277111,1.2040545298986096,-1.74561940122197,-15.364196585625267,-6.753419933764728,7.139877133346147,-0.3608424854379937,-4.040487528380144,2.1976240731070606,-9.050087899585085,-20.47360565026609,-9.244353009290709,-4.398671779072122,-11.738539795118331,-0.8022392230574251,12.80703614230402,4.344841184725793,0.08533690710827943,6.2943250758598275,-4.13426796072209,-13.494016678426878,-0.237515330314638,3.110338738138406,-11.080242521429284,-8.664271116548683,1.2985886573029375,-3.324454001785929,-1.501768230034065,5.22479075349892,-11.24832323669884,-27.161248529050372,-14.230202291784398,-2.41300524241413,-5.073789605625807,1.0538533294006909,3.278620949186851,-12.663232854445145,-15.672775456763617,-3.8160489747622823,-9.705026206958035,-18.162271717325147,-7.7744398777016785,-8.0523394267932,-22.55704100022199,-17.660573624514775,-6.359987420174289,-11.89486335134968,-11.727222677541029,-6.543101886179073,-23.655185883094724,-37.89716086856286,-21.641378160500736,23.319955980224336,26.554543404648186,48.2217006479191,66.05359608172077,62.51578829298013,59.63226830015777,58.82412755388013,44.72386298719826,36.29128067772484,44.21140668344667,45.295888503473364,43.67315751061495,59.76033248127918,74.67809180919897,74.56139115107877,79.61611461893341,85.84774475253695,76.29844051212723,71.66662715324902,82.79965872618446,84.87243400479757,80.77492116613205,90.88717104352892,97.63261739170792,90.27688029716668,92.34439713912084,99.04727886568999,89.5336184177846,83.35058058756826,93.20324644058383,95.60953275654435,93.02337043731883,103.96260432753922,108.81095891256459,96.41941122177592,93.69338994209637,101.2832986891176,98.39874903302524,98.01594098289026,107.49996920967047,102.98378048608772,90.01854067856442,92.84442654279304,96.57720958965331,88.64303585000565,88.80073823283588,91.92750318183434,79.10957804635095,70.2372450335252,77.991292369577,79.69241887857821,76.43551492932727,83.64241313005401,82.00293598214323,63.80511183539558,57.49361182637676,64.22652889643231,65.1423223075926,72.53520892487498,89.04061914046257,86.91863232327043,70.09600889590348,63.417773682806484,57.408487068243986,46.57803617831691,52.741494910610704,66.94458098531386,63.955769383681364,58.13164474422311,59.87361588437713,49.63193103417489,35.98356260674488,40.47761681761825,45.735785205527975,41.697568305925984,48.833324989884815,58.92131248616144,49.7387848369128,38.78435547091199,39.556943124196735,33.568381624672305,26.89143513696071,37.59448823408733,43.04729590763019,29.984980279335964,24.729912356874255,26.235250996278737,14.294216668178137,7.408951741690528,15.519823263974356,11.421752202611852,-1.8895195275003003,-1.0395850048277544,-1.4289760459064738,-12.181818873729327,-7.693018788707682,6.8697583423822515,4.605620498719723,-1.4920304366370474,0.9835229972483548,-8.909902918903052,-24.978680314019357,-20.98699086579124,-11.602690006543474,-12.51706826678463,-6.045014213627261,0.7209926865195064,-14.667014071414838,-29.955411816226224,-25.661808342989374,-24.343109149238806,-26.852605732644275,-15.088863377077372,-8.09151131926256,-17.115766145759174,-17.091777870767647,-12.280913776209204,-25.232404167842812,-35.51257000837653,-26.385630352969763,-20.426713497228153,-18.254270558213722,-4.846552403315833,-0.8464450146167493,-14.839985736845714,-17.998455967752648,-10.470761694511399,-13.724804125346818,-14.981526755307925,-5.846558745412998,-7.394861362823621,-14.64203501647114,-8.821632059294188,-7.815479313901513,-20.855686302479032,-22.4431293158107,-14.039714591356141,-15.940346248226291,-14.659679158884094,-4.0299421712596715,-6.990868514097601,-15.854590986817417,-8.378509007863938,-2.065223003872413,-8.116204130548804,-5.435858679544774,0.590959551842793,-8.11146690026452,-12.010279066065635,-2.132531333286969,-2.6362161104945723,-8.839565707494948,-1.9634821631267876,0.46655082398561665,-8.95532327857301,-7.423818394030276,-1.844758420697569,-12.177697681645544,-20.240729450970825,-16.355008078365685,-22.170931070161117,-30.759671247151704,-21.881861669600188,-13.558918015988095,-15.720394123505649,-8.756225868147746,-2.8965789591477287,-18.10829744377434,-31.212930076990723,-27.549639880339527,-26.44940891013259,-22.128358514532962,-1.7935379246407974,7.5087916513561055,-5.229451403773275,-12.9068881059348,-16.100386494353632,-28.848988208635106,-29.893424248176647,-13.549318661294931,-9.46684677582519,-16.90258543236171,-17.24477627915804,-23.925570813819423,-37.91320435817371,-30.851578469155182,-10.548967514030965,-6.316261726829386,-9.603460424548844,-11.675610201751928,-27.587225969050802,-43.2891441792452,-35.03405762573724,-23.286452328013944,-25.351346153472804,-23.87304860431521,-21.762805230865705,-34.300451823048064,-42.55445537155833,-36.098744336641204,-36.24452073234774,-39.315789223110194,-28.678467363804906,-23.578404695164473,-33.508382820834726,-33.24152360895225,-23.634260377833932,-23.702903622066053,-20.840887908430727,-11.910425955373508,-21.485491325192903,-39.3173268242918,-38.49636895632836,-34.598849864334404,-40.29744948351287,-36.08492766179127,-27.071099924483438,-30.89704606244668,-29.199265958985748,-15.069852743655689,-15.630657233224618,-27.337837074698495,-26.975834182277723,-27.138471908062893,-34.76987008606269,-28.111936995720033,-15.315545064200844,-17.866775424290122,-16.349710019315932,4.2197418176060095,30.143891859055095,77.12916408990999,168.5765389590311,273.77268694249483,353.8954747990611,397.32966820374986,376.07840017412957,276.7708609523904,155.34116440007918,66.71018029392009,12.286399885590061,-6.707175172078667,4.7222279829911615,1.6048264951921056,-32.402295606428105,-61.63401219981779,-80.17312518534463,-107.2485403078062,-127.67592758923891,-130.98347586588096,-134.25496957255643,-128.2961054403677,-99.12902340973115,-77.06358573654683,-82.05380051117783,-93.1940931138993,-107.27819496815263,-131.95412512126606,-143.2422032868442,-132.59530854147025,-126.52876153331064,-126.0842622580133,-119.22262153375354,-123.29820645089019,-136.67437220764995,-129.0312346782993,-108.13609431259073,-97.65695111202892,-85.88742732552436,-71.74894839572488,-74.71637670610333,-77.96354642724141,-59.93473565139875,-41.6253452164136,-32.10523163180303,-14.165932148108336,-1.0574298545181677,-7.122830444554463,-5.631417440671212,11.834012620089933,23.40639555084562,38.26098356000182,67.85761328837674,84.36210978486838,81.41246609820266,84.05006426189372,84.3297795623141,69.35907118670794,62.51790151547171,66.14725126915299,57.624022657925366,51.35153338532267,63.024794971642145,67.71668002082949,61.873010736260795,68.77078684246189,75.72426797043839,67.78370823579087,65.79053720213976,68.98372227953034,57.94599271055891,51.20696027858482,60.91268687853969,56.863542538749215,34.66070338422813,20.236965395893076,7.903831190216218,-8.374759275851845,-5.209466146236706,9.466766180257562,6.627692938590349,0.6853583097717098,6.003909968845747,1.3787872546640512,-7.661757702707423,2.624348709752579,12.914308017705597,4.531620497434934,-2.2956810159889773,-6.1419162855046165,-20.678801660583773,-24.02060495895612,-7.77251951583663,-5.905972049119585,-20.259545894571747,-21.842082299776784,-18.539054471847678,-21.782889099955213,-13.085376017195184,0.7172180577653764,3.8139256689907963,29.242589623552043,91.59162263748172,139.4405472953758,143.20104760614984,118.36623330982462,70.17896346760493,22.8526270694509,24.554186803439812,62.25076771456338,81.4669003735234,79.88452069560384,77.2195663556013,62.60564230068695,38.66362309011104,23.11167555972221,1.2537079886745772,-36.81349087436231,-65.53380500166062,-81.8442325837981,-105.55246453698942,-122.87773547779312,-117.12225153207994,-104.79757322220244,-90.4703573663188,-65.17463206831036,-45.321259859563256,-36.86992705940071,-15.30194862993108,16.370143280711012,32.652474360541184,39.85345059257852,45.65821985592776,34.021626968463224,17.23603976670175,22.54390290017118,32.49673555738426,25.954458020232575,17.937677038977334,7.6548658160620615,-18.686553222572115,-34.85157305271774,-18.03829029417094,7.227734455217277,28.29160533651529,55.40310960100674,67.27552429657992,47.434713876046715,26.264693377302937,18.42005477728604,7.165113126815099,1.587922297552004,12.485113220319992,16.460401052631884,9.12586338625517,9.011365228040939,1.6875166091486116,-27.012281428067027,-55.14547409654032,-80.04243551783209,-115.95449364590614,-137.66234885454165,-121.84537661756623,-88.43590679402206,-45.622646599219095,12.709837170838865,56.58511560785784,65.71548956010695,69.75566354567391,79.41889062824933,75.08014434711929,69.26406168685284,76.56726631309736,73.62457939722594,55.16748561521193,41.44055558323687,23.23363668398547,-9.559510018816006,-33.02717082960161,-40.68605434096286,-46.46180440663773,-34.89954046395307,4.227776448553977,42.47474416479613,66.4024502027352,83.1608589334053,77.89171199450844,48.82260668534164,28.292478197916914,20.967537946896268,6.916086629158703,-4.029264378891565,-4.948838797937051,-18.57623427442438,-43.16846513322459,-57.45186163405833,-73.24434511698726,-100.70270235921089,-116.29390672440839,-114.15649100012594,-109.6179870479265,-94.46917076633176,-66.40997626867713,-51.691792293263575,-49.42436465903236,-34.79205718832662,-16.672204886246394,-11.644171435557952,-10.72483047963324,-16.996297065934804,-38.0933523814048,-48.615877408822335,-36.417557757523326,-30.272693841645363,-38.092808692233575,-43.165628626991776,-53.33771451375026,-71.11702167779033,-73.17295363026544,-64.49331524222477,-66.93166786901202,-65.97875912322209,-50.47430159617899,-44.54109451433823,-52.048385217955925,-53.23747725336678,-53.807757963620126,-57.8484336902792,-44.25560789331598,-18.736471784268307,-7.875991937188619,-3.151719732557937,9.111480351455617,14.249105894954655,14.113789519738813,24.195139255875045,28.576432930987437,16.39978049437898,10.405848348844419,12.415643200534303,4.548991211008101,0.4549293638829267,10.5349753143996,11.873094449293923,3.7179994703414945,5.269184369255157,2.2380622784682283,-16.76658166663775,-26.852477349795603,-24.236740970247865,-28.161779535902934,-25.820104143248567,-6.978734886220444,1.4746631142611877,-5.212128461510121,-4.346717804221349,-2.0356512628671224,-6.607798332209826,-0.06339943011313487,11.987360704829856,9.472040067889926,11.33629761782862,36.653435439384445,66.69262388750845,90.51559726983349,111.94792195679635,115.41655653506523,97.98381942786743,88.26924286483924,88.00149703498582,74.15196178443834,57.6276361015844,53.82202315412071,48.5148433631455,50.38137130111325,88.85802142600966,152.7846266027518,215.1355107257712,269.1805343490619,291.33318637090696,258.48801902877796,206.1322423491398,178.9509895118201,170.5038575337239,166.77291756456208,164.64657577860393,141.25701721308974,90.20444913966489,44.15903966484707,12.78505106420212,-18.546230676431502,-33.41829411320875,-19.12040928387259,-2.1814303937846313,6.661619511374874,18.35944197622618,18.877820984674894,0.3737609885205613,-13.137548628405852,-20.061673468965346,-39.07442243714651,-55.32503974701067,-53.161281953322884,-52.21600006813902,-58.25389765212958,-58.15927009302705,-63.57408990179058,-79.26046386603308,-79.72820303511104,-65.86226690574446,-62.04459712550159,-62.61750332079299,-61.00036642756935,-72.68169505236321,-86.94922811465005,-81.9745221113786,-75.84641696893978,-85.35778550014044,-94.08156355999418,-101.80643394812878,-120.6842359277123,-133.2820005353323,-132.15480012570941,-141.5195559137084,-159.555147719096,-165.2057450002703,-170.37755851816692,-185.92793971147077,-194.3524126502005,-198.52287424896153,-213.21403473170025,-219.56131720667696,-205.87181349376922,-193.03171280049784,-179.58158096172656,-147.77347023837865,-111.98099247495072,-84.049051594719,-48.701405392168894,-12.76108900745211,4.000128205071125,16.110569463504792,35.058614969079414,44.270874032328294,50.580790957565746,73.68320249891443,95.0262339329627,96.44525711308663,93.57811022294445,89.05683086189549,73.89337121383856,66.43982561312535,72.57643168421008,63.930823887069984,40.35654851419979,29.123851651922564,25.76074561612564,17.480069850553427,15.07388398164392,12.18732442674144,-7.839421749133841,-24.246366948542835,-17.841957834479174,-8.986797446217798,-4.736969403543586,10.899407803940637,28.025332084365537,36.45376724288924,56.74359602464997,90.0981707971068,115.47956178778122,141.13469649430647,175.22569810205772,193.3351714822154,190.96238262206685,188.16453237896968,179.42499318698555,161.5794230343477,161.13858775353071,180.89897624040634,200.55336950806722,227.63112963686353,263.55051564965936,274.4555623469447,250.0562367301796,209.30032627598044,149.64074757219117,74.05393583634162,14.863182001080153,-24.104126445712257,-66.55283345575147,-104.57013663311365,-126.15913751423423,-149.84248954210446,-175.2101442415698,-181.3811382027713,-179.25689234149874,-182.31809389789436,-172.3253173309254,-146.6247053855569,-121.52215650979184,-86.3577322014394,-34.45280706560081,7.18252398429024,31.62938129580042,57.674995066829446,79.0950988458821,89.24805206136018,107.21204621307623,128.05068953890276,129.3721438361741,126.57262002241896,136.00316789215643,136.75661966677248,123.54874365812563,110.46262618612471,82.93250407448745,34.93969491658521,-1.8796886108006383,-21.935663875919435,-48.721086598494374,-73.9744157416225,-85.3668389224519,-101.2070411574147,-118.85309497138752,-115.49391443839926,-101.71557517965203,-86.84795337990272,-48.20997155920921,9.708224398867767,53.61988912640208,80.59078709029357,96.68973485877464,89.49329836822628,71.80742645696256,70.19148631710515,70.54050133114848,55.55138498472175,43.759561174108654,39.76452141487245,29.251807884984775,24.43449829636733,30.62667532119545,20.547556033123243,-7.474253445836332,-31.23631518314761,-59.98456262658997,-102.81722299840682,-137.943738810459,-164.69187065206708,-200.04051109157513,-227.03033522445418,-231.56989884892045,-235.80780996292702,-244.23652381883747,-239.96670047268466,-234.18944921937168,-237.67707712577445,-231.5775203938436,-218.7533970051259,-222.60251844450283,-230.48199289709015,-223.92241608548753,-215.70516173282653,-203.530981670425,-171.1932938124201,-134.1886528719004,-104.57538731766991,-65.73340637355773,-23.819589598899725,0.6906895240348119,22.62190162858446,54.71464948957725,78.5613486272011,93.87430120451997,114.0582804026615,123.44235445189373,114.38271202407,109.3016785531648,105.53991367166017,83.7175539997094,61.896636645084385,57.58002755397182,52.64769888325506,44.31137740541111,44.03600488017992,34.12079829505739,8.164508432144245,-5.842521471580885,-7.1119872510462265,-19.01186495627621,-32.76512433883708,-35.54395827531275,-41.09219534002439,-46.306225970610484,-37.888372869196246,-35.63929770742648,-49.37661785948606,-50.109139718141094,-30.029459112589656,-6.8396222067055295,23.59041151167832,60.46468799367682,81.35156625964525,94.35285205822883,123.11820029803442,152.04955679974267,165.96316915279988,181.9500233371756,197.20949073493276,193.86660764905344,187.43753329267219,187.6169120920884,171.46667579492075,143.44534640496974,131.19066513947564,126.23590841400144,115.43644513389816,116.79655881445487,129.62405025974138,134.93668722129462,150.4901480133313,192.87949213359494,232.67090928490015,251.80926409365048,257.0515923822957,228.0024433160346,151.71919381372405,60.39690633291808,-27.84167363664661,-117.05767442802608,-184.44842725626293,-214.9739987908582,-230.29366533581793,-233.3817557141253,-210.26317684761005,-180.4905411264077,-163.23182327691273,-145.67830735558596,-128.66676634820817,-123.03073728923621,-109.34624476728787,-79.3781011945388,-59.757496763966586,-51.944699382085226,-35.77372091125538,-22.766347064172706,-24.03313211494715,-22.527063968991826,-22.430982963192992,-40.987897442906,-58.30609306148247,-58.15548468552119,-60.86476209554466,-68.5309022820581,-66.32239086190374,-71.12340538645194,-93.4806363472599,-107.79998218936353,-108.35354481503381,-110.47836880594099,-103.54045595779604,-84.49892110154522,-80.80781198580115,-91.50242108446281,-89.54590763665107,-78.58544124104527,-65.92704087745935,-35.45866533442543,2.5574205303035775,21.354448429490535,33.89013444606267,57.16939608947689,75.86302877461632,88.75717348425889,109.72168031792026,124.2695048590787,121.42935008575496,120.88260745011908,122.17585813004054,104.5310477773811,78.23100506865332,57.695786609784385,31.92994462166145,7.726715120618828,0.8809916582687862,-8.193798712750842,-32.91854709072121,-52.41613077510568,-64.06298730365819,-80.15655911117119,-85.54530108956862,-76.79084820710946,-81.55597785227407,-97.46554116221013,-100.84520739106893,-102.02350420338269,-109.23865738868292,-101.90698705821626,-83.19501241359083,-71.46757072921608,-52.38465665031368,-18.292187433855847,6.160045678618697,19.05452897446289,38.227869561330216,53.831793697069756,59.454251572937274,74.84547269952832,95.95500218827726,101.86875178949035,102.26503185506455,104.08194756022625,90.03007444654162,69.46423199602765,65.72407860392775,64.86078718038202,52.652888985335,43.30096687614902,32.87504378603778,9.089594525326604,-4.952041402800868,3.414445805672665,7.341827555369094,-0.8069485229675748,-10.067303084717853,-34.52710866043864,-72.94743513661246,-90.65767468900833,-85.66921614682681,-82.96868555750616,-77.83467852283451,-65.88086428718442,-62.99602095320665,-54.831573777352304,-17.197811769797923,27.644849425221718,54.893203250018885,74.65273547068767,86.19552336144586,82.72067271624844,88.2819155207673,112.08274950488409,127.40921209853059,132.85639104555233,145.54534770875551,150.05025653851146,135.17189573211573,118.63488350314866,97.40516649207046,60.343771320185,31.171821265887367,20.43711697928348,1.7072739495341756,-25.475271349792244,-40.50911741457952,-54.33926115314354,-74.63129353629972,-81.73325706801967,-82.23309327423172,-97.3281824288305,-109.99752240699436,-106.66366040066302,-107.49491733479759,-110.49052844961035,-97.64586890916058,-84.69032431030767,-80.57015856856394,-62.12954175357237,-32.03244571980413,-10.756377699079703,13.938511814336284,47.87774190468209,67.38899423024687,76.38413648961736,96.08640899075935,112.9516613136395,116.8509452933338,126.50912978387204,136.81699868677504,128.73600170153333,117.87413541426739,115.73865497455947,104.1524114634129,88.02650198476216,86.96068019994999,85.58058376262483,70.86221136109162,59.17853901587767,46.66509892359502,19.53850533030563,-1.0961495549045512,-3.9484993376476067,-12.793193304892421,-28.48765367100045,-33.93653720676805,-40.5041932430231,-53.7057590880186,-55.23844373680357,-53.53953815175258,-67.09701817803516,-75.61763161407856,-64.13224371779506,-50.92025066145328,-35.41057007502749,-6.631888402231145,15.922905937541453,25.570576041592552,44.51820118517393,65.95219090712213,70.05916367159142,72.2802702141938,80.99794663683807,77.98872932582451,71.76935066369053,81.18800705945297,88.54164430999982,82.74259672258168,80.87564705866599,76.43269652148507,54.75626675883222,36.95499033376072,33.83313616157976,23.706968810965456,8.599264936818367,3.7530913236197705,-7.161841105959884,-30.03961076552492,-42.03539639008878,-48.09072315490011,-66.05445128045073,-78.82205017787041,-77.59385559011292,-82.30259910946302,-86.97124960778135,-75.12388395986923,-64.84235241482949,-64.39547997053164,-52.76369532415718,-33.80507238158542,-23.56728584927656,-8.144131255789798,15.547478149334749,24.91829788918856,25.92002714365754,36.38351904546906,41.399443452749004,36.54478871192293,43.30960525536773,53.77794884475266,48.345997379935135,39.56251161772708,31.18601314452058,8.101736983120073,-12.602671173328957,-9.248525547407697,-2.5461864873616795,-7.734282725688139,-11.11800431003478,-17.752991753692548,-37.10298505789222,-48.29730982553938,-46.68388717866864,-55.691837101100695,-69.72739011949862,-72.07446283198853,-79.24675614215201,-96.64378956295661,-102.43992517723099,-100.35614302195596,-102.27753731957709,-91.03423219342174,-66.11043916577404,-52.474722621436285,-44.27922521817896,-24.68234600379251,-9.50693880240139,-4.567284160343672,9.32698691866894,24.21461081316613,24.19972166583549,27.952962569247042,41.43492942748054,42.72286698721247,39.3517895473841,47.9089941065264,48.661167975043455,34.26745302935877,26.256269206444358,18.388579562629893,-3.1547182110398975,-16.96665761468325,-16.90930653463476,-26.79217187617065,-41.38333827018044,-45.612083309821045,-57.96411531786197,-82.89006562801902,-96.48984024494683,-103.5643156174222,-118.6623166494359,-122.78928754573576,-110.4468205379344,-104.1675397941913,-98.42030925267345,-78.67221704563136,-63.301118094868954,-57.04644832624346,-38.7235322374451,-17.465120132698445,-11.079118258664751,-2.4433848025981435,14.199617837354555,19.73465356873949,22.439045505703042,36.440904230314494,43.11464279416735,38.81643385758675,45.361148234914936,54.09242568430802,47.22427557573752,40.70396965719722,39.58928925838664,25.465155507040407,9.019838580047239,8.176602470541855,5.378555118646766,-7.2804695846527006,-11.989018678113704,-16.02054802784726,-33.676718176209945,-46.07638095802742,-46.4776824402107,-56.195836464158845,-68.62371305792394,-63.83219471436447,-55.55645054522259,-52.34032746291473,-38.319529977583876,-22.622323683746924,-21.807992946441182,-16.22580165323646,2.6242434350996593,9.904583002797459,7.516506352437622,17.511734669369524,30.854063230322033,39.674909877985925,57.68396896595051,70.9763556447804,58.37828557535235,42.18720393004993,39.05776467386873,31.858538872565386,24.98667739471414,31.993509332740082,31.935562850761734,16.928444619096574,10.749099352560371,9.457280868893275,-2.2820279196939213,-3.709467144852809,12.023027261096209,16.350508282470216,11.337105501208264,19.03138504959829,24.103356736475085,13.60442646645879,6.4678438378967895,0.182625262670567,-18.938244121799695,-26.358391445033273,-6.554887258200655,13.252689070994036,22.132148778768755,29.468948971046945,24.13562956249875,10.639962949868384,19.726204609433417,44.573752804548235,54.103120573805555,51.51082490427008,47.12980301004592,35.23814492794496,31.33402767396357,51.38773620200912,67.98082450910972,60.255667372750985,48.792106505327645,39.5818389058927,19.984606862273225,4.434831024362582,2.3289888517224684,-6.045720163917596,-19.370108213812877,-21.9482413159779,-27.5476111419223,-43.23636628283456,-47.49149608770026,-41.81151466761501,-46.38861087995072,-54.28981774118072,-57.991873585155275,-68.29094100062574,-73.66807592490011,-57.25765318981453,-39.1988210672327,-34.233125505157254,-26.617303728700428,-19.138578200986096,-24.571330320455978,-23.977551682836097,-6.962301830152308,5.809519587797849,16.05796935640481,38.84347578267687,55.36459021453645,53.34302602105121,53.211597200968,55.733122727733075,48.219674013104225,46.81240143425609,57.952021309500076,58.60375488321576,50.483975106481,51.49200238567383,48.50570693443487,31.53028257503501,16.542495163741965,1.6192743842934645,-21.15829997311998,-30.000019592354406,-19.096825666067886,-17.44025295456314,-30.087486217989156,-42.51333678039755,-62.24602585235969,-84.89713888388518,-84.51081878987465,-68.78118197634569,-62.40650240618378,-57.712057979578596,-47.376495357544485,-42.86010647092783,-32.63365906563896,-1.4617750198243105,27.421611373018365,37.288785466394366,45.51631259437738,54.72994469760328,55.86413024092514,63.73758549989589,81.27448010002153,85.47616214105116,79.19845017543402,79.72312053178892,75.27283863447494,60.601791341526045,54.73507244172198,51.41312534832221,31.888314794649276,10.670718341746449,-2.525772204726193,-23.104403206573625,-39.329927150988624,-31.639480162933047,-23.366939856119963,-31.10454225918275,-37.956610063655994,-48.29722550682019,-71.85651907547657,-82.40215362836622,-71.36274120273868,-66.26820459204396,-66.47026122535576,-54.937832617589265,-45.141123715047314,-39.37800379563193,-15.720794749385107,15.58211413316086,33.600061367727825,51.14032056679551,69.02982240122344,64.81719774843533,50.609547437308265,52.20932633137697,58.994154847493164,63.724283452973,78.19737945057362,84.96599038264277,66.24273885839554,48.661715177590274,48.39428695742626,47.99210501370965,47.76632114421898,51.79967066175476,38.287101259951875,9.52727186293548,-3.879154148064971,-4.93351709795758,-10.90955760335496,-12.226287539404042,-12.585891739747835,-32.21606456935582,-55.35382665084762,-60.02563956134371,-63.27609021741364,-72.96444323139126,-71.98973494246027,-69.50838903656664,-77.25257615262741,-70.26767282438442,-42.91897489594072,-23.546818302290717,-9.097101382797932,16.413463469548596,34.37790108819239,39.3049889101682,51.34477199419195,60.625191087383925,54.80697522645872,59.596355984030495,80.25232275318783,88.15114027871056,85.31434551749086,86.24163628897114,74.67152283226643,50.2585599282114,38.00740887793138,31.04594038527261,13.68379281847777,3.962565241055229,5.038219721571817,-7.0736748326592895,-25.255490064648292,-31.541044755467354,-41.164825854211415,-57.17721678052158,-59.42758765292188,-59.85604341527441,-76.70257596368744,-89.29029080120083,-88.45711443805222,-92.95138474749034,-93.91299029488597,-76.5067924031163,-62.93721943557373,-60.26084462404263,-44.814771588697184,-24.023044789454275,-16.280073788423277,-4.055561377895008,17.15729409847272,24.758080757693907,26.862348619411332,40.77338471086766,49.76236969028044,48.88873032694743,56.371595460934415,61.23017275864807,48.24513389918993,40.15665034912692,47.1177690229062,48.168802117128436,45.36305470442992,48.758369808759056,40.29548379489459,19.996086449776023,12.065708668061035,7.381316158470014,-11.083082581359573,-24.85792818665082,-27.513766196669913,-37.19696860993243,-46.01481666829865,-43.498566740354356,-50.951946376250326,-69.95141686001517,-75.6324595848542,-74.83922461613541,-81.86523413682501,-77.18894382889697,-56.9629631571577,-44.21766935454313,-32.50075197189921,-8.276026515619858,8.308646380376103,12.758109250135337,26.5869106055621,41.049206200421914,41.0167425002669,45.50955123306196,59.38938350973716,62.43550741520585,61.952766283314446,70.83121223894656,71.4772818767131,62.36853197618049,63.564821254157664,63.94437046390469,47.980031401507965,34.33329029320187,28.702815861245842,14.445275437914045,1.3826267455475776,0.6411046177871471,-9.661262380611175,-33.29380372718523,-46.405199557645886,-54.20279592949272,-70.57303370588008,-78.03566777086577,-73.98721820846302,-78.54687743238472,-78.85715190718766,-57.96382733663667,-38.67686462652895,-30.459621160573597,-15.998000025242854,-4.830503699542996,-7.8796642528145835,-2.379590227554834,15.400574545985004,24.928547986473816,36.176370366433154,60.0976211727632,72.6415748195508,69.07512954749848,70.21460472171431,67.78846783284477,50.99913945735614,40.86489447072468,40.02754112473361,28.47156013687849,18.10634772933327,23.899415060497894,23.366714516950772,8.637870403208805,-0.9384552301306378,-12.280981408939985,-36.18791102073825,-50.90076357945301,-50.66359967253146,-54.19510397522883,-53.84518956458495,-41.54811822091459,-41.80701710855142,-58.765480963643284,-68.25926977902475,-71.001439025126,-72.43470267274361,-56.032162916479784,-30.6390586213739,-23.945073835645093,-24.547607103986007,-14.07882409621233,-7.5126861506661715,-6.400175442499086,3.824139825288873,6.858148066517829,-8.260769439796139,-14.303694067458792,-4.798055632647866,-1.6490159508202222,1.8310029741732077,16.270576294125163,21.01855144442894,14.757382078374416,18.865150087152365,21.148995200536277,5.274051200200158,-7.4572670698283385,-8.581410590323621,-15.394963322974377,-20.180442379472936,-14.243904400248056,-21.178611001603418,-42.502337669340434,-51.051086415868845,-51.94243505958691,-60.31270542061514,-61.79667984260894,-57.829798745134184,-66.91728405888308,-72.19709319280443,-56.43302929157532,-40.92760875372456,-32.096617822145944,-13.643600711049658,2.846723567357321,7.215295949942538,22.64740542095835,50.655337658952945,67.37790546202878,79.38032002884695,96.00923752398182,97.63088216867749,88.3801138550722,93.08780351726901,99.67540233340262,93.25143310851911,92.51131496050724,96.93967430411988,86.15384517703004,72.83396611280116,70.1513388882482,59.222911703417786,41.2800259726712,36.880857951446444,32.36523908098713,12.58254188321068,-2.522763170286066,-9.20864906159114,-25.017288437354253,-36.968473707384696,-31.607539893465457,-29.744105982097942,-34.7886453063095,-30.02353374928162,-30.267066669728777,-47.13416218880401,-52.75344388443384,-37.744683497718285,-21.714646382216962,-1.2703792890570682,25.34144014858324,33.18050562402902,25.679664443981046,30.85121501699906,42.13761793457668,46.45763844287444,58.57163513894844,74.61698902210004,73.65034131567153,66.97946608407615,66.32076832053951,55.706982883415236,42.02078146434473,47.07569047633785,53.57481335525361,43.18189618336423,33.616345385232535,27.030499004759097,7.623313382495571,-8.826858527663763,-9.40594656390082,-16.084121374068538,-29.532019912279164,-28.507897189211118,-26.090785313586345,-37.07314883826128,-41.82876227485835,-38.57099734480265,-46.12455689009781,-52.920409771325176,-47.29616807626831,-47.538392902061844,-52.71680697397363,-45.65545254714222,-40.28668054057397,-45.84381300015072,-38.10878081182293,-14.814102268415072,1.3624670558653889,15.360767145947507,35.34851161648709,43.340543689038086,42.188988385990086,51.2117609522723,52.82020520565371,31.0593420693082,12.216385184135937,8.562515776905416,6.820794086915731,15.157050315074079,35.32605015332342,40.03799852079304,28.728395657049358,23.130517239755275,13.939089193103893,-7.080560946705582,-19.079881227801476,-23.25609789939056,-38.84423409691695,-53.54968488294002,-55.985703601238896,-62.988258997788,-71.23220924237582,-64.7899939549772,-63.118526926892834,-79.8602987610703,-90.01173405810022,-85.71945235356431,-80.15047075481932,-62.703610746679544,-32.47205681977968,-18.400951231166708,-19.03376382006206,-8.300121124580272,6.683331927801019,15.16758723168277,31.24944782004082,48.332890638391184,48.32994710368685,47.15100248786214,56.46309459477463,56.01161107340938,46.07912874655106,47.92292722397086,52.77129789076935,47.034943681334276,43.27882213172248,37.32509672631731,11.940650635872935,-14.284927756272003,-21.88441710397006,-27.7726893124504,-37.148408373290614,-37.72939692167228,-43.99399902415761,-65.2345272074349,-77.8982592644844,-78.68909965374226,-84.22985330846859,-83.1176169738603,-68.12647593857879,-61.625375886455146,-63.849833205005915,-56.30666085992303,-49.27507930706223,-48.999078745399316,-34.51622084058932,-11.370866041762621,-3.6349828644087867,0.5892228925909082,15.532675051676138,25.08724823225749,30.380684158643525,47.161384711680874,58.8325954576606,53.312051913662536,52.5108717793845,56.508610586298374,45.48035253933411,32.46510178167867,30.179849226411356,21.59786791290272,9.816091787624439,12.428419720075699,13.553510277434961,0.8382827658083096,-6.5604048224232,-10.262297847684192,-28.171750773025693,-46.020598746501726,-51.93019355979667,-62.949522948240876,-75.49007568240778,-72.49282556697648,-70.02564787715795,-79.15561697218561,-78.58965333898989,-67.48736241662446,-62.83186977537008,-54.01389395037863,-35.904085241714725,-28.29487188088418,-24.4521476764218,-4.206247447216249,16.419862503646023,23.649507380293215,33.15669951140636,42.55614525118372,40.16471317957067,44.51568609922773,62.964430799473135,71.75493865674738,70.19673127603662,73.78834891970983,69.85172474949682,53.404042281489275,46.66870259161325,44.946835242543,28.046821140726145,11.477353779659442,8.032064695497604,-0.4016725419322218,-11.659364326753956,-10.678388412416137,-15.096100856436195,-33.82295390036377,-42.95610248551175,-43.587019371974705,-55.29774670764935,-65.1595258725736,-61.64185933639026,-60.280187066151,-56.78714647711698,-36.9838053933418,-20.644099335995595,-20.494332841286383,-16.286875713723827,-7.195828084801834,-6.785979211098324,-1.3784804213204422,12.926968313795623,13.589178921907976,5.863384482274398,11.186964701497844,18.485864264109193,18.692335647703032,27.209854220616766,36.80035500660995,30.492014649020994,26.245336943598318,34.630584565141135,34.33552338522351,27.070950742195546,29.75362486692252,27.569461881979386,12.775353733792514,6.619976803084004,5.166656941879706,-9.281723143553663,-20.788357940143026,-20.229500282885702,-26.851750168786044,-34.75178264968269,-26.103669802421415,-18.80323154632135,-25.268260246926207,-26.886738048407793,-24.10981178294295,-28.5677280937101,-23.32543747816346,-3.777649312365382,5.487723108034147,7.787301015122458,23.005174105095023,38.793668610324886,45.95460527133155,59.17547017442303,70.44183352977164,64.6373760832768,61.71130846645157,72.16541875752036,75.17857812238415,72.69479962122905,79.55013161624663,79.83376430808802,66.74168094265214,62.20202120189603,63.12618360853878,51.33416005152196,38.9542242828297,32.94250176567161,17.295749136892148,2.2426718993962425,7.450368612091007,14.647518804521019,8.242784605634814,1.8009737753309991,-6.840842836366813,-24.980692122261026,-31.009254140168686,-19.95206104310261,-17.377918486475604,-21.17606843155821,-14.249787450035754,-9.782147499997123,-13.433437187647234,-7.2764081360809545,0.9506953247391143,-3.2438641633711423,0.7676172429852668,21.327400899550256,35.567626886256804,45.636243290974406,65.45522774564358,76.80752629297399,71.24530709419601,68.88273767294623,66.4078395408031,51.71936567213548,45.87903500403957,55.78820341641986,54.00881636792215,40.36137581772905,34.15713923230124,24.908799122852347,8.06735263170874,3.5214687550605164,3.038181248313727,-12.715136538296287,-24.709950249791802,-20.25025510620936,-20.893651896136777,-28.98669132313084,-31.357812388742204,-39.57790087182969,-54.37689259227341,-51.705793909116515,-38.0270070103473,-36.236646527627926,-34.50827199297567,-23.048184752196633,-17.88980599961409,-13.62494038652649,2.656711281002555,10.912670058410992,4.701512594967791,9.840979501112638,24.45819211980615,29.568409667883166,35.87267600404054,45.49348641902799,37.265104001216265,21.096215769736236,19.98434648292662,21.216912151001914,15.316411585114372,16.022280086882,13.038059150923079,-9.578256446423884,-29.825431135914876,-33.91659957086902,-40.86141929865398,-50.22165324009864,-50.84729562977118,-59.94876857562358,-80.14037712027815,-85.0078258555029,-79.08899941341441,-82.86531232834398,-81.38764476714029,-65.00931304583176,-52.5302164578918,-40.311823130656634,-16.113932753434437,-1.3471666674136245,-4.771011131874168,-0.977396465281188,11.382378443034968,16.33052334173133,25.299819791647202,40.90427949821824,41.259809913218845,33.5247262245213,37.63049291074516,38.77888118068572,28.81133770362178,25.97522950789714,23.973584047326206,8.140630799692294,-3.6034600696687464,-4.467754478058265,-14.237088960809585,-25.834498587960184,-21.491651695393223,-18.70808907729632,-28.939236797900968,-34.76491496131686,-40.40684494599388,-59.49689959357608,-72.66504509695234,-70.8950534285934,-74.44768249566266,-78.1860084946175,-64.77244647676729,-50.10729317315498,-44.66805326798955,-32.98444304440647,-20.257770282941117,-19.031507547366203,-11.616327219036968,7.671857372227206,16.74143470505897,19.24089201993791,31.97037105803957,41.31823826895451,41.19060031531913,49.43386573010777,58.150653047341024,51.56485014858778,47.74116154706552,53.291724130834545,46.88359777996588,34.785325698148355,35.362337385075776,32.803093296571475,17.582741787585757,6.568075298925357,-5.103546826361617,-28.41848604600378,-42.39518810049126,-40.594271764009676,-47.836231666079655,-62.65923012939502,-66.78272248708136,-68.6309927783698,-70.47337210836432,-56.957320326952,-41.19823883154191,-42.141618701580185,-42.32576494260435,-31.630291637227998,-25.163647466818656,-15.970129064924047,7.08434514950398,23.05620201491637,25.022946920113252,33.314067899911336,42.224485639925376,37.8416091048701,37.98713415747312,47.728574458358956,46.46624072629211,41.58760627640882,48.94633083034666,50.75956753883983,41.71784474391919,43.18568112180169,46.78010087908968,33.92726807056631,21.122525096564473,15.279840710927349,-1.306847570040289,-18.75819323447752,-21.534335641750243,-30.020684506808614,-51.38813678836964,-63.04381745621821,-68.32783048259593,-80.3986556379742,-80.59738079877485,-63.584197943010025,-53.01394170589718,-46.4880291847793,-30.84380498506389,-22.771455321466817,-25.210930274614,-14.837277381601883,2.0118183988457137,6.0209906984862975,9.695939628387716,18.955467912023433,18.60626792362426,18.982668299471612,34.241027404253636,43.273472473045956,37.34004885682671,37.47890131341986,40.90060945410226,33.224771299618155,28.303717664742628,30.097747810759053,20.876332396993114,10.497126499102041,15.093593890316717,14.608092259270611,-1.0444211851996013,-12.381053599774344,-22.08131594709311,-41.811024666379566,-54.147520400797234,-53.9784673315869,-60.00414455747648,-63.4743355413273,-49.40147059917395,-37.92058855723751,-37.20734942579165,-27.15706040377391,-13.170437840372678,-10.023615484665877,-1.7318400823230888,15.689640288576653,22.7705674799807,29.376722269684194,51.282814482015226,66.4119456931211,64.90052421385221,67.744236160503,71.85904083935918,65.78031709282509,67.14271106765854,76.97864394696464,71.78514033158629,60.15658965704625,59.63252060624855,52.71641065767883,33.38332955755405,22.16307234683957,14.07658171276336,-2.5085315039970837,-10.309367990552998,-9.832041108908676,-24.8720669325772,-45.04270504919627,-50.009206361795286,-54.91094469116625,-66.03401933936044,-65.92006763325222,-63.3210350654578,-71.87881978745564,-71.61017156241917,-57.28840687547138,-50.51134545400663,-43.1186298948156,-17.73696938407987,6.784217543321779,19.284723860080703,33.84802672523794,42.37055859661865,35.18887906619175,35.89862146473169,50.332891519865505,54.339542157229474,51.91138557456584,58.85468331031174,61.464622196799304,57.50356450216048,64.51824772386476,69.11830325478543,53.76133041478182,38.0120830943222,30.92309698865595,16.581180249526106,3.43939282122129,5.039563740370124,3.411062956459612,-7.810900211406894,-12.081325034046007,-18.1225432195198,-39.15136612016275,-56.16124054479164,-61.76276464346537,-71.384986646339,-75.11682889911518,-60.19002923957508,-46.625435105345275,-40.042424222484804,-23.415365283894765,-7.852658767915242,-6.455719773630362,0.6605646708068069,16.037920939356773,19.8236542976635,24.35716835501028,45.29587984184498,61.301621646622046,63.975900748320875,68.63891575838205,65.19029037915799,45.28540028293435,36.36730119842191,45.83443454643108,48.26909443174097,43.279356150887196,41.298835622385745,29.166265793231837,10.37939773806055,6.5576054563759065,5.771145972666725,-10.266760769079463,-24.280171117281853,-28.122341045131062,-38.38787580942511,-50.816107615263995,-57.11940333485415,-72.06359580486786,-88.84708542103304,-81.66008016939253,-63.32318086438638,-58.055117709667456,-55.78456462272847,-50.9882658753687,-51.9785257046375,-41.53340265196738,-9.853135153416975,14.112922099100995,19.420109658421108,25.224616759372903,28.657020455978955,24.657292820721153,34.92799610948771,56.827426241989485,61.9788674304112,56.46640888032334,57.38379386325468,53.06306927417251,45.08389648492621,50.90247457206907,54.87093757434718,39.64417583686146,24.670287363850036,17.991889596594053,5.538585018104593,-3.056839926953446,2.192843828592219,-0.19111720371593655,-16.55477353639062,-27.893789872644916,-38.61404224999666,-57.53407313796598,-65.38906648641029,-60.50266655943302,-64.57799829249244,-69.23383585984786,-59.849359591147234,-53.11915774459759,-50.70513267861072,-33.85541125728481,-15.630715009693951,-12.623543503333375,-7.655178987675169,2.96827231897476,4.771145005187562,12.147082869645612,36.52574647140628,53.339115390707526,55.206357563314356,60.05564700941602,61.17749176924369,51.28337526426673,50.48599796245543,56.05839851354348,44.815424218066156,29.330693000137245,26.644838056344106,20.043082658446277,7.07409400405994,3.142203572437528,-4.884351623592108,-26.098148406427036,-36.62935740264683,-34.00305275974326,-40.39096121634633,-49.83472846460753,-51.31524555631834,-58.06777967829488,-65.4293610031886,-56.347747543975345,-47.84727964249043,-54.36605705115523,-55.09519739800599,-45.17739725998287,-39.702244080779465,-29.585311498266492,-10.547957021053055,-3.405370252452844,-2.5068767893984285,14.387396065503697,33.08450368463501,37.83943608829032,43.67582669619472,50.51328292002264,45.24592088011639,42.90251596977336,52.105572419845615,52.42071081746792,44.93477114722745,46.317764568905005,43.33737156016321,27.136860572409567,17.141404675139153,11.892264716873628,-4.4241570905809295,-17.880013909949565,-21.082813021090452,-33.86190502273336,-50.17684556505222,-50.784919624465225,-52.48391947758252,-66.43390998289392,-72.0268242524777,-70.67275888196056,-77.1104729146494,-73.66148995982854,-52.0241191270581,-35.54546694829785,-23.019717101166243,0.6458721924431439,17.538511198014305,18.507550229968643,25.744086648925393,37.8615313472998,38.88570093143505,42.59731959510377,53.71452617749527,51.791171580145445,45.20221613747133,53.29035506489213,58.70515361767026,50.65104648836352,47.69664778259981,47.439626025053556,38.143873038112034,36.86014630935858,45.48932449178485,36.52600229353504,13.624702371264338,0.2688540978945917,-11.260793744361827,-26.586355007745446,-30.548097992531673,-33.550575575730655,-51.256287571689946,-60.274253323628706,-47.179103260929395,-34.60541077000525,-25.893925261795427,-11.61823345730981,-9.130570870924931,-19.93377075415672,-16.358700061914135,-1.510399851519999,6.0048245810917065,19.03847188937517,39.57763020506818,43.94167029525099,39.35994736349865,45.5624100742036,48.49791179181846,42.88959171955173,47.87382943366417,54.66160844239993,46.009336635915126,39.87414238599412,44.08194106674263,38.29868617139638,28.150813603767986,29.58962544460744,26.164693086219962,13.414143631121199,12.683909528630952,14.07813046287002,-3.478629087120802,-23.81372797498443,-35.31118885790439,-49.75915305523954,-56.81228243152134,-46.18804777839419,-44.26629050058415,-60.73834026086524,-71.87465742250058,-77.22664097073977,-84.53368186632107,-74.73471065127413,-48.92877308300227,-33.00237652807495,-21.458922959014835,-2.34783829358697,5.540604588583362,1.5503073332060855,9.166265680102661,20.213948622745793,19.127082958202294,22.752959094891906,34.07708087953637,33.59757308343916,31.01877504235043,40.612933360155274,42.79157392762063,31.281643772700033,25.76075166129108,21.308367942588827,6.60572374071544,-0.635438189319354,2.0354910652428293,-6.662197797922667,-18.50030202444249,-18.098498233969927,-23.23393795024779,-39.393244670572656,-47.80525760633719,-55.35192794147328,-73.68304755976592,-82.65647513418537,-76.22739968024402,-74.86448578321684,-73.07968329916578,-57.951998900870294,-48.80288527485428,-51.93622509512805,-47.28811624750401,-40.212798235207,-41.97075860375753,-33.13714098347658,-9.635668847378264,6.974497089735778,20.78317129619002,41.561049583551366,50.09500297961232,43.95839737126806,45.29865827458665,47.828216541585746,38.31149855766391,34.79776395080097,41.64846904264366,39.209933120403576,34.57663443457197,40.116277496251094,37.13100995161987,22.10803432809807,16.149401906248524,12.153101684979053,-4.152349125645685,-15.374661308066619,-16.773326995261954,-26.905959761359092,-37.355171889940074,-33.86706294580816,-33.02990510030412,-38.03907541930995,-29.684752170849155,-16.318015558615375,-12.21762473933837,-0.7812981092795459,21.2141348228461,32.12872529151384,35.79689214377551,44.45631066635022,43.23244750610989,31.921230480464235,32.131034812069714,36.073687985097635,29.377437078362203,29.03987030638246,38.33821517210092,36.95235390230268,30.541813059355196,30.142646208550463,19.592428322716426,-0.03471095284580983,-7.428230125985914,-12.369793666047547,-29.08196660482704,-39.793193794210694,-40.594624477894214,-48.40560160682774,-52.92664180989377,-41.45166977486097,-32.346526381964935,-28.925920239641442,-14.076643882808987,0.4749640022654362,1.839441495578718,10.809130625816918,31.79227823905797,44.5281832930546,54.2204122890698,69.36225584339034,72.16293361515683,64.72027802135989,69.09346822457962,74.61206266194297,65.74703670816248,59.32333743929351,57.934288854052944,44.0391345729669,28.98662815304168,25.252885127829714,14.41599273216086,-2.2295781437509,-2.4645774168963683,1.4156808001410692,-8.376787130965756,-16.20692157936323,-19.899282913353318,-35.59524952193169,-48.507206287697485,-44.72075040445272,-47.35672757823338,-62.87634345104851,-71.45352136033297,-78.62341648226264,-90.29706997078635,-82.0702318231054,-53.73784882002341,-33.21963717632878,-17.80341596486908,2.638731796271487,11.350968047536893,10.788086205356082,22.077098539369242,33.78300091697818,34.02887338249923,44.1249329016599,64.9631242902066,72.86552359007517,73.92178448457537,79.35374534769167,74.06323491226662,61.78222240903057,62.63305550560873,62.52852237709493,44.88161581065276,27.984194989197185,18.537028936111653,3.329375535555992,-5.737165751873177,1.7994665409389898,3.210428709891401,-8.263949752270383,-15.73653020721128,-26.85676408043782,-49.78314139386724,-64.13701563668302,-69.3211061343918,-84.09701659873801,-94.43038942277467,-85.44315014840754,-76.83283106535869,-72.72116133130541,-58.56128800557869,-47.826716607697136,-47.74482337036888,-33.069834091896325,-4.903337892029283,11.516791696116156,24.065811865860574,43.6680806135592,51.45673335640157,49.0895897818979,59.03824914387277,71.91744221004652,77.32719882845377,93.0444286735869,110.74651666087539,104.49851125902967,89.35294167933344,84.68456217628183,76.18359300994017,62.23376312812898,55.26319363064539,39.38165715649979,6.123212097572974,-18.3283221407656,-30.346028378400657,-50.30594086384617,-68.20319985100437,-72.14623107076486,-80.86065180554718,-94.57166042389863,-93.18239808978801,-86.64157672833426,-87.2978870375412,-79.5440344552288,-66.99097683161602,-69.21522560486154,-70.24836107816806,-52.56205146203389,-33.50278500024983,-17.430561495516194,6.459456495598228,20.857525782752266,16.704129943154143,19.762291655087022,34.16067541374022,40.94767314221498,47.16163679516474,57.62234337030965,51.29771841894919,32.89396549240131,28.324047469113836,29.785425895239484,24.51585660661374,27.666597100082228,33.52867633866689,19.034962764277687,-1.0990174533773995,-9.604090396699785,-22.363874409557454,-37.30305314919748,-37.150916661827594,-38.900332588339424,-55.70896452315836,-65.64835726053028,-66.02636936122656,-74.07554994834818,-78.31516653349516,-69.29073331963845,-65.18960418035722,-62.72134881073673,-43.362227079373135,-22.52468950724616,-15.621597017954599,-6.108828172528533,7.906511621183618,12.706059159003036,21.503944045038352,41.68398629752906,49.66000248283171,44.98545018920977,49.46256183854303,54.68369245424438,50.5737858262376,53.62739392213117,58.9755603297119,45.77152425400292,27.348800546109622,19.06225697767075,7.617571100056514,-3.7191184057832225,-0.052906268775116505,0.040740169334869236,-17.345311710202,-30.78308835247327,-36.49576890130656,-50.71847077578309,-61.99303368662325,-60.865303547320316,-66.30033411444983,-75.61751169167027,-70.4521616153049,-67.16269290756415,-78.51948883762961,-81.15041150753568,-70.36132472573892,-62.08710269597795,-46.0309646166801,-18.27884317685018,-2.690478944620586,3.5432751953270447,20.78898752585645,35.79891759164481,37.67708474335117,44.949023033672105,55.686238305507544,53.58348249371492,52.84797876207713,62.179009720317524,61.41780721436113,53.36503335260831,56.592505074606066,57.82053830889659,47.42307246492794,44.33810216183485,46.349155847009705,36.97024468743292,29.012707217781657,28.8245826679373,15.248442314611951,-8.162816861267235,-20.23207566023219,-30.744718459254617,-47.86180250769799,-52.9379391995799,-48.842785658499906,-53.09531324582751,-51.971387092014645,-37.05615616388231,-31.521452762310954,-35.525243181421146,-27.459489799744055,-15.650183202728893,-9.518078481155941,7.317400488419594,28.773375534455205,35.13248858277893,41.69818554930436,58.88948159789594,65.5008930260736,63.26674114299142,70.82850897293,75.39488069606267,66.72928334014455,61.423696131843705,56.854685918875454,41.687700307813266,35.3972304126988,44.921647574130894,44.18231855115319,32.12597302628905,28.435877476549777,25.08374446857028,14.587725265439012,9.930314040427476,1.7391869099211408,-23.30873536018959,-39.20937217543249,-30.743900494935485,-23.04005380227049,-24.61836824169287,-25.841157122626054,-37.53590982348448,-56.51979481975752,-53.900240927168,-34.644948649977096,-25.76837280693654,-20.65537922342046,-10.565914062150977,-9.456468397023146,-8.469272261242892,9.807288404345819,25.482417391875046,24.67208684789926,27.440066761763656,34.97842431440148,33.54093143889996,37.0825451583524,50.63833369360712,51.38395452358753,42.39528820902794,42.51937135044607,39.3280754934032,24.73358825748633,17.548640686196006,15.78310138419819,3.472453350929211,-7.472521717448411,-8.54430736165857,-15.694823478903484,-24.639084828086474,-19.67204174650029,-17.02949445974405,-28.096489323472667,-33.71953579538131,-33.582507608470614,-41.12864491802733,-42.40440498378115,-32.94014019213428,-35.03168689988953,-43.89301610249634,-39.81847412801475,-35.90749293655021,-40.05269257565038,-32.604068356284785,-17.675322101542754,-12.13739262327481,-1.2882731192086974,20.927708534475194,31.360500014674713,31.215433432512963,36.799129272172706,34.996559017444284,20.6851985917626,17.04480983485704,21.975112808446262,16.272578870964317,11.453535280400342,14.91401502498721,7.868211860639473,-3.5734045528625247,0.14271386227815253,3.531086590997436,-5.961482575243865,-11.236007039194751,-14.099495558328217,-28.744406486110893,-39.25683157686555,-36.41543358849322,-39.30546204683236,-44.534247016145706,-35.349530018537294,-27.491591688753164,-32.737676079906336,-33.91098080772893,-32.306084783533564,-39.65330660443246,-37.27959760583698,-16.806554357955267,-1.7322854024237957,6.572761204244764,21.676915426954228,29.577811648180855,25.639507376466767,31.597064061692322,42.85550471179447,40.746123124545065,38.511361169120875,43.892172512250966,39.4636295469537,31.602617399177458,35.89532502254736,35.402344544539304,22.71043485231304,18.492641694095855,18.771141785155347,6.5750658906213015,-3.8600966113155337,-4.6722912946276765,-14.376986396143645,-27.871167050415856,-28.72176978854094,-33.09591178061122,-48.20952549140738,-51.68351038385768,-46.554526043927225,-50.68829223676644,-51.43403579315974,-42.930277783431535,-43.202962904592056,-44.11453476292269,-28.075184442119507,-13.086587936818676,-10.954030546404924,-4.5084157419455035,3.8292362003938942,3.5626937950032143,13.679522217677151,38.844216887012536,52.30578952972199,52.60849414280019,56.48747979132251,54.414458749757024,43.191716605556735,41.98197448056578,42.84660098646193,28.330817907540677,18.477045983991772,24.694570954253287,23.181524733862293,11.945402163851831,6.225248720721676,-6.190839129872218,-27.800400956051647,-35.48711833140281,-36.90135114870302,-53.33052498718724,-68.49112222343263,-71.21280049796232,-80.38440811300907,-92.39531543588966,-90.74084369745731,-89.45786234319982,-94.04754110174119,-83.99999219000372,-66.18104833739422,-59.55794092837692,-48.868874922657184,-26.418270053225257,-11.640498420466798,0.5044883345252789,23.010422530718397,36.02824294114606,33.64567827399579,39.16762010246553,48.646480174459015,47.01835232203957,50.15462407640111,61.22274563641629,58.14923134998253,48.66295013216576,50.12132828564424,45.389164782937115,29.422410232611455,26.17243580354524,30.604624742349557,23.410811282496464,18.31062854133159,20.395273859278998,8.397751980982434,-8.436003668180144,-6.607935737209774,-0.9003660809067606,-3.7087375077366636,0.24983075529980425,4.005982359785481,-8.067140345251756,-16.99316897586369,-12.352063484825418,-12.954536404499422,-13.802483838076883,2.7243558619599044,21.555857087922217,31.168637619897854,43.34911534005848,49.33506494523952,38.17823799332858,33.22023747604895,44.18919948600278,50.136139381401115,52.693673839199285,64.04213910522462,68.08176504214319,60.162383517971904,60.35960584822063,61.632174462586704,47.84543766783008,37.2614204286797,38.166470960374035,30.597687481649558,20.069564744935988,21.571196467862798,15.929313522235338,-4.497711073516411,-16.05622373995343,-19.962090946884285,-31.00563264281979,-34.51209189594729,-27.05540911884182,-31.055096889638197,-39.46806094246031,-32.43931279428117,-24.65209054025901,-25.70827435643906,-19.60008463417163,-11.231173687744336,-11.57933939739242,-1.0907552563421188,24.957753140871162,40.02689410003366,42.244250135558374,45.71823578433764,40.48378263066327,28.214253731365055,31.942511974917903,43.75596747229098,43.74115798750702,44.094418808912,48.687295775818065,38.04739619676996,20.031181677010238,12.74303244162584,3.5772181885448666,-10.481767429933667,-10.598301626832068,-7.176168623054066,-20.10213961824359,-34.1900578599712,-40.24036197544081,-53.060114118173075,-64.08317910169342,-59.82944111225174,-60.41002284155324,-72.93319585241296,-74.71416528383472,-67.44454967636071,-65.86664148336453,-57.73415832433307,-40.806582745699416,-34.598260860251486,-30.49762471242018,-11.413036937392706,4.942078396866248,8.77973705188611,16.8131325780457,23.547717945478798,17.429746565470786,18.16427265797671,31.41815129929284,36.13736053592521,38.26892244042001,50.885855928635856,53.837387474571216,40.61508392459649,32.181754120387104,23.985499906599728,4.868514052040412,-5.096511791876104,-1.7900251419051711,-9.117141287793718,-23.00967395426302,-27.178714603983565,-34.11961982210459,-46.271362342882604,-45.97516878192807,-46.072431807852325,-64.9647882975865,-80.43378081913363,-78.34961052651133,-75.76154555734158,-71.27622817093781,-58.983441935825354,-59.70490072980935,-72.13637056162864,-66.7937642481154,-48.321721115680205,-36.65648881512942,-20.346199113879997,2.7883812387187676,11.93013747578491,14.149514345930545,25.555869708332747,31.664616765591454,30.37548171213708,42.552801654250445,57.83659779253416,55.586221589462085,49.96173268114373,47.76750538060726,33.212314567151765,17.289822184245804,17.236200885330767,15.247127451804104,3.344031249689544,-0.5169731062120151,-3.5227686606137536,-19.382958971893913,-29.20468093966654,-27.666183222334862,-36.05988049456854,-47.782083831626295,-45.42882127016197,-43.42749321060381,-48.09201308568735,-42.3193603492792,-33.60515683507812,-35.20779762766893,-28.55440837901574,-10.187243938211738,-3.7749492503878592,-3.709821251709461,7.0464309157743426,15.493605765481558,19.551080619789815,36.427313361019124,52.98261348224642,52.57984952562678,54.351699160162376,63.625140860509624,60.42284609012985,53.52681764029014,58.41160689996062,57.30861246016523,45.34580342818113,41.08167902330768,33.97305587824813,9.301864048449888,-10.17296460364832,-14.904895263951143,-24.661726358014516,-34.13102585986988,-31.439473979073853,-36.403504850109904,-52.40591976515805,-55.30721132058058,-51.26545399503402,-58.18773222716281,-62.628367010245285,-60.183324270282455,-65.62266688285919,-64.82350660021828,-41.81311105842846,-20.411323643669576,-14.601469971300475,-8.332655835206172,-3.966320364622968,-8.49875768341124,-2.3637648796142803,16.421734024231323,24.923265503107952,28.666924948349376,42.92540643686172,52.752737811229096,52.13810111277389,57.486502732197536,63.025300206989314,57.83696654146551,58.74225562643186,67.51051803334335,61.53016912308057,46.734749094818156,40.4507179469336,31.995402653889403,21.093725802003995,23.89648885330617,24.593424996388197,5.830453779027975,-10.188694562861112,-13.077611478015399,-19.056005961930534,-21.7824772271109,-14.25630228566109,-18.50119601633272,-34.41487158679877,-35.59311108665439,-25.568366109395328,-17.31833637626817,1.745189333924725,27.264363071009562,34.63844389113857,32.734115679159956,40.9279110654312,47.51164255765441,49.83950287511891,63.49237369258307,75.50919689464851,69.8880649371462,65.82770534152108,69.8870574117941,62.7821385273155,52.457399826700836,53.818816574274855,49.22245908378377,35.65526315590105,34.01934297152404,33.84974702474939,18.513399228619882,5.565848185570897,-0.8292864644369177,-17.76132106341445,-32.12070085266767,-28.25176326826478,-26.655709005372337,-33.86576790431769,-31.637487974595288,-29.282089662244775,-40.02111167358264,-45.103186809331454,-41.93062777834093,-50.39685452091206,-59.33676160034919,-51.5438383600532,-43.12807344558539,-38.18202848316763,-21.013683330284735,-7.202668419476032,-15.217134366943263,-24.49686988882105,-23.94869742998482,-25.142133151308634,-15.982982677458384,11.74968020858996,30.17658185944021,30.04008183077857,31.998612000959323,32.548247140668074,21.53339528001785,17.31318102450605,23.123460310497364,19.096650298930935,13.216568190007322,17.15003497580456,9.132528912351763,-15.420302827494535,-31.950636050227807,-41.683215426933174,-54.128861598010424,-53.66979055742709,-44.23465648497421,-51.27779089881006,-66.72467642014566,-72.00319410554692,-76.72957132839784,-79.31463411230868,-63.96590173886775,-48.312258197259595,-52.18911165186545,-57.42834961355315,-54.127663167983414,-53.022629607351455,-42.999567741831925,-16.748975636439198,-0.7412754777337067,-2.334205842551802,0.04931809384777708,2.669656547702135,-3.1367486160958635,2.355782645750691,18.59869629636812,21.16549862355546,18.763317797239786,28.116020236543676,32.07976878914376,24.40383467973119,29.621634182838108,60.12824913357536,106.19380291576454,153.03533037755844,182.15744985248142,172.65116094913063,125.01801371928181,79.79579685285675,70.76563490051566,75.13859892178414,63.16014184329002,45.22097467838173,28.192243575723516,6.319183026094173,-1.4607317567570126,12.532119707175285,19.334027602319754,15.220267777231713,22.781548603511705,29.545958409926385,19.087675663317974,14.283048447765406,24.30405425980256,30.60238578452497,38.412429717057506,53.426355092604965,51.44577269770548,34.31334008400985,30.755924203811894,32.1431490189839,20.97018832629665,13.354487001159795,9.630557262364245,-9.393348309682965,-28.5964745013391,-30.863171931964033,-35.62804804032427,-48.59387135933812,-53.58146589665868,-58.88089570657389,-72.017536510286,-72.24098948020477,-59.64179424323305,-58.62564930207422,-64.14773804330771,-62.50484317839572,-72.19179192984174,-106.26132191509589,-151.86588997990842,-204.09149672956923,-250.75589736785446,-254.61754405271915,-215.15847077960063,-178.75756095921196,-163.26381921388145,-156.77451530771702,-159.01632142605905,-157.90517466285823,-133.9528087341323,-105.93634285129558,-95.00673882445307,-83.02393258192332,-64.82055827197672,-59.903208050520846,-58.25944915317532,-44.156668280034076,-33.49711164224662,-28.49381106501853,-14.747323372060487,-9.615117825547546,-27.04771234824678,-41.052238811190776,-42.57729057152149,-49.00615123153145,-49.961638073320756,-34.62093791492326,-25.363949613469046,-23.949054234204063,-10.454215376891261,0.4162944864499427,-6.830487153798369,-11.030576090267672,-7.513840345830052,-11.976597667149377,-10.238583992440496,8.560803557481503,19.202585092768363,15.867456302994983,18.307310931006313,19.256465067110476,10.593227197134732,14.220097065306536,30.574494171985016,37.10871258848581,42.730375011407695,59.47294416974587,67.65526468334619,64.81884117725681,70.05089047586948,73.88900072300231,65.19313740554847,62.69347481404845,66.09984581333826,54.457217289299216,39.32418841475074,38.13474332901304,37.309589906126014,35.012661458307036,44.63511087442951,48.91166616464163,33.10245885493362,21.600319153922104,24.25472462448332,25.377148898460952,33.645123108084796,56.115915778723945,68.89052668258165,69.61233331124427,78.26179190482497,84.88312785708882,79.16881088014416,82.08563426731646,95.58455717332251,99.37282099529095,101.48299507807731,112.50141508506714,114.31545838123188,106.99784844298762,110.03974621599028,112.52700484651791,102.50697116169823,99.28170566453342,103.36833799200424,94.04407476232414,81.52586732023794,79.14598398082249,69.74536668794386,54.11116388817716,52.08648422509258,49.804883960380025,30.48940087687589,11.49446398492119,-3.7783881859787565,-29.689084142046863,-50.37243813745217,-50.698028274551355,-50.39133466150832,-54.37577465609352,-45.377750832865374,-33.532814749901846,-31.44245081933127,-20.769778776863994,-0.20517823872626018,9.94940879774507,18.3685507586522,36.61550761832859,47.13735109570364,50.28448666925808,65.47702517323552,80.24430934136372,79.55907433662568,81.51916531039275,90.08250873056735,89.46236276967768,89.47108231181245,96.96347876746074,89.29601517942196,66.78052781236276,53.88569588493481,46.002540727405524,32.8763733320264,29.074484541668316,31.187460546825733,19.257335488636866,4.048924248793966,-0.910606970610539,-10.821930260804365,-26.226625605743937,-28.905341000161187,-27.041016327272832,-32.12421949819512,-28.313669658306573,-15.776688165342978,-13.469384922180147,-11.080292377020369,3.6880880606247812,13.202363530532413,15.685344226133191,26.987871587828653,35.099105480354424,30.54912714613521,35.71224766124878,52.474545745001116,58.23124150763191,58.3410917953317,61.70126150882437,52.07031119639055,36.23710754327304,38.898497565155644,47.41683056173726,43.01539351658029,38.288304658916566,33.09849665901502,12.750810162053197,-5.939846174172072,-7.291821291194964,-10.655779082516002,-19.90099359958354,-19.08665646067034,-22.303694559079318,-42.862974210649845,-59.324015916402566,-65.93029857774115,-76.57461308986912,-77.73488908568633,-60.91836715538211,-52.05001323189583,-55.571374722942856,-50.39316378932545,-42.35792073778732,-39.12053972488317,-24.014141545816827,-3.810776544564142,-0.833955733587568,-1.1712358099137425,9.998803625905284,14.862628483235772,12.118726242971952,18.210278115427847,20.55896717484485,9.507705786788296,7.329480678022064,15.046878169700461,11.071559776857555,3.4577554265379895,1.6119797495964288,-13.36038858920087,-37.55601241476462,-44.989278372846336,-43.90143115227222,-51.070117839910445,-54.74118959757064,-56.94366360116627,-74.61801487885458,-92.49628753373726,-96.68521498246257,-107.53428088711601,-125.46057973366234,-127.61872849605908,-121.8937161503982,-119.78789817095159,-106.02838745474519,-86.81283626024816,-83.81697409748435,-82.11016318679664,-66.74153368448192,-55.63598580289621,-48.851592971923964,-30.640290243507042,-16.79048360345298,-18.128348011707995,-11.747256163489045,3.1364912670144047,6.362252218394195,9.28632028477585,21.872434239814325,23.997728847151077,17.860745324921268,23.392484661871976,26.310805691504154,13.10798996549296,4.5958092213087625,3.2361009102285996,-9.040810929509824,-18.180372255042602,-10.40769156687663,-8.160439075824467,-17.5794484052662,-22.961240064165118,-35.71322891579838,-63.427658973471736,-79.67661783753108,-79.61240735874088,-84.6758295166718,-88.37195852514681,-80.61667677046212,-78.73787622573525,-80.56737876632101,-65.66300830363582,-46.791712204297795,-39.53154098290322,-28.231383474850418,-12.909463675304185,-9.625431637349973,-4.347491127279897,13.661956933925646,23.392865225648094,23.167647213212835,30.237346542736,33.92259433818426,25.673998263402837,24.091499996970548,26.281006483316133,14.055504453668146,2.497833208102821,4.99593970796235,3.6878253364242393,-1.8240769425335128,2.958692815383226,3.1451095420903834,-10.913275977192873,-18.65333072073744,-21.393688058121164,-38.130678995926715,-56.27936230771479,-63.47069729960741,-74.69469493663847,-85.64970833361247,-78.5744159210554,-67.6236404485108,-64.99835598831032,-53.63970368350857,-34.97670430633383,-26.17727748429786,-15.116408911897036,6.8606474670122655,18.343535563997865,18.00114976954869,24.684343088383,31.51631837300343,33.44644783451707,49.83971367871703,75.02247133585666,83.41564852331514,81.5510307454815,80.93321031330314,69.22695607269135,53.5491558371146,53.95155367150734,55.058418686199275,40.568964864604894,27.151697726877607,18.012450527211442,0.4861085941034764,-10.58120124053959,-5.448528540074726,-8.086125162216497,-23.270951467735483,-33.40751218611665,-46.728077496879955,-68.44853545836072,-74.39653434834162,-63.353541118007215,-56.79544587022901,-47.61146413108075,-28.13393439834542,-18.463341413011392,-17.120095224627086,-3.758364343696611,10.314424418313848,14.874847588364505,30.45869720077394,55.26612877579274,66.40297710104369,72.36287805465206,82.61710261792837,79.67714430097078,69.24642617942848,73.469439092325,79.9919893538366,76.01790013869669,77.13555901367323,79.54080343734556,65.62688531944357,51.43191986525228,51.17386109516908,46.635050080567325,36.58855600318555,36.0321813522137,30.355724543673606,9.097847917945579,-5.808893084376588,-11.807725065023384,-26.443303058991027,-39.02825992612365,-38.81422368118894,-42.821121241503185,-49.753252615170766,-42.77929498942009,-35.148271148447684,-37.200557072498725,-30.14154221938667,-16.221923883377134,-13.400819854419515,-7.820307353236235,11.257946526577362,25.13836433838399,34.44660278437681,52.24704408217761,60.943177791414634,52.78466180165338,54.072431621773234,66.93409821707363,70.8009715732268,72.70495901523259,78.57157487872146,70.32129581853754,53.81091526792616,49.435470932202215,44.16603240388293,28.219778550303925,23.116138320881795,29.532728435220175,27.87017301751151,24.33127988705858,22.090817313206053,2.4395844335384025,-25.049060147191284,-34.846549622887046,-37.868665139652876,-47.167186369688686,-47.1812626811648,-39.23435337256849,-39.01444399907015,-35.05529793100011,-22.25667186112066,-22.284778542626473,-31.102618551720386,-25.519770476410386,-12.851282619993311,-3.1652475692154214,15.61268408911601,36.1432771242507,39.830739928585146,40.58969304679181,49.938965515843776,50.81809050383605,46.32213659450993,53.39200787286753,56.64004353555739,44.93653192014986,36.906683884806675,31.53742995473806,16.942679528389508,12.749465462215142,27.910795335205286,35.971533452117214,30.61694792841466,25.615734067968397,10.929783989580258,-15.802545787378374,-28.870297717376253,-28.603152264897147,-35.946450113493,-40.90912214993905,-34.188383277083545,-35.58620392175165,-45.19975614770985,-44.15446219903737,-41.04430633761916,-44.831134693079875,-38.933248575036764,-25.786568922556526,-23.17025324473225,-18.488904354279015,-1.1502397002831,8.718650867382804,9.017934106713028,15.594473057374856,18.068873979944136,10.420113298175131,12.156166717967219,18.94994247486637,13.500949017801046,12.299315226279864,24.684319938924716,26.834558144886007,16.394440701781086,9.524527305885094,-2.568380037367647,-21.80127421376601,-26.332227268848634,-21.62639942974254,-29.71037768421443,-38.615176793935746,-36.42612058676479,-40.44282961497664,-49.19487803844315,-46.70782065267028,-47.32035411686749,-59.28256046424152,-60.94421960156713,-54.47121962942603,-58.39585772673807,-58.09875894340582,-43.24773866434089,-35.37763386862989,-34.95248523513813,-25.112106486513373,-18.69745499014762,-23.62248954447572,-18.065897932502935,-2.6499900887432957,3.994600795264045,11.932701819345104,26.7897456216373,27.608178253197774,17.72702425315051,17.866012709234546,19.848746227247062,16.77533479554149,23.161953907449263,30.818253199465538,22.059044705276207,13.41110445735086,15.632612203594418,8.697417622118758,-5.198938763160605,-7.302337262932011,-9.660993684753905,-20.32039438571373,-20.587858919915668,-16.040177101215484,-25.155340909234585,-30.459552170883416,-19.29556065829413,-13.727703499286996,-16.889949640130894,-12.195260722973561,-8.641867466810373,-11.15427825244531,0.02861953929203498,18.392264792623642,20.912152330749056,20.59604573602347,31.350847322668795,37.54678319410809,41.114976128302,54.90652165665091,60.56993282218753,49.42047941061996,45.0475390616664,46.90341091612222,36.65957595981606,27.473831539909813,29.049687090298562,22.852497679823813,12.533739369901191,14.529891004543936,11.112043591038269,-8.544836964516104,-21.553440385521842,-25.94847989777606,-36.801111373985975,-41.79674840067961,-37.023542111219825,-45.98856430923577,-64.29172110700675,-70.02553483102801,-74.52657791493412,-86.09488482008076,-86.32053943494475,-81.31510622584825,-89.66120369158126,-93.49280811732704,-79.17917889432225,-65.07717965694383,-50.22525151161228,-20.891598112092908,5.855132128619386,19.81211473190433,39.72505652357462,61.83259207541701,66.98704797487278,66.2227106036196,68.31643598660304,59.51691422970255,49.482670790237805,56.16713190185777,61.34932647715365,51.8162398358672,44.23678909475327,37.24974401272433,20.064939176130302,10.913511523027822,16.090019685330372,11.823062557933934,0.28317004306883,0.5960968798791417,0.3385558540169186,-9.591621478625859,-11.673170352232978,-10.504339320336763,-22.357360252313583,-30.155799413330833,-23.19803124608798,-22.23868833988396,-26.58416166729583,-19.268360287596174,-13.250624426857762,-15.482111205485914,-4.271888242610165,15.773692733134068,22.795929462465907,29.252398449466384,44.52883455529244,49.33140917935578,48.53983108590521,61.27536028816358,72.59045967921767,72.3376845600001,78.32714562014264,85.09231754287008,75.40873730840535,66.05881960014804,68.39851987664343,63.136337374813,50.99480650486265,47.02980234568097,37.592328260759665,16.37883236281379,4.79434940104084,0.708266791142109,-11.931149573823479,-18.449297757808125,-11.069077686164283,-11.882886714030663,-21.459000245968234,-23.3208775584998,-27.28181692231174,-37.91896110708262,-35.566188822535025,-25.280174130618356,-27.188783035872927,-29.097211948278414,-19.24422798672914,-12.583886318181499,-6.583024587468968,11.968919534144757,24.679940677186767,18.90233744413449,14.45948610591079,15.658637063886829,13.721234310440359,22.756648696263074,43.73069664982294,50.308797726470246,43.478801613782494,42.859410201341106,40.58440831648679,31.93082004434048,32.598542914235225,33.389968746403085,16.60273601801305,0.15698513965904226,-4.449110511848702,-15.700423576409994,-28.657007008955535,-24.311324469604525,-17.608937243460215,-19.505409218855903,-13.360791325442245,-5.023947714974456,-10.612004103616043,-12.166295977511467,1.549067827507133,11.447070335954361,17.4654858094382,30.645494834302674,32.10367560979173,12.098894234588306,-6.077334411174653,-16.80085323807653,-27.61085204507927,-22.4891223255175,-2.6653238889341155,1.9864051210698863,-5.663997931105664,-4.406591429097683,-5.891814420616478,-16.351846274393246,-15.936480782335789,-10.126816131725285,-16.46215860606867,-21.380438435697826,-20.112173134817567,-32.520066962252635,-49.24301100012545,-46.98867337260281,-39.010802890429645,-39.60933650568321,-38.25236139668809,-40.6952961176586,-56.82762941344841,-66.03640375561358,-60.91208574861627,-64.0950785640867,-74.36987318299532,-75.96358021407659,-80.38391015781238,-90.58811019946097,-86.14508935646131,-75.54002542231589,-79.52867414829223,-82.67349665017895,-75.26322501531881,-75.15151835294708,-74.29969492043904,-54.86407652224485,-37.33954092215859,-35.4104717564842,-30.346839383723296,-23.21426532578428,-25.939990127441458,-20.97072038031203,-1.6096754588375584,9.004725294492616,10.550998205523436,18.41278401827224,21.474747734413086,15.435549274194138,19.62809184495584,27.64675509221938,19.86274319048845,9.568644314186873,7.285036001028731,-1.1285402409020486,-8.103583298719009,0.27391777901935566,1.499304983384714,-15.459471441158835,-25.829043503316825,-28.851470466727278,-41.23099537583335,-47.6747598376802,-39.78116265374866,-40.040562951431596,-44.81293639596661,-34.21011165041211,-23.975019722287506,-24.00161978712713,-12.664150680403555,6.564808994722409,13.480589172177737,20.004478981920204,35.50269631159932,43.711260076035586,48.06831163944614,60.73776317051726,63.60124788321287,50.323319953860185,45.75360634683969,51.23410713099688,52.43814614730503,60.48853545829084,75.48674034000538,73.29177368696952,60.0242111373531,56.68052908193803,50.06150115987393,33.77653904425483,28.798785316981718,27.276684016618635,8.51734023350595,-9.764895089326297,-13.731486320465681,-19.14074933066638,-21.470400891685863,-7.5719167227170345,1.7690875845609928,-5.173712656210652,-8.21257409724955,-7.64994412297429,-15.87901130048842,-16.555739337885264,-3.2649368277841604,2.79189704688365,3.892547511547103,14.983680974055561,22.603759627291293,21.514638106311995,29.368876999844694,37.209292367017596,27.426449234299167,18.83738670746326,24.58008001383029,28.321812866390157,31.46193822864042,43.26991021655573,43.90205209135409,26.155986662271264,14.33561850463871,10.011359486458563,-1.2893636348991926,-7.911455788267413,-6.461235370135736,-16.246665293439605,-29.47460734876016,-27.436503120115972,-24.86788294114251,-31.661001923953556,-32.280440804598356,-31.442884073187226,-41.63409728354149,-45.38055637212423,-36.88973604020093,-38.41967260171441,-45.63637944894005,-39.91732953256791,-34.84624538475873,-38.915044687863364,-34.63407947218891,-26.29209951618515,-27.025322140474454,-18.58000948435375,5.177533438427098,18.588745734476934,21.83269592236093,32.52261408503884,38.5031012259171,35.24026165607558,43.9328873341604,57.913901442698815,58.69857607248464,61.49702756988057,71.75712033665496,68.77807710261327,60.81471311156289,66.82966006906108,69.80354434371807,59.70334734401057,54.30351832986351,48.88789728675726,30.854831580271675,20.44458617365666,25.372618312898727,22.72901412389217,16.235654312312388,23.626278906179536,28.479631303629876,20.41316176276795,17.832034630580562,16.106709404482764,0.8523654335413671,-6.869775068446111,4.192973537465713,11.90106070191452,16.899753361940196,32.90287276178557,42.40751588282298,38.12031632570783,41.1612619695738,46.6340100219739,37.7072760420191,30.814551376652233,34.695088900186136,30.776646541309333,24.66971661630847,32.52145665289657,37.1317421392165,29.10451796077083,27.32674144063032,27.502639309655926,14.548279838639266,5.148976845156228,6.94260887128783,-0.2693486751965217,-12.06283747447615,-11.287749078050965,-11.724028031409977,-20.485605765950936,-20.279734860758282,-17.07073133528941,-24.747547438738383,-25.804307087611683,-13.341302985362978,-8.326860065616717,-8.696434813071118,-0.8672018094999223,1.5710970744354062,-3.365705979948093,5.955290415002773,21.557593083866962,23.129933038565724,23.557440059723568,29.695969516434047,24.271333462597646,15.147862661789944,20.61973087955017,25.03221955363858,18.088016380550435,17.764547018012834,20.4107415318707,9.6529869770028,0.80126698337659,2.741371420576727,-5.051108820240295,-19.1839070276426,-20.18863697994142,-21.017974885564193,-32.20824151989538,-38.42227111701509,-44.89283697760396,-64.04744952585082,-74.62050726949278,-66.01550750599498,-60.869919439103484,-62.59673185509992,-59.752810447549436,-62.35178314013453,-69.04581842624843,-58.542066857907926,-40.0443815930077,-34.79592991359594,-29.68949925550573,-16.17971518524549,-11.398262117609942,-9.494077400512694,4.9617010801223405,14.646803739411059,12.907572108462752,21.893508613627255,34.41918088312964,30.035327141927816,25.71816387865733,31.86623058941124,29.873398991839835,24.958103564548914,31.058451513068714,28.352489032068682,8.04419204323538,-8.802487462192351,-23.69734643171084,-46.81688520726643,-58.65011574160277,-54.369165448649156,-58.655425864951624,-70.92696366899932,-76.5932220769179,-87.5336553575447,-104.93601997233617,-106.05827569398326,-95.74649727943891,-91.88296598679823,-82.4747703657764,-64.09946909961,-58.9340394227221,-62.281018602525826,-54.24940031944109,-45.84225859477105,-43.481895304480666,-29.419821080394122,-10.02881683249202,-2.1390687272120656,9.25056743555954,29.624031706025523,35.834050245105026,30.57322036829121,32.600144792930536,30.841392841177047,19.660185387402002,17.97099851181628,20.788145966231287,13.097514909171165,10.802007667362155,19.143074796789506,15.942558466884453,4.892300365842974,3.9391400599413986,1.8770850692672472,-7.266181508293363,-8.427660382395189,-12.00733907535981,-35.217689968655776,-56.99006287530318,-61.50689788902908,-63.83483156273535,-61.57233411409375,-45.649834205082584,-38.72354593402967,-49.59679078381724,-53.2228613187399,-47.690035305540135,-46.77370304207899,-37.42129730632543,-16.838523604841562,-6.694188881588058,-1.3200005848983976,15.699729708866531,28.78920402551784,31.316959892445677,42.031859509216524,54.53359803784434,52.92529498846402,53.14906799252862,61.771605742744065,60.24673565501123,55.23390589868186,61.350770137511866,60.40018556171853,45.79176816503469,38.994650564069644,35.35035024452363,19.67152131580272,10.147934076312332,14.69030204012603,12.277439472891121,6.95514312528762,12.646723632146987,10.773643141960875,-4.769901254049941,-11.613210992915622,-13.185387509632637,-22.6238164679814,-22.16252982724926,-7.414794453477636,-3.2536887227597506,-8.460780254188185,-6.869688363753223,-8.70154089535921,-13.683166731378426,-1.189094339995033,16.608208265788395,16.5880137628791,14.5599659247812,22.892487819232205,25.37218186303949,26.109598009174235,37.10861755236273,38.122491590736175,23.201957532570315,18.6132004987058,23.486081867435114,20.547705916350427,21.8297613370415,32.010054451469365,31.69845833672987,27.052382189237644,34.31436532333491,36.67796642980802,25.583697850755097,19.777791214090456,15.099831603448497,-0.9906257486959804,-9.660618128525662,-3.979741119215772,-4.376822013226822,-6.630305122608787,1.0477669361932427,-0.8867574737500605,-16.887692097442223,-22.119197436745278,-18.247725101760388,-19.049467107363647,-11.183856251934856,4.109692546539059,2.4728977278375894,-7.876434070835733,-5.780163246771494,-1.7502665437325222,0.9502889992667897,19.119328288365377,39.91622437970005,41.678782840963606,39.06863371236648,41.889331370456105,36.580674132457915,32.230248464036556,42.30506242982141,47.42905701565261,40.41848948378215,42.101362913720195,48.42032390702279,42.68577544402907,36.55303510270552,33.80342812327638,18.461592592091854,3.062959506815504,5.9502072584234,7.893840930316177,-1.2301271590462175,-3.733990019045676,-5.647377955374381,-18.57287972242625,-21.740706193303804,-10.794087795288556,-9.448215375652213,-12.397768257353766,-5.070616404123271,-5.7190005087938225,-19.284380713257423,-21.411922485423425,-12.200507998432297,-4.683823908836882,11.695941851512721,33.263164751078776,34.93668906279848,24.716877893988595,26.302755541324217,30.381233187688856,27.894867554685547,30.29961478489131,28.86447825738883,12.344848818882216,3.1014118373636985,9.92048210555388,10.777997617340077,7.7014813056289135,13.532203143864598,10.114130601127327,-7.4293934578798595,-11.951240268085336,-3.191888635084931,0.3577046672760781,6.9314142499200235,15.252024227442819,5.240291237883834,-6.592328684112713,4.075980740301869,14.996694463820386,5.369358517158869,-11.88153997634048,-31.728883043538556,-50.54681703127888,-45.44751690106945,-22.69303512581316,-18.08596103395659,-28.354238050021177,-27.454663331550186,-20.715286122074595,-13.83160787216061,2.425281852078567,12.679554063861616,3.7851475151616643,0.8424310034363371,13.440201042181446,18.106083789388137,15.958893283922851,20.368117084404297,15.588637226844096,-1.1540422284298701,-5.74843606852415,-2.909606982125429,-9.757708325449626,-11.909001215116916,-6.805422209376792,-16.640926182928744,-31.499761478584695,-30.24876395586123,-28.42863865567653,-35.04127622991068,-35.0103660400884,-38.215328039110744,-58.04657106940601,-71.24530947490302,-67.31230831124564,-66.17486184311265,-64.9653055692022,-53.13633400037723,-48.94018084415161,-54.7460804985422,-47.436523626265625,-33.86553965169099,-31.83776059065023,-27.586072486025895,-15.676384139372376,-11.09733848849429,-4.057622895480867,16.65462366823343,28.431789739343692,23.582993647432083,23.31140963710065,25.018080882810214,17.847058487495552,17.980638484969177,25.64033113667973,19.325649401061018,9.139524891698466,12.498961844767267,12.37723073257707,1.7898846130342076,-1.9665402834591421,-5.899926150075202,-21.514273815524415,-28.521836586200944,-22.060262516509326,-25.214473083313386,-34.41065893816736,-34.66906784111925,-38.01849830599174,-44.75731010163729,-36.298025382646934,-25.104254905434395,-30.299553911570122,-35.225327748906075,-31.27850063141041,-34.065023285553465,-36.2488282782553,-25.80241905559828,-21.429459484090263,-28.12772518538022,-26.12869639856055,-22.08584420900079,-29.46801343488657,-29.50494109676967,-15.307407686789578,-6.9799793603828935,-1.4442798645661137,12.673434858623061,18.849553076476578,14.403743264557065,20.072689238766092,27.600917989263042,20.726833943999445,16.67165145320665,21.648266143626998,17.20795016014869,10.944763353624015,16.182022697495697,14.014740591858068,-0.8370918616634899,-8.025266963984564,-12.319444126675943,-24.31639449367415,-25.589661955781565,-14.172731136977777,-13.924663891760808,-20.59883822433501,-18.537567892112857,-19.04420727711551,-21.36162769235908,-6.795950055399244,10.971271924938861,12.795230709191628,16.101626790988156,28.150854719050223,31.400231692839988,32.77055569403343,43.41659843790784,44.867847065187654,38.472702136441605,51.25062035146379,73.72574812001407,81.67245401968248,84.4155090882822,84.39665581095201,66.51760836184025,47.115414323883584,45.37027316265222,41.479638871594545,27.00470006167552,21.45380387227116,20.62529096473192,11.952672588981407,10.496028775212068,18.468866027161884,15.253621479498364,7.552557042376112,10.779418529118956,9.159718096058999,-2.127004591313346,-4.268771597334399,-5.283839529561904,-18.20271828646184,-22.06917571716707,-10.061150871757231,-2.2076488460892048,6.4821122922147705,24.86853970762656,30.50845325972532,19.316759652720926,15.395302756423856,15.063707926153906,7.507915413849877,13.331955375650644,35.627949053364766,48.83147029911863,53.86215369425376,60.35456082427282,53.25821433509337,36.78733551169901,35.10992048853295,37.71868520742031,27.872758735203643,24.28010578920175,33.29407671293292,35.07616815572982,32.25215961421338,32.141009251726366,17.922649077963733,-6.013667617927797,-13.794595679281157,-14.644089211400644,-27.27150677787855,-36.250285263226004,-35.89610878507976,-43.089189177451296,-48.6848162466128,-40.11044388916072,-36.9199822327992,-42.0688131078888,-34.229669208730506,-22.96840999761071,-24.26542790951261,-20.790673405041375,-9.542301264980416,-10.8022362852634,-14.864921522353645,-5.433512938777718,1.8552708165605716,3.9495012895544717,18.225858679414813,33.002127271544055,32.13824268049129,31.72986108986629,35.130547212556905,25.380888897754716,14.791601809036468,19.487289582296434,21.56988771113205,15.274552070478467,16.62146150625909,14.588295918876238,-3.4846466399331106,-15.535834705489702,-14.810992364581384,-20.8178184635489,-25.867170436100814,-17.36873171973544,-15.884395190277491,-26.72399849424314,-29.149941538122754,-30.13477647678598,-43.38126913310948,-49.255737050360224,-38.67478635986837,-28.35233930756645,-14.1868740427594,10.678882228908755,22.505832383641092,15.724780784286377,15.452883801294185,21.461694133703748,22.186878624531865,29.895096649737148,40.792075557073474,33.20285582575087,19.412177997219445,19.952723938912207,23.40198253754446,26.190003873470506,40.27766177700073,49.19830513283456,35.76343451941452,19.821555491363917,11.379683179104843,-3.634346907810172,-15.866418356326614,-12.975326992142904,-14.52514933990959,-26.46303301569894,-32.16383304117266,-41.67303136051811,-65.98337426133989,-80.98896080377986,-78.93580919995117,-79.6998643705601,-78.17313239134313,-65.51844073053368,-61.74258653977583,-68.24751855019962,-64.12520315872294,-57.95975966646439,-61.111541208482286,-52.559679927708785,-29.27999146723394,-15.659775582395742,-9.528548734131732,0.36807879528768206,0.9891612404612926,-3.6510471852397597,8.52258830577778,24.478356638747677,23.651759777625614,20.730842498670544,21.08565411864675,8.675670507062708,-5.437471492598499,-4.9600310213850705,-5.273309288429735,-10.052325137260905,-3.0073156526092357,2.781181380870338,-8.725286097641764,-17.889779393161852,-18.298024352863145,-27.457317139879375,-36.23167580125555,-32.03954664525886,-33.03213411046975,-42.744690714579846,-44.95013723539217,-50.26749190872722,-66.66414301767956,-68.81383123824965,-53.025534092030426,-43.53466477161153,-36.939164494386645,-23.58629278776468,-20.373486377195622,-25.397451359764002,-17.727111177943527,-10.089971111944173,-16.645011458018995,-13.672053547497928,6.427192139052642,22.52279542642777,37.5435329121177,57.50336216224294,60.73934012690212,48.12598992730737,45.48300289872236,46.300304498078205,36.19154234736293,32.47242002611032,38.98707441391764,35.785487394626685,28.71466253594613,29.404740320377908,22.298193463688776,7.995691830311423,6.029464159767735,4.255651348229137,-12.561792566366721,-24.20689263010241,-23.435558657873464,-27.05274535262314,-28.369304026452294,-19.842801124336944,-20.259056420527983,-27.183969347450233,-20.234251116747128,-12.94362817414203,-20.046232331882525,-20.47635089382208,-7.03722265171438,2.878044750250078,13.562779880850284,29.74986814592355,30.578207889322186,18.92709013248854,21.731268603545782,31.705763425238406,31.479956696394623,34.58949210255473,41.60897772770486,33.8653076587786,23.43929184124746,23.903488248379837,15.226672469898325,-3.7674665505129603,-9.872027358913265,-11.159792933890964,-22.086828453614604,-25.862204931037247,-20.139653604586876,-22.90126580393849,-22.574695087366493,-6.226607119141961,3.2359427289545692,-2.659905245398695,-6.00056069879907,-11.227803975898684,-24.09783885441823,-23.498111185488252,-10.303997080769825,-8.38341334233433,-10.18854644775971,-3.016045231155185,-2.9522877756511665,-8.233768934656073,1.205720624978933,14.426808620078207,19.416455612511214,32.13428533404415,46.94857022579693,41.300437357009365,30.604487236938013,35.87239571746851,43.700690192477275,49.91388776107154,65.58233127217278,74.59977813534793,64.31667479229148,56.76738666713421,58.09934866351398,51.69774492893261,47.00480750495801,54.46272899066623,53.38741761941138,40.111500401811576,34.239204182821496,29.506008923677904,18.024799506417136,18.315946904213238,26.220663791562323,18.26021883827455,6.383385514834637,6.40296631081366,1.2347249635500313,-11.124809252412675,-13.24342908532628,-15.779554309747699,-27.85485608457525,-26.189106920110866,-8.466539423056778,1.4690947086617376,7.92343680800764,20.485832595067425,22.45936587855743,16.182900122483495,23.090010006774786,33.752950007776384,34.806796601400784,41.15097693798503,51.51279410625033,46.855368886655974,37.25179475940722,34.81139808766916,26.05746813947063,17.347736068961282,28.468827634370125,41.96074833242979,37.101196994319096,26.39370122873047,12.404476922854764,-13.087563386655951,-29.205096343990192,-24.06900024658681,-22.766693049118896,-30.327837974524574,-27.515466198867095,-22.735636678494362,-27.297364476953636,-25.46619988921696,-19.501208216895293,-27.496548494304648,-34.75627127074206,-27.11894119543326,-24.25931452904055,-28.696008838289302,-21.898248481125194,-13.33203662869365,-13.217835465442297,-4.280311039330443,9.809275377647788,8.311522439775775,5.879439222556758,17.717415366210286,22.88335241102844,16.479878580740564,15.24909303755529,8.870587180822907,-8.483673827144273,-9.382160022764658,6.75192760528862,10.5038633629974,5.27830440688713,4.176908521015267,-6.830798677282738,-22.8885021103624,-20.995589090535688,-14.553396181785274,-22.171193410982106,-27.272560409312646,-24.981915144832513,-30.84756964566504,-33.87730089493742,-23.176113346915482,-20.494373159638226,-29.220175787283456,-27.652478009295766,-22.37285586744193,-24.11193095446487,-15.232545956599065,0.8140338518612129,0.020074296649058798,-6.120147555989152,-1.6403920670069665,-2.8507660314173324,-8.519289586676587,0.6685752352093388,9.832330515517839,3.490005631954484,1.601871604758644,6.370981963024775,-2.003072124087647,-10.941525932927348,-6.505852981947889,-9.14327693062044,-20.36271336408537,-20.537408316388852,-22.86730188341932,-40.93183273173601,-52.52627317146713,-52.63203041673006,-60.10304634884462,-65.85614090050255,-59.70130237147559,-62.21741239735802,-73.13932728277616,-69.03399996826991,-59.04402030950105,-58.616983003007604,-52.374090794794164,-39.09480385158321,-35.42249735074895,-28.88756316235512,-9.265093932281168,0.9764192467884959,0.12497982255239615,9.647385637220035,21.57015838742657,24.479441051178647,33.05479554573638,42.4317978778591,33.96709920642061,25.390376580254625,33.19335320861196,36.85954261174827,31.79009660731103,34.28720152579327,32.71610125049538,17.90387141480174,12.203380850717867,14.577289352360104,1.3495936707963985,-14.589420655526695,-13.61418431604928,-11.277021876053055,-12.481397193240548,-4.788409331801897,-4.154800712335705,-21.617322337385684,-31.190020688907683,-27.80701796251631,-33.74100996645144,-41.74157820154903,-38.31800954104336,-36.957912252998256,-34.570805462016295,-15.239745136790475,2.3489576980978213,2.2393558337901514,4.26289418943861,12.07314575507829,11.25179238658314,15.94950016881203,35.50554658616759,47.061507747123514,48.89756482493887,58.284469060021536,62.02523160282428,49.78339544387997,42.044382253733694,40.26668494961079,30.17848714417311,26.870818385363652,39.15237725751283,41.38858994835444,26.887145965666534,14.317470190411782,1.7742921747163019,-13.032699452889531,-12.402542836301649,-4.211845136698335,-13.242221465597535,-27.42217011401263,-29.91376416429904,-34.59164364203222,-41.46024350574781,-36.796788561856374,-35.36052329773735,-45.676888396552876,-45.41826663805645,-34.94728567804897,-33.86719855023528,-30.33813795962368,-13.447359596823489,-3.177852203478625,-0.3818172958773731,13.070449340168478,25.927809217725603,27.3302013072207,34.97219403054344,47.56254209413869,47.553926323156034,48.08707723705672,59.6903769741658,60.838894723395356,49.84303706434109,46.07284655804874,41.1556827240688,28.072926031638744,26.06494769402749,30.638043204928714,21.118423728978115,11.776632196614186,15.286130553109741,10.469635947497018,-4.819161322103578,-11.524798572737051,-18.409330389722783,-32.44224268679991,-32.38195522232945,-21.466311073501952,-23.95509763352984,-30.234743772648194,-26.54126010456718,-27.657969644722666,-30.767293595715806,-18.80128747714793,-8.376620808085896,-13.934155622265259,-15.852806678898952,-11.448214714103894,-15.447026177342831,-13.719677724785782,3.1634134496677557,12.93554269685366,14.487867853702426,25.79278210986848,34.10082962188686,29.409599109038123,32.76400108399719,43.05642513590805,40.533730002978075,37.39615719062016,43.00560572085623,36.307024852667425,19.75111517521609,15.613377743044095,14.616340246211443,7.560915040894788,11.116339247242095,17.550441312441418,4.464983387307766,-12.088916782032353,-15.185440614764104,-21.7490281053511,-32.91056264375979,-33.45458784497332,-36.20349621729976,-47.056526158025434,-41.74522385617941,-23.49427799736526,-18.38761953312052,-19.156200558740153,-14.59984824105452,-19.423973651453792,-27.866137429879526,-19.920865760752847,-9.758703287088965,-10.440530046874587,-4.228529582412324,6.839044890930718,4.1490182954061074,1.8123031206138964,12.682884803312623,18.509847356170518,18.93451742050579,28.36568172894404,30.989170587547456,17.6762761461923,12.44388658244806,17.111284245700233,12.396752901237683,7.843000087992328,11.792590920082851,5.575117176429778,-7.486857655528441,-7.7356597087650805,-8.922778682935963,-23.250949091713203,-29.305059664384455,-24.74454544875911,-28.024915939734672,-28.586830463270765,-18.73957225672443,-20.751537512173208,-32.500689346965764,-31.678686152764854,-28.394910715782608,-32.04132798226793,-23.32776723056871,-5.942659950027583,-1.7421412546196846,0.5686808210490862,12.88065699568604,18.01743524075891,17.76912531094762,28.830304712484942,36.578051090022704,30.224808712512168,30.414151052864383,38.612647583181946,38.24330297486677,39.73379359285038,49.80231752524065,47.32459348730177,32.912209183723235,25.846939225272898,16.866436181974926,-0.8366591460743553,-6.395742276434676,-1.3411974014452004,-5.033998105273174,-6.66297135680758,1.801516666501846,-0.8129391285525589,-14.097375987880119,-18.356877919414387,-22.09408467886621,-31.62121516923721,-26.894913051586215,-12.560265168447982,-12.251385679709994,-16.28545301618169,-11.683145641818786,-11.03253655160469,-9.47092196959927,6.791528247080806,17.766128821511952,9.975143842426,5.0373603257529505,7.772637808230194,5.037275157801717,8.870932833072985,25.650111104713908,34.041963043073515,35.39600031276908,46.81387183116366,52.59576691408563,40.53211614587021,31.303911077273213,27.772441748140416,16.519933142498594,12.182189586156898,22.39195620454557,23.3137815179776,13.684611992406829,11.543847655961942,5.275227412937641,-13.161666608874533,-22.38622531352729,-23.301910133874134,-33.18719237112361,-37.20444433406812,-25.182957034086563,-19.44609043702351,-22.152410865639844,-17.62037303939559,-18.72852325957012,-32.28486488587245,-34.686368208491835,-26.525110116076434,-27.161368454990498,-24.229063436039922,-9.122145874276082,-3.420362231144644,-6.296341931770219,-0.4349017699825044,2.525921192455345,-0.9461534670815834,12.08939740292901,33.829035947411,37.470611792182034,32.7248249956311,32.89297552819637,26.27071215025059,20.168994738261013,29.195135388802864,31.501197790175688,14.320870252333126,2.4016680096212157,-1.0080515466807158,-13.618835551934936,-22.935231184560866,-18.282680540660156,-18.52990423740108,-22.801233802682155,-16.706697696508318,-17.837975749781897,-35.63777053807599,-44.6949205890331,-42.41020819556723,-48.12459572263853,-51.50590538937703,-42.94257562041322,-40.508916659436835,-40.96100155893728,-27.40775358169725,-16.777715362726887,-20.214925522190903,-16.104703693027382,-5.106638711520557,-5.573122123956239,-3.7003891259115207,11.478029691722938,19.865576767703512,21.039342511982635,30.274139248622078,33.06349621830374,21.493096663111743,18.514559217309206,23.92780635962322,19.073977799190118,15.213536061334356,19.675338221909843,11.544401884882522,-6.025977335632577,-11.050410239488716,-11.732543423421905,-16.08921135344162,-9.777530304117644,-3.3035985066710407,-17.33532938188607,-32.9958859017435,-33.942498438776624,-37.20565588620431,-41.897205756222675,-33.61478148237795,-28.366766861130724,-34.78912821326106,-32.44145608689808,-24.880855406521913,-29.089860511178312,-28.370829902450005,-12.046713150688685,-1.8557135986122733,0.01938828530253811,8.236215623555173,10.787448168297981,2.6900055349634173,6.183715248842222,17.970994596904877,18.6065690962281,21.030141414485705,34.085814345830215,37.56229648257699,32.39255740625177,34.024311340831716,29.043254844203748,13.035722719441514,11.1347377376966,20.24724617951743,16.927232021631823,10.543235307136417,9.38398511514317,-3.3759249913865164,-19.810613361015584,-20.278197822023664,-20.68041413966089,-31.234572504270123,-31.81661872674934,-24.94613708172554,-27.924401599398927,-27.461723326127924,-16.57458533247754,-15.644065800285421,-21.15240705221878,-16.367669657758213,-15.817177647605543,-25.76589776720278,-23.880805709294272,-13.440618211476107,-12.358080554941015,-6.379708279779595,11.61243668201942,19.773045239989546,19.633675819593652,26.42214661857902,26.918066177647436,18.409199232975823,24.577039735364714,39.99127625470248,42.03710298250957,39.93546900751966,41.3547202880333,30.91654970010969,15.948473274535758,14.772023481114765,13.99458820885748,6.086679401232817,10.058930810150327,19.562321356146747,13.614223705495416,5.73525919999641,7.0598526338180125,1.1196002174846837,-7.544874879851648,-4.031828511132358,-5.522326284339035,-19.458730904782215,-22.39671269400582,-15.049986223260795,-13.802475060767424,-5.7550630847955935,12.974683524215877,18.241778133434483,12.778964820459631,16.04855762853244,17.026622635535098,9.752108853706197,13.687304230854417,23.725574171501005,21.936365836357872,22.722443462725543,33.63727885439038,33.37626070415889,25.485347586317744,28.84734298547124,29.854608371391468,20.27450180906872,19.281364193050546,21.31011195213265,9.349861420433774,1.2946156081545752,7.044949624482666,4.8362236407821655,-4.2449942018748175,-4.241526649865403,-9.849322764856673,-27.311541499827374,-32.715695832232704,-28.14631573521242,-33.076179142681994,-35.764943518503244,-29.25823018551727,-31.88170735732227,-36.982376893614095,-26.40773633390583,-15.84925392861511,-15.30447259367714,-6.866236553394236,5.436118049269057,6.284444306686215,10.916516058585536,25.613129889540467,29.631591998137345,28.058344478550893,38.26559816332428,43.8780171652267,35.76000061356374,33.836601991844,35.6117620627709,27.512744942565327,25.645445599913472,33.84847411523773,26.81062157478697,8.366972944484601,1.952660728816655,-1.0518097166554023,-8.247307600849199,-4.154953218145192,0.7635706144352565,-13.315820675531866,-27.309043778440078,-28.485876565903247,-36.51521509272304,-48.37866042442357,-45.60000580678428,-39.521072854329894,-35.05260478561603,-14.043737769044963,10.739269042356412,14.050532869412738,11.35539566299089,17.499491455245263,19.11162258469647,21.316028084906193,34.99951660196617,38.72418629196635,25.778520138966268,22.766171948116856,29.745665812152122,28.341202738491397,29.87432628537339,40.041402340730755,39.03299089683536,32.340150154022666,36.940262484186746,36.16667911775539,21.366084863642314,13.178359579853325,9.076933889637909,-5.6202053946658665,-14.666760270963877,-10.854821962796045,-15.795900966330363,-27.115615211071987,-28.15428606095161,-31.745764568220896,-43.27779602537267,-43.30029939695882,-39.46520435330151,-51.28764230389354,-62.52049780160357,-61.5045281691615,-64.86707510742315,-68.14254394644871,-56.42634496579534,-45.73796885785558,-43.22574503009995,-29.231515648457098,-10.16894259156367,-6.138005620294757,-5.065098550926829,1.2867689962900255,-1.7747900268707815,-5.314422184757021,6.875386556296036,16.540648876285033,13.847283383089172,17.474809709641377,24.305688731575906,20.629107481778533,20.976931757383284,29.21077708642726,24.08076875478197,11.180864667909507,8.536007818374745,2.2492176367888934,-14.212006240888753,-20.442507664014745,-19.71813169883378,-27.1658628049154,-28.337364991365128,-19.209865194355316,-22.484477749403002,-33.25190950987321,-32.36866212649852,-32.869863989426435,-41.822932574521865,-40.51024851794294,-34.0693505467304,-38.39575650225403,-38.17856756570872,-27.680611023649426,-27.61251984926794,-31.327677818526265,-19.88707213664543,-8.079637981116889,-4.770770645199681,5.84159379893625,15.542291762290466,9.569300478818178,8.2438861780993,21.166419765999706,27.792427648880263,30.600990650169653,41.52996204320316,42.83505163505663,31.205882358042047,31.014426529228004,38.125989924296846,34.631950062133384,32.77398930372175,36.79171883668924,27.863629745108053,13.977598824476999,12.277639035785246,5.616260742872395,-14.092315227335215,-25.430209065172793,-29.865185160786076,-41.18636963264794,-44.881947343169664,-37.64761411011592,-42.660470299681506,-55.382911858851905,-56.62542280506068,-58.23138334610999,-65.4733100350774,-58.65118728361008,-43.534965075676595,-37.79891203299037,-28.193360011204724,-9.791455189396798,-2.466043837624312,0.07136511319566011,13.937458377473213,22.193104395662004,17.15423028583964,18.659215890058025,23.287784162267677,18.044572718549524,19.6421353584153,32.564766458804215,35.26004148409146,33.56986638502359,43.01718737779139,46.05835026597758,35.99566053144327,33.3812800793972,33.53923105691905,22.174091462670404,15.991213839509125,20.213998465449098,14.111480209857167,3.620599908454449,4.4156262749079325,0.7432739655364908,-11.64408140608925,-10.99881899681991,-3.5055422806751295,-7.6342822819938245,-9.280819743717398,-1.338229693543827,-1.8233925014249985,-3.7602504417974734,8.082343859081362,14.080692624543921,6.410452414256049,9.344344464675103,21.162778048369805,25.20423462136265,33.81361521443949,48.47416373858775,47.76344002989312,41.59087796866696,50.760200956911405,59.71115030433242,57.748876570451145,59.50501218208786,58.27877653490363,42.838118169886414,34.77719350657698,40.417920112653526,35.798895274086526,24.818126394338798,24.68179411725851,22.128684695110017,12.590640631930462,12.73717660809178,12.09261202291265,-3.794852121029394,-13.521655474175025,-8.823615262197464,-11.383360862328399,-17.76490380695154,-13.130390603016924,-12.3575522994788,-20.126460744111224,-18.168008088257327,-14.825903155837683,-23.496220701710484,-22.596716383038906,-4.3031347173753405,6.775008916790351,8.060554952495806,11.140461123726533,6.392021751373228,-1.8049780752909133,9.760375319862357,30.352533772656592,36.152274067582354,37.23691192323212,41.0733334103257,35.60672512191963,31.22448363534433,39.4375837338191,38.38187271183496,22.20507292677187,14.895383747726916,13.308827129809494,2.1997470916962,-3.443411040516072,-0.47077689867834804,-9.908238939555552,-21.99121548042565,-17.833620506215766,-16.71575857922369,-28.515676627387325,-32.613848034697625,-33.13091118384915,-44.09811920107172,-46.96200957619875,-36.06594579252596,-34.80728994847876,-39.72309542960989,-35.1154668907049,-35.0904182045693,-42.2583068554976,-35.01883874320099,-21.065249407020644,-18.66138443736584,-13.764604160213556,-2.6960791432662456,-5.461679913167051,-12.706321570389644,-5.202153944190267,2.4574569215972337,4.2564132682838896,16.93004144037156,28.16493427108016,18.720227516606958,7.895072590752111,7.304922668294267,1.310472922579324,-2.2464046472477674,9.642188375320469,15.922901345717793,9.960548993721073,14.273092125610901,23.16741159303554,19.36913554529273,16.687443622554166,16.85502555747667,-1.2623881964055537,-25.717134573556685,-33.72964110367302,-39.404763801465556,-49.138427518090126,-44.033135793382414,-33.98489079942657,-37.83568663095569,-37.8658306981519,-26.73404320853485,-24.470732734041057,-24.3042095961164,-12.391036651242437,-8.684637470527267,-18.453644753126614,-17.129256246735103,-6.338195168508476,-0.33323756211889877,11.652068966473676,26.189844199907473,21.46594812791106,10.81649479048028,16.00346943424101,20.121950329483276,13.005906626614884,11.09771026691441,9.16515487503367,-2.587936612798429,-3.8925524161570704,6.991346132738128,3.369014392045771,-9.777034260311957,-13.389774573891867,-20.4774233505626,-35.60658375447435,-39.000906120442146,-36.42053352849251,-42.85503799197117,-42.88615429112118,-32.677895195475756,-34.40910521625649,-42.52233228742606,-38.952466816993805,-37.12746337860493,-42.23889860747125,-36.29418361328068,-27.254232826345792,-28.673605070719955,-21.98500449143702,-3.6728789396433794,3.064481288664413,2.541037828136416,9.049774955616202,9.138490182615698,3.4546309008164755,13.034809293428161,26.580313227335964,25.21073791829148,24.70581302140672,30.903055265440244,26.681651283957564,20.951027844844894,27.262402359738612,26.86081370807813,14.82720210614788,11.333954234573588,9.338915616471613,-5.264790416575925,-14.517669600482744,-12.81828838091619,-18.618558008156697,-23.826692143255592,-15.43940940959018,-13.665970147474155,-24.18218260474065,-25.39064833435809,-22.852452785156984,-30.69383908195138,-31.687208106587292,-21.88799506416312,-21.687041377577245,-22.33891637513483,-8.213572013953518,1.6894004923629589,0.4866384912018502,7.0991229138788405,14.045164230380223,7.548253334803719,6.924825504386595,19.302174981276533,25.962777279701413,32.46521219261324,48.683256566704934,52.661900255969414,39.77396627340073,34.83541967888058,35.257911874068974,27.537727340695877,26.257056280380787,32.23337401475586,25.181028984250545,15.099119146176985,17.778255770525092,15.607378813469534,4.448959193145148,4.210393549638656,5.726921090111094,-7.095711295418624,-16.699146909166714,-16.595136262831744,-22.985092173511177,-26.188327892427928,-15.635380977290705,-14.747665102278566,-27.419717716289075,-27.233017400635006,-17.343894317124693,-14.296657402586952,-6.348820366445466,7.638221611669395,9.345107462332143,8.979365492872825,20.641203516615303,24.116791002405414,13.715737260621713,14.042882947232366,24.191534323713057,28.071011330093036,34.4770050427016,42.43133560504281,33.86494124083268,22.227193006143025,26.208041240331877,27.68385638256935,19.311065696103864,20.469902051513024,25.080537506414636,17.841944488138296,12.838697343194092,13.134775010636487,2.197865851422915,-7.26705214153184,-0.6068255813690362,-0.6336447221129208,-15.584181340398363,-23.21062686964555,-24.754794509277918,-30.959259207020196,-27.497909508413056,-15.887388621991201,-18.033927611015553,-23.346599597106533,-13.941737025062437,-7.000456362918681,-8.996493116199666,-2.1326177025080755,5.219385647267503,-0.33828769841675,0.731950488150277,14.273367913840843,20.659190361749232,25.93662267966645,39.951499695511295,40.85165183980692,25.217937030679572,18.1085377407568,16.823872488815372,9.898277456975348,14.113668818684877,28.60949155671233,28.03598975882128,18.564566920219317,16.182063499344316,6.454931979043134,-10.988383366246445,-13.947119379099224,-11.715818697795457,-21.857062974038268,-27.608392809034456,-23.24955757778133,-27.5332224374052,-32.15042146000777,-22.809555044771173,-18.64498734577339,-26.616284858028777,-27.997484385274205,-27.07081147467617,-32.687686153240094,-25.987680655405924,-6.613071128454425,-0.11463420037862854,-2.733066990100457,0.7194558414577363,-0.21094021511742245,-3.0605189110981565,9.277985832796151,21.337745805822454,17.01569626596276,16.776818663794142,26.982056411679906,29.43772470560093,30.415723913205245,38.464962533622085,34.95933745767521,21.167889369600406,19.328336527711084,19.85968017414622,8.260087843182491,2.666680159205005,7.308877926917061,2.825398528074875,-3.9913385796071617,-1.8043626385891234,-8.45787700825656,-24.00795114027668,-25.42204961066094,-21.215085025530584,-26.46321607339974,-23.85284753907178,-12.282665508091995,-15.309623123920558,-24.047416136029764,-19.019520117930497,-12.976255246313382,-8.401107030101898,9.803831411390345,23.165740211911274,11.762075859011922,-0.035398191339566676,2.828056184181663,4.260245019308719,8.70297399077757,25.698427744340364,33.70976406290733,26.061306309393043,24.041557474786458,23.654974474810068,12.512294054063766,9.146855881543187,19.310604703477335,21.589638794755942,18.41114359036242,20.67405683433727,12.35518811843632,-7.279388889803823,-16.218516091783723,-21.91424901805,-37.77431185977464,-44.18567853551805,-37.15078999228614,-37.961927234759,-38.95008188549343,-29.21108681539811,-31.005311193008314,-45.285439995458084,-45.71369614892868,