-25.200739243108288,-10.323604702594444,-14.004156240916371,-23.609129957748564,-13.604028271100635,-13.690070467272566,-28.938230752939102,-23.95758621420989,-15.2224300450644,-28.839258254410232,-31.54955356410961,-15.47403386858862,-18.016558226577413,-27.949170214125925,-22.062956979421642,-30.21681339167413,-53.52762537127526,-51.399106173837616,-38.70979898322608,-45.978594808203255,-47.04449565049547,-37.0074467847221,-49.079926549727524,-63.327287899797994,-49.37969803206764,-38.500377328868545,-42.10772371998963,-29.312321169171703,-17.303182946748098,-33.12497930770554,-43.35256140861337,-36.16611922392964,-45.038591157163346,-57.10021594277351,-49.114727936677184,-53.05882922026631,-72.78009117407251,-67.76083890784884,-51.01550906690966,-53.183298134191475,-49.9417547965453,-36.584131407357994,-45.870825658863346,-59.38859990284173,-49.17094913916358,-46.92068127551127,-60.76495892793472,-54.22892476449853,-40.874125564742585,-50.127982907498094,-55.4794690698682,-47.90456507428501,-56.36900849446897,-62.322046747913504,-40.924618795320484,-30.23572450179399,-45.08684102201655,-49.24300974707655,-48.693788722196075,-62.949986405259935,-61.27556878400385,-40.96894866751059,-41.338538792964165,-48.52274767779509,-33.715480319508856,-24.475272554675936,-28.511144661288334,-14.036827713825975,1.943052029314515,-8.876768399284884,-16.292825074898218,-9.351269892999392,-18.484146561420065,-26.98469596161369,-9.612265784915163,-1.3018396888578687,-13.470929509251572,-9.681308187216018,1.1250333967128188,-4.190318144670179,4.389338137773159,31.79221564680936,38.02423039275397,34.38095186760607,50.6417129813756,60.58250254466867,57.140009505587344,74.38195726429811,94.78153895450674,86.0362657642514,77.12412894813188,81.6832217577221,70.65898157695689,58.77404001775726,70.45389030777118,71.74601668105893,49.54618781645061,37.81709589965372,28.49139744938024,1.2706611570859785,-9.920248414526935,4.004688353546572,2.0164531137141584,-11.277365464240988,-9.553361524900165,-15.39572903237844,-31.78020498705774,-24.10878774296696,-11.227894163497508,-27.491262881412293,-42.9868668968108,-40.23540504382892,-49.40777909680755,-60.665684177474446,-50.60301342361052,-50.817025998625226,-70.72739704490705,-73.02444607467825,-68.98898622676404,-88.5192706201363,-103.84433674280373,-103.76709820205805,-121.52536287447504,-142.6132005846113,-135.61322712622774,-129.37684964801775,-137.9602418701543,-130.08282914800128,-120.04751452370803,-136.1213600173201,-144.90182508923382,-132.31711651873832,-134.8919693109736,-142.30201187517858,-125.21483649797693,-113.28823154354814,-119.50950237184585,-109.90922078963766,-96.27278039943732,-106.1827613561708,-106.97573992288834,-84.80796156107614,-77.73696068407858,-79.64678673848718,-62.8654284609904,-53.97682877556235,-62.58976292145769,-52.30965534768167,-33.55519693147611,-36.8205945486723,-34.944195382914074,-16.041645271758156,-15.181813970431786,-20.823685181703762,-0.2768723829925541,21.505514802310547,31.781795801324776,59.69883735165041,87.00700154005568,81.26443714852121,76.01707279777355,91.6253292809349,95.53808821962461,94.32089561254617,112.0732992376597,117.66629307207745,100.69859812542566,100.15373659257713,105.92326708300081,86.06514730458846,69.07793682136537,69.98011367284388,55.231331698422736,34.72065460744793,36.76247488766013,33.41182221871797,14.58420974776597,16.60159335623115,26.828411120960517,11.191590178326415,-3.8761002055650877,-2.7921108841498703,-16.183657898908038,-31.554836997681715,-20.624070159440564,-14.812731159383311,-27.688135507579663,-22.89746910298316,-9.65697799469428,-18.4444117499841,-22.979249686118422,-10.109092421963599,-12.095834652639281,-17.527296123861866,2.6217633837329206,18.330244543236315,15.39973801520454,30.145315792002396,54.489958208863,58.12445121026982,65.8195843387112,86.61976695225887,84.68221743199318,73.14941738905978,87.14349787373943,101.37790656270708,99.93711560402724,113.0295362903776,127.2511314140097,111.64362764592823,99.45687526174768,111.7552690595578,115.02573628704592,114.0840908602941,133.41298690785817,142.072167955235,128.76208948723402,134.88539445747244,154.1587776143582,152.16981281194643,149.77025167652968,156.9031991926562,140.4491286556741,116.19035647559107,120.49594804033495,125.81032117306808,113.18547943534034,113.54087158246733,118.14669025181028,98.32398035127875,82.05118082271483,83.05030981207528,65.72587408798181,39.58477200235019,38.83013014070022,39.56480850832217,26.54445867028107,30.902277712642707,41.16267387310845,25.92142255286637,13.154943937953231,18.61579305590213,9.058653425454027,-5.488204822562237,5.839326513496344,14.577930793735163,4.171801040245274,7.501910788175683,14.99361905388768,-3.7974594762635494,-19.793946478080283,-16.0191794259031,-25.855114956486805,-40.31744090655968,-30.136230369113665,-25.43355882385723,-41.68285880449791,-42.47549046991959,-34.45943446239374,-47.751118359649745,-56.10532996565808,-45.16662032457451,-48.7464713162318,-58.08983766796234,-43.36767765498083,-33.76202615041697,-45.93759690764479,-44.99883671574787,-38.054049542058436,-55.99096062409106,-71.57898241456837,-66.83685178324713,-73.67487977169546,-84.54156773487306,-71.39859568832979,-65.70177708769243,-85.02125304686113,-90.89542655697437,-87.1615996912515,-105.23915561919094,-119.01501701984849,-113.76176533948905,-126.17665287538563,-147.25049004963628,-141.50690520949078,-133.52207987573632,-137.11611237047055,-115.07922440258804,-78.53273241172275,-68.66012332067879,-64.84454838912453,-49.87493298757823,-55.03487838985395,-69.12668503578149,-57.01750493238974,-45.9291281898521,-55.4727140630282,-52.539936647936585,-46.385728357874385,-73.17041950335026,-109.13430786063125,-134.94751517800304,-176.75118289351758,-217.89224937834297,-220.56247801517543,-208.62455949433252,-198.91812243096882,-160.3799800165657,-104.87984002886333,-68.88660217186329,-30.798447697530406,23.259387339745246,59.23838407110774,84.61551076949361,129.49678607738986,163.63679505931844,164.25265547569506,162.09169906799443,155.32564654634115,123.96008973130024,105.95065735995539,124.28846975971507,140.56835517600905,150.83637662566463,180.55386390102367,204.05865408676493,202.39911680398757,200.84733949663,183.88768836800074,118.38085378292355,39.590803673186386,-17.192553435375416,-69.9379970658089,-110.07680130667252,-114.55621151675406,-115.66596935185025,-131.84717951754044,-129.32463588407524,-111.02399570635092,-103.03993649884308,-81.71711414016515,-40.28339485459756,-22.871289148599708,-29.726413548013813,-30.30870047978172,-40.49365533952711,-61.148824819757316,-51.19259691237292,-21.106591801572804,-7.715460089980932,10.270839730459688,45.46912169524296,64.2847977263028,76.05671897949007,111.15644361918413,141.18776092576041,148.3776779248338,162.86867126561978,173.98376543475644,153.77292225798885,134.56354797582262,135.82618423779996,124.97169467966191,106.65075808246114,106.10914171173796,97.78451178867815,73.42886441834743,70.79501404014188,79.73181077670526,65.32313268617435,49.60184545428961,45.85907083973248,24.936084528599217,1.305119706846293,4.663399893358959,3.654362188002233,-19.215534401624225,-32.91877206117433,-47.250374492849765,-88.42646377539663,-126.11389148278968,-145.82453058386156,-179.07228959784533,-212.48824077716492,-215.2460674185792,-216.64878433957796,-233.76699219060293,-238.94613717647601,-245.1040925432555,-274.5334980928499,-290.04729599001445,-275.0858451222273,-263.80087207043346,-251.038784247094,-216.8373920819503,-193.19462524379443,-191.91889481073096,-180.33565005081758,-167.37552080682855,-174.07017004964456,-168.46214793124972,-140.54231129453507,-125.7525090869085,-116.18861645433962,-84.85347882134587,-51.40940283352276,-18.998400021361917,42.22948894487864,112.08851932963293,155.64906914750193,196.09907013144039,246.24490194177244,279.04855679471694,304.64017658210366,343.6378934770916,367.90281969368544,369.31915735839664,379.7896028018993,389.7470685719399,374.78209897586544,358.624276404016,350.18051173816264,322.6622920639214,289.2401431454602,274.3348304446453,253.47981847315307,218.66906367209748,198.99108408905713,183.83325683066798,150.62084281388775,124.85266961837425,113.22905788628931,82.09054478860294,40.347141994872345,16.007282949232902,-9.977232548791223,-41.09151290824505,-42.78785427719356,-26.596883345364944,-24.87582325220626,-19.539482115051275,-5.586410516868091,-19.428593529353172,-54.60366068160911,-77.24166688135861,-91.32685343486058,-79.4720534061334,15.030114650741165,177.54797428485665,324.71917037370554,406.6318278159492,393.60990553734285,276.06413365659296,136.09429249282692,61.50476489214222,25.293856716255984,-27.350722381443838,-97.1875087725954,-186.27880447230547,-287.19417131619036,-352.16162729258986,-380.703152312409,-425.1165285709284,-472.76586526211577,-474.22620266818535,-447.1834895644944,-422.2138538746012,-391.92853693956016,-375.0046425214276,-391.53821838678056,-400.11385583301114,-378.5970090087305,-363.33909551335574,-352.7470169351536,-318.3065871739494,-284.3577323319618,-266.74654318464496,-234.26438081565038,-194.1895725062595,-176.23069952078396,-157.54306551665346,-126.42617036857524,-117.12012235540897,-121.99947146840115,-109.20481011182403,-101.74918736507587,-114.97750114051732,-117.30362400972928,-114.25827460003072,-132.38576355506873,-145.27640345271647,-137.16461361032728,-139.2401220156158,-145.50164446867387,-127.99729282207994,-109.11503797283112,-100.3184403705996,-69.45086646090299,-25.442127281492173,0.673896824251885,30.1748663139549,75.18769211446643,105.9234315212008,130.55864506549756,174.72067476724342,212.8921510968209,231.13152582918894,258.6991167010061,288.1966457610465,293.5166129292572,298.51570437706374,317.10832721311044,320.9900850465458,316.96209071194266,328.1147214417012,328.41537140944826,307.4894247589699,300.61781758655707,303.60862995179775,289.62925199369283,280.4871668456703,287.6267501207634,281.4375019897905,269.91512747137773,277.3546547103546,276.7189244606463,255.4082774247958,247.83515760827783,250.9972448114954,238.1658699510083,229.33518557257204,235.44145284835878,228.34193099588538,218.7289521658575,234.14855807905488,247.1805108578273,238.99377622365955,235.58957892574313,228.65543036705787,193.70977330201376,158.55942953992633,140.25229855253173,112.08776477868327,82.38144310441685,74.67361797218962,60.59819252590517,26.723499237947777,8.393967313374183,3.5085376923104485,-13.65136674212875,-20.034766931675776,-3.544557357832402,2.856237219348297,3.3031153968001497,21.822740723837313,30.215425540937673,13.739943367102613,10.191429660173497,21.21892001115351,18.36986572892568,18.296618118647473,29.484904805910492,17.31796219545228,-12.760039156593177,-29.814591408438126,-55.723582129297476,-106.53538869442816,-149.7339403432633,-186.14917367584417,-241.96120212627716,-293.8254899861386,-323.9579870463617,-360.3078642563606,-397.3095803068379,-407.2535265975552,-414.59503802369505,-436.4221670072423,-439.30611603805914,-423.4068874999846,-417.07390379734926,-401.5173943111124,-364.4442817038745,-337.38687404079235,-313.5044190394336,-261.26808922039623,-204.16987453448166,-163.58124502598372,-113.67486528692473,-60.56090939940734,-33.370581918368764,-9.984696096630566,25.169703787139248,39.60296049273083,35.94135333580655,43.83071616544683,42.09400190217073,13.482012438365885,-10.662780018527565,-29.962355585389464,-68.49884326853194,-99.76407566846963,-104.1287020733853,-113.32600750765204,-125.02211972429524,-107.02477043413043,-77.72346937265357,-54.79952620348365,-11.095136301941995,45.59816257351806,81.0457453371597,114.33837762052227,161.52074115008256,188.51693757357683,195.64708560242397,213.19694340451974,220.5601735842986,200.08629925120454,183.08985684195298,167.20290468173354,123.49732553344127,77.30120839031545,49.90740513591588,9.235162197112949,-45.070574277419325,-84.59913790045196,-130.46160255160788,-196.23850302414272,-242.99855354351484,-266.8954580194828,-294.82152695091867,-301.41168828725847,-263.1209064518387,-208.54634373776088,-139.59840428333595,-37.6330577604255,61.19333436999665,129.97983691394188,200.29505711163145,271.62403684178906,311.78404041537704,337.88124575508164,363.7116592182683,356.964220268321,322.34936829865467,292.1036192004361,246.77876801730264,174.65387585716275,116.35993479622009,74.21206255156164,14.48444572791081,-47.183099081687985,-93.51112574007574,-149.71591078275654,-204.4120348831044,-224.44341999928588,-240.62521605208408,-284.1264663511975,-325.8543352591232,-354.9985251437942,-379.1117815631667,-356.1203108634585,-262.37640766700827,-143.93833941525912,-25.848065541624177,98.08436200402478,196.30683227189132,254.6055591130615,316.2682732881114,387.74285410726435,434.9575801650467,468.4053083337981,498.88709541956433,492.7598653997518,452.68370502928167,411.002467989675,348.2231144964096,250.64605628141322,160.08050487906945,85.34581486931225,0.33902127398866,-76.26770176184657,-132.64380132314335,-206.2047287048345,-294.73329904122494,-358.6637462411002,-405.5458455186401,-439.885106834892,-418.71193394773627,-342.8968820369875,-256.8403715683934,-157.62247621791278,-40.16557187736322,54.45776137375258,123.29355516919586,198.9363549320119,263.2789643944765,298.5088590949086,337.099207750524,376.7887301321253,381.88568508877216,368.71858221126087,356.61616793059113,318.8800745242123,262.80375547353435,223.13914346492726,178.8369322610162,107.80459983484317,39.94965234475898,-23.7555314686278,-111.61192041926174,-200.65519614889504,-266.7488474421561,-332.6640589024805,-385.38944517869555,-381.9078494484919,-340.14453785805256,-290.29784000274304,-217.5895139003412,-136.17948328223414,-83.23881987056005,-35.586483630054694,32.47164427240311,90.16086046694846,134.04956526236435,192.4732268401529,241.98165700956855,258.31484707234404,270.7866909168712,279.52551842632505,253.6701886904341,215.53478168259298,188.5609103413876,141.63160045147038,72.78629729023564,15.05915586081297,-45.56149315742316,-124.7639921264796,-191.55025749056563,-246.25371351100762,-316.09523127444464,-372.6588664796608,-385.4296389464646,-378.74272089631785,-355.0306159906262,-292.3664861149056,-219.84131797874724,-163.79376234027927,-97.86361307698142,-25.65914234228412,21.07834947610765,65.17815834040833,128.79832826304374,178.63438184603896,208.81502726546168,243.27309370704023,256.61991886731755,228.57895688391437,195.71755359926095,165.24610465039655,110.48701397743915,53.62356419554625,15.77355782630741,-35.927827599034785,-103.48531645336716,-152.1940129280115,-195.38930055975862,-249.89266487069955,-283.42382573025975,-293.66727582807215,-309.7852666765957,-309.01824530682643,-267.21288711175885,-217.40386872946934,-170.0333652633666,-103.20184918026872,-39.55543750253014,1.920923005152531,55.02131768133094,119.93777320645984,159.35206948641576,186.43048723989784,220.46740883584135,232.10651533970557,221.0136946061628,218.19760645999293,204.84669391107337,162.3122550315532,124.67246369307242,94.73091426062518,39.663251864987664,-22.7424390111423,-67.78758943274262,-117.89539252607138,-167.69218836185803,-182.72944722780633,-180.12987904531468,-181.43252605546454,-158.65616862581717,-113.71469057484171,-83.73341247341675,-55.4962344989725,-8.412811418001931,29.893808197074037,59.17211210065885,108.21933841080414,153.31052318943767,168.10206572407657,180.12544476783893,192.41930648236624,176.86388878854913,153.1091360038991,142.31775114302644,114.41103101160438,67.8990587033248,36.09156809921678,4.3244989892019365,-46.526140709841755,-86.53620161436771,-114.69467670066263,-162.8785780863232,-211.19961441465753,-232.21963016667524,-247.91796286306703,-254.1759486432456,-218.50047151862577,-165.51015544572363,-127.69602385690561,-81.8939578735096,-25.558985126020932,12.99967723631673,52.437272715680706,110.73450027210144,151.12373102332418,165.47356452595932,184.54912590745195,193.76480156216152,173.96108309776113,155.8426290319663,142.60005667354764,104.06444903604984,59.63231187873339,33.76214089438716,-0.026493217760638288,-42.739277851360704,-64.98625064763077,-88.30757288544001,-136.48819293847458,-176.47769089072503,-197.63686501640427,-223.90043018796953,-235.89151748338728,-213.99155271139034,-189.4000929791218,-165.37501208229136,-112.1788536792716,-51.20411935763649,-10.77316910804701,34.93168390970351,91.08668987826687,129.3283744879409,164.8283825579514,212.95234487205414,237.71802969388148,234.58885363123346,237.62315546488028,231.24634820820367,192.1919461189653,150.22770167853878,112.34587589696764,53.35001034939435,-2.347851636280554,-28.469799693866914,-57.18006459279753,-96.78115558798117,-118.7065653354577,-140.77524719091755,-182.5140526178601,-207.37427676305418,-205.64714120994563,-207.4391364733388,-197.88452297309155,-157.18620946167908,-116.58200751222651,-81.11403386552104,-22.737316966700085,36.66087996323207,70.68367767468813,107.83905797114879,153.7386683996287,177.96421223619956,194.0869775506802,219.28233070894103,220.2705501675336,192.8028919605153,171.93360633964522,146.6210342611028,98.61653048289844,59.101375686940884,31.985980821353124,-14.601791172268484,-63.50348760297311,-89.50830094171883,-119.04725568625646,-156.04425546830169,-170.6828792033446,-179.33129251045773,-201.74830993134776,-203.71598406805816,-177.19493329621062,-153.91698007823288,-120.76986793298808,-58.60233010879902,-1.06241101015579,42.6980088432651,100.86316396048034,154.8181804162405,179.70228522819895,204.6839829898342,234.47651114452975,235.96725299062558,223.83625315300253,220.6059730928648,196.58841708038273,148.59608522515632,112.87077796809886,78.7153681047667,26.529491213081258,-13.43688184953179,-37.592471316864156,-78.65142068248055,-119.07842533689883,-133.34221039629233,-151.38718351596196,-180.06474009408385,-186.00328341559106,-179.41881896253204,-178.21779572687882,-151.94580660286675,-99.56137545312845,-60.16160781871639,-24.316310057939234,29.669090894312085,74.52200596805038,105.94063706992048,152.59667813327835,194.53506103901077,205.04649758066088,209.96176453787558,213.21622121244087,186.4623476384258,150.30025491056458,130.69669822158664,99.00374664725216,50.95332795783028,20.142779982398572,-7.7138275025289005,-55.06473148767195,-91.15091719501466,-109.96139375020785,-143.66487931485707,-175.70596444259758,-180.44425254412704,-186.28720155927215,-198.61077449303303,-184.25731352217744,-156.96275064846205,-140.45709096646138,-107.56876068128686,-55.15628280058186,-17.34850029482555,18.540293103578918,72.93068320670739,113.95520193298846,134.84725549324813,167.06529111432553,194.2278764708541,191.2293311684805,186.16611766253746,183.96672019028546,152.82577940848807,110.39724278390383,84.62144387736588,49.48625725833068,1.1103853807845798,-25.89826095587562,-44.67347332522546,-79.67340840172854,-103.3101843230739,-110.27288665183208,-133.2133202225611,-158.13719763984471,-159.93096653605775,-163.72420705137267,-172.3899884593219,-152.78246296142257,-120.07614174901656,-100.99941264149223,-70.54399001368108,-25.383790260452983,0.44290354262851617,20.345687532271736,57.859966154862924,84.28224038246105,95.20407622889626,123.81454716666278,151.66813573988324,147.99727107353317,137.8614089609901,128.70362898786095,93.51776842942664,53.08532426162118,35.21273827328605,11.544057945471433,-24.362534142317273,-39.52424251606886,-47.751451663505826,-74.02134626354076,-90.88933843510199,-91.31399553187346,-104.21076245886294,-112.8101953579912,-94.28596311939718,-81.90271056833947,-86.46353615727558,-74.9036671352144,-56.07709504593015,-50.46638317845155,-29.61757006200073,9.254258443514312,28.73469886773863,40.538234099500556,70.19445688209555,90.71833482977814,94.90901275222667,113.47202030459444,131.59876359655223,123.85523055300723,118.13064625209014,122.18054067341842,105.02960858393908,81.74755683462075,78.34853096962254,67.35024545029134,41.45609530607874,31.280498605621215,21.407691301963194,-12.798446165666903,-40.533012740794305,-50.35342980325976,-70.93112131873247,-88.75835691046774,-82.86111661983091,-86.29055060118164,-107.96925631403876,-112.36959452003228,-108.39176100690631,-118.00304268080019,-111.87551813614839,-83.83041680385286,-68.00003065596381,-51.156160248155594,-8.910477058246844,27.392875378286863,45.72736189228837,74.31913317963982,98.01954539720069,93.90790210415521,94.34811450378076,109.45941983851505,105.73631004869316,91.85580871220418,88.80990942537909,68.22284206444954,25.58043910805429,-1.1356747748147091,-20.701160600616994,-58.253421653261256,-85.97715675488773,-94.25771413386406,-115.12467665384862,-136.86559898278404,-135.5768626879721,-142.57395173836548,-168.7346959137855,-178.60535523355952,-178.51317665038948,-188.71233899270575,-177.94987627352174,-138.07843276591464,-106.27151027331551,-76.14373395673499,-26.254459632235935,14.284547592054967,37.140020803960866,74.84931405120065,114.03159682254147,126.90327287319806,139.17947873827387,158.66262350589795,153.36753002894557,135.64363967757072,130.52898345774733,112.23994070454214,75.72371533944603,55.08887803991606,38.632031880451834,0.5083665977164049,-32.43652898962321,-49.74736821741827,-79.93387354374703,-108.53807608411319,-109.38397903517634,-110.05747490278209,-119.12647222951415,-103.17024705903466,-74.0898243857959,-60.00386815965189,-36.9021392455619,1.47853918767359,22.189347648604166,37.82984850771756,73.37718203106785,98.47192404606533,101.59932640946157,115.64419083636571,131.4769896581973,124.67067233704331,120.61319721650426,124.21852437362564,101.31440624193695,66.94605655641956,52.46540232959616,33.57518518212101,-0.26187960241594155,-19.83322342490846,-37.24364844683384,-75.47865632068516,-103.45876884720006,-110.51036324012989,-130.78298007386937,-153.47270896189886,-149.73807136461812,-143.27114533950942,-140.9856661259069,-109.87463132064002,-64.79286792268383,-36.907321031098114,-1.6562345618686614,49.26121409800665,82.11495393576959,107.65006794596798,151.70982568696783,184.93656483667746,193.94714564852754,209.01367531780812,219.01163780875967,199.40720607232123,179.82977542542844,170.07287943003013,135.38238209829638,87.01418804732836,54.99758494314795,17.54177196290479,-30.54904448148372,-55.50582961745398,-70.58344227112589,-104.70238039516869,-131.2497067077084,-138.76059080617426,-158.215125271883,-178.14941792367506,-171.10286496881747,-161.5325065392999,-157.17517531700176,-125.3285643486856,-78.56255680715049,-46.719270734124116,-7.465218006245619,46.38815488544037,82.40913166926306,110.95743954874379,155.51006018446282,185.8483383833305,189.71046088223272,198.62685939811962,202.68137927884567,177.09218831303966,149.39322313087834,129.51305246249788,86.45696031729959,35.74869483623166,8.97921068604785,-18.89639777564778,-59.10138842136193,-81.53753204550137,-98.62340557311656,-135.4298270978437,-161.30166664564993,-163.3064366538129,-173.6801045549723,-182.3401990544654,-162.2896839586955,-139.29147683286826,-124.01652337000769,-86.221683631952,-39.328054950405125,-12.73096033562824,18.98846030267661,66.48787669702975,96.53117023188858,117.04239866138508,151.39851388988723,170.19502364156415,162.72044238116533,162.34303279139053,158.20903763198456,123.81618928319845,88.34872049074377,65.23080479457926,24.932437573339655,-18.814580532658354,-37.350133079564614,-57.31556344141383,-90.04975778872075,-104.33525426123177,-111.78119582954659,-139.61479305269376,-159.07678317847237,-154.85018038293703,-157.08990503777835,-157.0985676762239,-128.8616066301511,-97.52288475363264,-73.18061879121743,-25.613648664358145,29.287096965206707,56.907920447933904,79.20287674388652,108.41520240880934,115.50232675660513,112.54624103029451,128.49074020819438,138.87775546381715,132.0802607655703,137.11061511389943,138.37383901313993,102.99278118555472,58.5628614236893,26.08769746144684,-17.105446942807518,-57.20804125271829,-68.14115093681677,-80.60752137903351,-110.06769260372609,-124.2346817821432,-129.4844549583304,-150.3379537343572,-160.69819596162324,-150.75518069956135,-154.32616024093025,-161.17019490711078,-139.97075394633694,-112.81209819738447,-92.02070231562612,-50.918656178242905,-5.757402844273173,12.581637699394083,31.933226181502825,68.12811573866367,90.01199812017067,103.6042042862087,132.2645543938375,148.77199487713094,142.40812269316692,146.9750463998551,152.7862813011945,128.70766380569722,97.38299489147828,73.16063293156913,31.431901271422984,-11.406805194628925,-24.617011674798455,-35.23150585281375,-59.54607052331815,-67.98506114225717,-68.73820179714488,-88.58537849732045,-101.4910578326721,-94.23840368275975,-97.72714870073196,-100.3625949632621,-71.66115928763345,-38.218337906895286,-16.667479263082118,20.7962630146283,62.34339123346524,78.16015512169258,93.03743099724626,119.59861385889458,125.84663610114849,121.58621774612116,135.93453193329537,141.98622761916857,123.42726463061717,108.95439180414299,89.63854542824734,42.41745968288475,0.7424438891688858,-16.65617489245062,-40.83840170939798,-66.00157159428014,-68.26325555114083,-77.10817095582925,-106.4926519657565,-121.17681283332442,-126.08599735087301,-146.7199172081303,-154.64350957142537,-136.04380897223234,-125.50414412067609,-116.2559332018557,-80.13814717791743,-44.15243764728994,-24.02776822868728,10.900115815933143,50.651861195276894,64.92438264529846,78.74124135186686,105.84893985165658,113.3576393850763,107.38357962640775,114.65617872196528,110.90958633022007,84.97076206106358,70.29435294584397,60.276951664565274,27.60283905858674,-2.7323704634659665,-16.356124164356277,-43.165939901182846,-74.81650096174103,-83.89953065579218,-95.03004437115726,-120.6482538499595,-129.1364636398936,-129.04963473990588,-147.75043033794924,-157.7929053988147,-141.83155993582824,-127.42709378602574,-106.26302010693732,-55.16539874894052,-5.583030410974329,24.806589430671295,66.54314231725168,112.25713624207319,134.19968460855063,155.83399000045677,187.31119656069404,194.84817670315903,186.99446082161873,192.55058100577727,185.8485534007889,152.32887152775731,123.1394813386374,92.7157098423362,38.685398603215845,-8.71054814219998,-33.432211096433235,-66.91924031832916,-102.72135404441713,-114.59883154720549,-129.09904528908478,-159.5749332926385,-170.79105168310159,-167.0377547087512,-176.4077167463114,-175.74167443544988,-153.95420850896852,-144.83898506530676,-138.42344968738857,-101.93498341275232,-59.892114245847075,-29.369518209149454,18.248399067735665,71.84167175240012,98.39230156094226,119.53000917882798,149.08667940701855,157.01647187899806,152.5641041767481,164.6878241045149,167.43424726576046,145.06873895465498,129.4043086776007,114.76113778882942,73.64990134652552,32.46207184789877,9.79853221459835,-21.576169800711146,-52.538489171814575,-56.68947969462418,-64.5846558576895,-94.2816398713758,-110.9061846430821,-114.34980245145212,-126.32273649842777,-119.0731266462601,-81.49715408886959,-53.28447488905674,-34.529369179754895,1.1095511135647378,31.46364734679035,45.557465167124526,76.46504021746608,114.44269155540141,125.008658176256,130.060606050886,145.97407775768022,142.0594962273416,125.44214781541882,125.03598343888284,114.74043282095488,79.67202581731436,55.63193941453659,40.376204911490944,6.24702564004069,-23.02866292213108,-33.52776956328472,-59.075179399966565,-93.75419684199767,-106.03759381376142,-119.51987361803987,-151.40703691347463,-169.30735105392702,-175.8082957033068,-195.45465860083243,-199.12343316798527,-169.3780131721929,-140.96993299679377,-112.35291472554502,-57.81868921814297,-4.538859229713516,29.453238653804014,74.62018233975101,124.42618072562753,148.86521555511953,170.73102722631694,204.02467803704894,215.14476194581772,209.08436402960476,215.16300213623273,208.54721625042953,172.50375450335696,139.5402827201595,107.00428198294927,51.193519676423946,1.791975694782245,-23.573045767748773,-58.60868296912745,-100.39175212303368,-121.04522014095875,-142.49357021318139,-175.36355263564462,-183.73733111192206,-173.4071645295238,-176.65910139790356,-172.11923947380745,-144.95281621083063,-126.42542038288548,-109.90489021556365,-66.71332318068963,-22.72906301320502,5.1423913935892305,48.06817576882632,98.34350300581147,123.60063157630887,145.54146067229846,179.0452916516602,192.2615936728579,190.4878037075605,200.8419386595676,196.14758689129496,159.63349890021934,126.192029185163,95.39369325242981,42.51725699117443,-5.294359553046231,-30.453946982336475,-64.47700122457734,-101.76647160568899,-112.7060339929553,-122.43268669700768,-149.65260327800866,-162.64913098805508,-162.33502589249872,-172.58056695979872,-166.27731828199018,-128.35127580289918,-96.77720349973104,-73.100262132404,-30.578282958274183,7.705236046768015,27.217717688963518,60.632628859434156,101.42469692701178,117.45094742021777,129.53473368644205,151.13470877783217,150.18231131571486,133.39127211942605,130.19371763488854,116.25632604060047,75.57355959254163,41.40563813288806,13.35228589064984,-31.40521565376825,-65.47361668021279,-73.81252665351101,-92.06551417161495,-118.08682732248866,-122.52099224025768,-127.39300239609076,-147.70154395189536,-151.27256427814154,-143.16383144101277,-151.91179388810343,-150.18657342599195,-116.86919969819996,-83.28765920692234,-50.55190591291391,2.7959233068111757,47.963822518954146,67.42415306640163,95.51428243963599,129.34077669198447,136.51259714011942,136.96802528584578,147.61384013526316,138.74755596364548,116.66985514126277,111.74179249967946,99.30424621170395,61.67762814097854,33.72165748272886,15.915949816762652,-19.911791838767858,-51.37161200589267,-61.2726751102201,-81.60343287470238,-109.57477170652517,-115.17056732891366,-120.37057874197608,-141.93883974176688,-146.99824775896917,-137.62844497384484,-142.8481805038592,-139.21400003264148,-108.83023926556666,-83.47893117891353,-60.884410527552504,-14.22169143911159,30.94526143647534,55.682215241577644,89.75176352659726,127.98167988495227,140.13988025162308,148.95209993975402,171.5831736005118,174.8729996270916,159.288002543979,152.71816982982122,134.25375743861227,91.0073925579561,58.356482000214555,34.586316597648306,-8.912532084283635,-48.08050768933715,-64.05294996920793,-87.90473833166047,-117.52550606171803,-123.71454493844081,-127.84293515212701,-147.0220729920724,-149.3474123708218,-136.8529500908238,-139.52082272013385,-135.0932475910503,-105.1965384207678,-82.80012068577378,-67.50617865363631,-28.94552287921365,12.491191368743216,37.939861013222384,75.30477660660705,118.27548481698196,134.91767974657932,147.78444922579246,175.09182609966282,181.61959489875323,165.25315231124387,156.22066401097138,136.7307697080929,93.64737840443203,63.05055989174021,44.574993239771615,7.298109625184093,-27.008125809564078,-39.06520631707389,-60.433224465188516,-89.52079335022331,-95.91965350367434,-100.72206264779958,-122.51789568435217,-131.03063986332418,-127.23735652728371,-136.93850880787187,-135.05600439435412,-103.9893995278392,-79.7104768726789,-65.20886639530987,-31.348265439865713,3.0603529653316777,22.15084241912844,56.81276028338025,101.18709958298221,120.83859920664258,136.7042211957822,168.1799608902046,181.76489565814825,174.50918203880332,172.9338280384846,156.64764741769318,113.61600856909926,82.5884064841123,64.66522265946058,27.139809550075512,-12.445265610072632,-34.78061316253704,-64.52519750962226,-94.55770499895092,-95.68532806718619,-93.73626703834701,-111.52522114366191,-118.928982083554,-114.80534787540456,-126.7567824413668,-133.14240965723886,-114.86515403761675,-101.40825650304505,-90.17704121832699,-53.15819807778498,-15.39152282243533,2.321952235764665,31.19968560643151,70.0384738449049,87.92816053945117,105.06537327931439,139.05792755971595,156.62599416747167,156.47354011643074,165.27033515237832,158.7659089708799,120.52606009814625,89.41183503893707,69.53755512438497,30.934618028613038,-6.341807540339833,-22.43347758813603,-45.38231534482303,-71.91422466207868,-74.20057114390578,-78.75549991903809,-107.4578276706077,-125.43073051499334,-127.78922284539465,-142.9891250707565,-150.40044343227373,-130.68264218052548,-114.74439885817125,-101.08234740922995,-61.227987831910525,-22.177018890713022,-7.513394304113952,16.55527410556624,54.75319913512819,77.40138680901941,100.48958166472147,137.7635943381528,153.8556199035468,147.20212236421145,149.47695149240127,143.5542213942501,112.84757398491672,90.15916034413014,76.14452235334677,39.86832373468359,1.1954444972629972,-17.592246970457055,-42.43634256016689,-70.90973979808943,-75.01342781431973,-78.72936863609328,-103.5393892988614,-117.29380262207229,-117.16081836141927,-132.01072005641862,-140.8412414820769,-122.13678845609226,-105.74218225151812,-93.17827407579583,-57.034517268852525,-19.668453547664175,-0.2020279450119551,34.45484093598126,83.39411452129045,111.23596926387923,134.08480588986748,169.9939978284342,186.81653434119926,183.94227702105383,190.48607234763543,184.0675034177642,146.91747045436279,115.6710444633582,93.59028982576683,50.02983842697167,4.711078244662187,-21.707060797956746,-57.69363029640361,-99.93555212380606,-115.2411078763925,-123.26706576116477,-145.02817018292805,-150.93054327156457,-142.39915669840533,-150.7911818516326,-154.8199074530776,-133.85036052454112,-119.63925019442854,-113.0648367480288,-84.75628557318183,-56.887718363339474,-49.68551539280136,-29.50516608007144,6.318144193768207,26.20353541182085,47.075742451964274,84.93591804291958,105.02664925763234,106.59732073575827,121.70164121785606,129.7206320436603,109.70980190525944,93.66360367957597,84.58841139714794,55.02392220377082,25.915064848424784,15.932621684829797,-5.439155962597348,-35.43158052754603,-41.126619373254705,-43.29121834375632,-64.7085115084532,-76.48582639490915,-78.088609895377,-98.7153251199697,-116.42092158545714,-108.56012376955623,-104.30848840060463,-103.63456251443999,-76.66140684609273,-47.263273906920226,-40.12573381544542,-23.370548520779412,8.148940979761822,26.281625057551366,50.11793581412229,95.28072304007091,124.32337708588004,133.7949056481206,155.91350216870532,172.3963539004642,162.2581160338364,154.21229741344416,147.08717545051425,110.77620519257783,69.56237008355245,49.37885171798618,20.820194568091996,-18.903045299626086,-38.6531583596275,-55.032767380225465,-87.44211440143042,-105.19283827953029,-107.48066599915205,-127.1891342557093,-144.4550687502147,-134.2286755960648,-127.31930731922058,-130.4425766744402,-115.02565246474322,-98.00447163540912,-96.97344334633944,-78.9282946179815,-43.68191161029238,-26.3642811712215,-9.517496124313087,29.670914736615103,61.54676622912887,81.9233200281091,117.48079496610102,146.2327339675438,146.26880045476344,148.85462349547475,156.15484353165357,136.13274943852377,107.606095310818,94.24155661675297,68.07918117824447,28.928262359207128,10.002852628153578,-5.628485931608137,-38.700799188741485,-58.86851868382015,-64.89798383836182,-89.37078921606675,-114.2652115304717,-116.42674080001319,-122.78943819412572,-131.39322334642588,-109.34176960341782,-79.51785624232329,-70.33224857642895,-54.89132240418445,-30.762854968150453,-24.74736658663003,-11.729469585199126,29.90885886948027,63.57801252919019,84.41073414079378,123.55992735117029,158.4457763299174,162.1134415769274,162.5916137426978,163.39396935336677,138.37428290446076,112.03406972128481,107.53988360176544,90.07803829930972,53.13743958299665,30.658532770622468,10.207556272124737,-27.404799473799194,-52.28802097787605,-62.579114158192745,-90.22495191414275,-116.93439658602176,-119.78207857559707,-128.8789522120284,-146.8812007971934,-140.12991704193345,-123.19480861319622,-116.53216524618101,-92.20614566708308,-51.98205684789779,-31.776731776046937,-16.487197687839792,16.196302253104978,38.12596554537926,47.26192330229855,74.87272842061547,102.65660233673282,106.73791148475087,114.58301381819581,127.66011558022363,114.2742462502732,91.71363077237535,81.87225381353127,56.44199577917022,15.624811775845435,-5.667290536311701,-21.887877340192055,-53.64281991245148,-72.45977433602201,-78.29282068801584,-103.54203700782332,-128.89251109085168,-129.9011174014663,-134.32173512077833,-143.98245875098914,-128.46184951569253,-107.83069742281333,-106.69817274104088,-95.77170426251635,-69.43315315342836,-55.64153376421418,-36.48450815368125,6.795253122777741,39.87977603107826,56.81123174110855,88.91437136271539,120.84905620748277,131.77836884860915,149.1197831799954,171.66924032364003,165.8968057280182,149.92072631952396,147.1536178801041,127.60121327050292,87.73416024264856,62.087509805356476,38.1368884706002,-3.3348338159442843,-30.89573480462881,-43.33543933269631,-76.75141987215471,-112.09989597545015,-119.80119393632403,-126.50081003246484,-137.67550208316214,-125.15547147469164,-109.49118131230358,-114.35332981939432,-107.96663987927057,-85.42419398474519,-79.78927999383984,-74.30132731061448,-43.29962394616014,-13.584996217168912,10.090291720370852,53.97722840122189,94.2405214496876,103.59281048499192,111.93012899879608,127.68102693926681,123.72293794665298,117.28383282441456,127.49342353331687,120.32011589418887,89.78874406672286,68.77258219606229,44.3877249875841,-0.575070446847441,-30.831041370863723,-39.35910124746267,-59.88938873706103,-81.39558109393673,-86.03077072119221,-104.30284575167867,-135.34941575896485,-138.83119947210056,-126.60282307525151,-124.10987317763669,-106.54953729461808,-73.34477232288103,-59.041168711204215,-47.34387517698616,-12.708563957181973,17.376103279365722,38.575793577897485,80.24958097569382,120.09122525701476,128.8336130889155,135.45631037999914,149.475055847897,143.7271822559707,134.77225974041232,142.5607619818775,132.85549679954156,97.84825175337619,71.65463385425502,44.376003295883336,-0.4394488048377809,-27.830118910783465,-32.98986291524277,-54.12101546586909,-81.26273569693429,-91.77581158797366,-111.1803403769027,-138.34018094093645,-136.3869479659608,-121.4093377529055,-120.61089999901839,-107.15421397218955,-78.83434576362615,-71.28904273472786,-67.1643975755785,-37.000849138546414,-7.551872465802288,13.443980925715936,52.29092506756304,87.24320883042866,93.35578984337178,103.6978959481104,126.40881199888899,128.3541860907138,122.9459981022425,133.43273845741635,130.46320120377533,106.13973484537874,88.94736321651392,64.31393612477721,16.333917087765695,-16.467243281460412,-25.2595706902266,-46.50694071190885,-72.87331372743802,-85.10545275008987,-108.14438336125416,-137.4877532913817,-134.74777204933997,-117.73342229081824,-116.92271761020552,-108.49351650033049,-89.36847216086714,-89.61351311505189,-87.54955353902217,-54.37521199129529,-20.333581197538294,4.2337617380996555,46.619768065298885,86.49017999350912,96.22248325404132,107.03273036280255,130.70965402974852,137.07301070025488,137.71155607677727,152.27893524808383,147.65378265778898,115.9464490943173,92.80750194631551,69.77569084494586,27.099947449875483,-4.949905655113578,-19.790638835429526,-49.353723852742434,-79.93357637149599,-88.87388185378052,-105.03264741880216,-132.23120936108444,-135.3163642379049,-127.67769653948062,-133.46813311390994,-124.53308647819229,-97.08171968174743,-85.93767830094944,-76.93051835483222,-45.49510848995658,-21.01757173363476,-9.654918956928912,21.949497458454136,58.47365924040168,72.67212929150676,91.64608891472565,121.87175380126483,131.43870716773677,134.97814870735274,154.83680413583758,157.29860857295196,131.6335544516308,110.05769807426036,83.31612774336206,35.15817958853,0.6003229675363793,-12.917333747227069,-40.74597007799456,-71.3544932674062,-80.82401714132027,-96.21495394132447,-121.34990902062037,-123.2422400622086,-117.42819113749796,-127.94066595098282,-123.86165725700033,-97.64588482993481,-83.54418262682947,-70.2649319980388,-35.386696157220854,-8.873510427773244,2.350333594600662,31.2473927267695,64.33144522799265,76.61704005327964,95.29173057891923,126.14237642353814,135.25155678115925,134.20103337570913,147.0726132638941,145.29127687840545,119.45801367865629,100.63074615995487,78.2087007698452,32.02626944705018,-5.024041802055935,-21.163750923267777,-47.75974827241757,-74.23766254152312,-78.29234533801608,-89.15193077901215,-113.67822177059026,-117.0788348407377,-110.8432488263761,-120.392448831564,-118.18776061517707,-96.52632906495292,-87.61671918281769,-78.81281755139737,-46.73210193483203,-20.85202134175843,-8.824526341444777,22.746641931659752,61.27746327685388,79.09173386306186,100.15649171632947,130.43040084360808,136.90646332416614,131.82484354433296,141.17938197048377,137.88771405755162,112.32530226072241,95.40095758774349,76.54946485702789,34.39936701816687,0.3928217644007965,-14.314469089471764,-41.03111017499043,-68.2925919860227,-72.23185659513864,-80.78529876946183,-102.00280896078942,-105.33228030388128,-105.29927945058083,-125.205607564574,-132.2493670019431,-115.30467479631794,-107.22233016364034,-98.13290667480685,-66.7628491357737,-43.75858594906407,-36.941718505270934,-10.893493313425182,24.31131499598651,41.96288975159911,66.71862100761986,104.03191366805696,117.64031034882413,117.95736751938998,132.9927417425527,137.4676195997813,121.5926506543764,114.59059943813469,102.13362188554984,60.21374758152291,22.16473986234754,3.8081341864173917,-22.92085307750178,-47.26272627462389,-48.02858333108694,-55.41611198814593,-78.51462407349393,-84.24448767018438,-83.55148447320875,-101.22523576601137,-108.31998187333872,-94.95703951543447,-94.16678199874006,-94.77814800956789,-71.28573914270251,-51.20759973410167,-42.90794216765026,-13.614203502589014,23.15266500180354,38.810039215382474,59.609363296585656,94.25429677511579,109.12266119702463,114.76439035952299,135.31014237154767,140.6157464414821,120.16455397462613,107.00941360778782,91.07024544445704,50.052712210148485,16.50355156509933,2.819706634467107,-23.094179392913908,-50.305257241847016,-54.008315476074635,-62.4908453213021,-84.93830829945361,-88.51464916776473,-85.25345074177065,-102.04100560352185,-110.85815969460644,-99.88186302467534,-100.00127171801748,-99.83485391170117,-74.338007530266,-52.958279660559015,-46.039854088630484,-19.494113555429244,15.618746751139417,31.456014155367644,53.32727214022805,88.47300041702532,102.83303122259387,107.56788082068769,128.15276981522334,135.94847773842073,120.56423583747844,114.60590337108512,107.40337610930894,73.57492211458722,41.8262897436652,24.119808266222677,-9.446948517600562,-44.93989235170801,-54.316289298501474,-65.28688965187469,-89.53078585085544,-95.68848451754971,-96.16376347404973,-118.62501794290785,-133.7744873559201,-127.2989288672577,-129.1180451545442,-127.28048666631474,-97.33534443598658,-72.39184267562162,-66.64318711924534,-45.26666668266077,-14.887055749815683,-0.9486848868541258,21.008167023870897,57.22713372076934,74.22386612329879,85.62170195005046,118.17234646700095,138.8380639272093,130.1432564941048,122.26521441860706,108.8871148300768,71.90604164080483,43.42149060665324,32.68435831204017,5.628613328951554,-25.480905194336387,-31.86367074433035,-40.78019579633636,-64.94993009484486,-73.04197408978999,-74.38491457462055,-93.1833304152787,-100.55844444544948,-85.51723302860945,-81.132367536789,-76.68344034509126,-44.62770164521319,-13.340913284898706,2.315739324795434,31.213348187803497,61.34641033505644,65.82118830771036,72.71448645715557,93.83203375957964,95.93166701625809,88.30002119369149,97.8248761898995,97.0624486091764,72.87758648402617,57.23826940865273,41.92775589819186,2.309289924544908,-29.949757324357844,-37.1822244640884,-51.745818856950166,-69.72203021661737,-68.81723331410743,-77.16473686827813,-104.55161607035004,-113.47347756946796,-109.86947780317345,-122.0222717543237,-125.99526991458404,-110.04098332377743,-103.61474056337372,-94.81457784554186,-58.147254208443826,-23.458693559600025,-3.92831353562021,32.29372433939464,74.5981819499796,94.30274426466372,115.64559278348307,148.11441412654406,159.04513758334687,159.26338526452312,175.68460428286824,178.56221704358177,153.06382553313244,132.8215650091317,112.69320715060374,69.30151955697792,31.685756247173718,12.231894965355913,-22.62880920643014,-61.86060427733569,-73.4172311175937,-82.09251706328503,-102.94630380840155,-106.54471684600828,-102.96352125924606,-118.96495986541004,-126.38107734026428,-112.36944797353843,-110.48591528595922,-110.2753706082148,-80.38939010787982,-46.09601444565889,-22.830927139107757,17.506119879774012,62.29857901661441,82.56240761943265,105.16262493439028,141.608446079181,156.91472884272437,159.2524562606645,175.70829204123845,177.62361471122858,150.78702688350302,128.94013479574315,107.2182787804197,63.185824082075875,26.96510790278032,11.497126828550716,-18.32167535492444,-54.8023788435424,-67.41238607825697,-80.0041062334834,-106.26681169752698,-115.03687894520907,-115.3422105727626,-134.67323730951836,-144.43442052493896,-128.9642657117685,-121.81438362128944,-117.73345354911743,-90.3628521020363,-65.2716826536107,-53.55745838554928,-20.746897974331844,24.16611075563828,50.03491338325466,78.76387234508952,119.44924794255061,137.38156914566545,141.78623715799165,163.16564882050298,176.9239610592,167.4376128904687,160.9891583219673,145.44552352843505,97.24637447344881,52.37704028534105,31.43171353975749,1.5935754310145303,-34.80231162190348,-54.487555004940035,-81.6907149506122,-123.22720183334309,-142.818652311305,-149.72343060475154,-172.29392817006897,-181.39394406047128,-160.7781359528675,-145.13401416128744,-133.8834811493116,-106.23303805456615,-89.11010862263753,-89.90520667938236,-67.98396536340074,-28.209483562174952,-2.3862517699797916,29.737361760468257,77.55342670184017,105.45296477514894,119.80654075850934,149.05563556619484,167.65826876713055,160.48424370627134,157.12752463248054,148.1323638170337,106.62834082049224,62.97663344754545,37.836872970499236,3.140639243284687,-34.59981965496315,-50.08405911287508,-69.52100276446764,-104.99194731597768,-122.27024950931545,-128.6283824143397,-152.89538323163057,-169.3168506621251,-162.08653195913428,-161.10697852391303,-158.19264443483954,-126.51813051339789,-93.85519262096602,-75.66124084316567,-39.487389804955136,7.204365226100748,34.35253853211967,64.51828526909568,109.09517696064587,134.56000477535977,147.94485841978644,176.22066189222943,190.50077380378616,172.75041058530155,155.42556333860801,137.093447128841,96.78160730104219,63.26939799816948,48.08045414428277,13.690044706406415,-33.496596139735345,-58.12614603849378,-77.0175097106179,-103.32744441557526,-110.20853623525657,-109.97330997840308,-132.28191902233456,-147.77156709343802,-136.03965143021088,-129.1799966775682,-125.95611956878265,-101.68529925854784,-80.49852563181534,-73.75565409872362,-46.6161721828407,-6.517315659193134,14.435124977776743,38.31424938786943,78.55437962380837,102.45760089684157,116.21469667279592,147.25654720889057,168.7285052723337,164.35341387412672,166.30374981063017,168.59324891511673,142.45150500786355,113.10513662426942,97.08113740371705,64.59511282481681,25.4862870653813,11.616934764333234,-1.785407043156634,-32.28064400697533,-49.67698187086506,-59.66112151702384,-88.09994904843983,-107.48379392725985,-102.3007635720845,-105.9973937683572,-112.40391895794463,-91.36389228804671,-67.61293142304015,-57.90331933412626,-31.51987030658422,4.2823432227708995,20.384666402050854,42.70264766369589,86.48871920293999,115.81619312809084,132.52653581018683,163.36267861333258,181.2276329415184,167.9359443658099,156.08165067521082,143.66940131925696,106.36448620516771,72.44243883415712,58.75442625615527,30.935307007264687,-8.249283797058963,-29.419418967699276,-53.58610658873045,-93.04925728144376,-113.94180161735144,-121.79227631328844,-145.99867795606255,-161.31902809316256,-150.3300394272399,-144.18803176297953,-137.2455402031889,-100.95136350393169,-61.56987090622521,-37.94050893207431,-0.14682379726461114,45.49923375285278,70.00422570517965,98.6972746686721,146.7074494839003,176.5944722633881,186.5178401479351,202.38778930161666,202.35386906204803,174.153391510074,152.17856599002369,131.9774843830635,82.71431843937391,28.04818017380213,-10.740434281972117,-59.48491513794586,-110.87220033283765,-134.7808919318178,-153.81258931290265,-184.25738507510434,-196.07593707819998,-196.1841591156729,-212.40774488111958,-215.84256826744996,-187.03113896157498,-159.27029690334462,-133.67385799332743,-90.2697043821549,-57.166201313684404,-45.22054809729535,-14.727433645770938,31.829784939732633,62.13747905216881,95.03705161619948,141.81821612725952,167.16407778488212,175.74131644222115,197.16438151712703,205.3648233151382,181.41033568107522,157.60933709223858,132.25700482913453,81.91623481010271,37.87528739112015,18.802172527350137,-12.314628438539897,-54.93190362672526,-77.96263960059247,-100.4511761754558,-133.10897718766392,-139.8258144128318,-128.75624303820607,-136.3840321763994,-138.82689676457522,-114.6713173263764,-94.42293642123477,-74.53536006426327,-28.334318270073606,13.794591708333908,29.179618148242255,50.301411120550924,74.7146382841951,71.03868052883735,62.5480372825453,68.8553647946354,57.941591757189926,33.400238888138084,28.392063984416083,22.247625657077098,-3.154805981424463,-16.972842771207798,-25.40132437849759,-62.291414752408585,-103.88262587319831,-128.25910724301852,-165.4720234250943,-211.04817839491236,-231.4965415370218,-244.8799394097981,-263.1172893396101,-250.34083422059513,-212.87391865067045,-188.16581907711617,-156.91924406028076,-100.36403183311393,-49.551722499865434,-2.704619992894937,66.07205356316896,128.39333342664344,161.37173626031165,193.4097094474365,221.28273663820642,216.48956472453816,202.5834453559828,199.4349955976881,176.96608544410032,137.5716199258597,112.1685404783415,81.23314408039803,29.79249781112479,-7.01833950367715,-30.329626379354163,-71.48291807661994,-108.38159007438912,-122.24334695425561,-144.71033495286287,-171.37807889249376,-170.16353452410615,-165.12829875328646,-176.52088503692244,-170.14789722290595,-144.0124728106167,-125.96177987770852,-94.02991498116563,-32.89052387050384,20.434753126988973,63.06773517098902,121.91324445233508,172.74787310425043,195.46738314300254,220.8295527337976,245.38636815124514,236.23595911695412,214.24203538644366,201.1307888096085,171.8849296385509,135.3586293281466,123.56644747931432,109.08534410754336,67.11625940922526,29.271707802109006,-1.429291530394087,-49.50041706949048,-88.52826762865075,-99.95738794317187,-120.53758356245214,-150.75445802514946,-156.92264435229802,-157.06153847124898,-165.9038544498853,-147.01246604099072,-102.36759884010866,-69.04243828692893,-31.963661559249196,23.34155211114642,61.17495339959218,82.02757960620988,118.86305706381805,150.68029734539476,157.51996606510824,171.83820210194307,191.1182724257532,179.15927418823946,151.63956112902508,126.25581573691984,76.45070845204097,14.427743047138916,-19.29453595088488,-45.30536205768918,-87.95860204237869,-118.30334908984395,-136.34060231081435,-168.22171704549845,-185.97031587715145,-167.693236894704,-147.48864533347611,-125.95896308000944,-73.0948241599623,-14.196671170706438,25.86757376472513,75.82108907488384,132.89636545631072,164.50743335522196,192.279995731772,235.78189944644043,259.9669494262567,262.33948675423244,272.7393378119549,270.5118482313792,238.41598543891047,209.83882760683653,182.5959090909805,124.26833230517616,58.09765760056216,8.71268797241649,-49.98129882483164,-112.7196195532779,-148.06720094190442,-180.3171310235843,-229.4681989653338,-260.32644908352603,-272.0950980038232,-296.06954451093804,-309.80937722514375,-292.6111005459528,-277.0418737091286,-262.74652750453424,-219.10076262104099,-170.09257553674826,-138.9668514541373,-94.72444378685222,-36.65672072460676,3.1856222390395503,41.88047138699963,95.01661583307356,125.71291276060133,130.46494027032293,142.34619014087906,145.90613972067538,124.52231621911199,109.74985659067526,99.22341139682568,59.41265561126427,10.451696075119434,-24.175703743825675,-68.29030141931982,-112.5333958054581,-120.35408342611868,-114.95277884618497,-124.84195375582713,-125.42282597954572,-118.23888793390455,-129.40307144896872,-128.1239178924734,-88.41976489977955,-46.80662447523773,-11.907727763229149,41.00530830657089,86.34501507386878,103.43789481262624,129.37679076498742,167.63107536334775,183.50055574150525,193.15923907081228,214.93652599349534,215.11370164387267,193.5902224444137,185.3947932377092,172.2721574267361,134.1739976648741,105.29616837949453,87.89675430092922,47.88932868430087,2.9277353396001846,-23.58645980311569,-56.83451777438218,-91.43793068774228,-94.02332676599298,-89.03876914937767,-103.4721742730278,-107.15876536985603,-94.28004194117008,-89.3910930896911,-70.18515540981583,-20.497895715305773,20.588972939349304,46.64906513908557,86.64118126275139,120.7330280713224,130.09036089617842,147.06753295081495,170.84123323871734,168.1211146783638,158.54266112579086,161.92601866092105,144.40040346710435,105.24742751712364,80.09031737200718,52.81411664831708,4.584908243889549,-30.589345125089825,-50.94643175231843,-90.29135130860709,-128.66220640818875,-141.19287601471788,-157.00346240726347,-177.6739513794395,-171.83108468658602,-160.49386689812772,-169.15005071247305,-168.89801106274155,-155.1412007926453,-153.86421022703598,-141.10856137855524,-94.30831109987773,-48.6913692263368,-12.91220775601046,38.86041275597285,83.65745321934095,98.72022120185851,116.30156406632887,138.8215016966428,134.67370754266994,125.15200985082012,133.95409519185347,129.41909604592448,108.19783546427222,101.06476576505338,88.64832461913332,50.79159208925466,22.21357983953122,8.73941073925929,-20.252602353764146,-47.735962151599274,-53.80713800283685,-68.71533169547692,-92.01951688793966,-89.70936751016347,-79.68156971325303,-84.6952178121935,-77.3913526775785,-59.284121073125945,-62.06363741586755,-64.84869971998492,-45.92181385198741,-37.91925283093981,-44.471424282509474,-34.562757954000865,-25.271563774006214,-34.536218697488344,-29.87562423062512,-12.533369618277376,-19.582253558892333,-34.552096437014015,-33.84050209423243,-44.221547878624975,-64.19876349395054,-61.21332196880692,-55.42143625660115,-70.4866116713299,-76.65551995646452,-71.215088796969,-84.95339794422298,-99.30680278874596,-92.11031475276795,-91.54463934602595,-97.95280144514213,-81.87940580721333,-65.7784190822477,-73.83888145653727,-75.94132757097958,-66.67647974641335,-72.03642550561503,-71.60442314494985,-46.67207743756286,-31.03951060732844,-28.320217575688112,-7.437472834267482,14.60568180699854,19.28147730011059,38.76841959328728,75.5350825492588,97.84653922299603,120.2982961772302,157.92821129265533,177.2395553772078,177.40028972886734,192.8600933350219,210.47193143334746,213.54288000288517,230.70578704114382,256.8881392537816,255.8417207703183,246.33563108324654,252.4854564787346,247.43218506882752,232.4088954093012,237.81412362004357,240.29943880318862,215.65765178633518,195.06043518188167,181.73834217269774,147.9068303295799,119.13712469732789,121.07728365996785,121.20803737574019,112.13772851859534,119.95569123302673,124.20895088844671,106.07626985934732,100.33709923426088,110.4723765311595,103.25173304244217,95.35443439475873,106.27793586325465,102.40602047783791,80.15564145240845,72.37483845838183,62.54570245490349,30.44645267968741,6.910773724586724,-8.174533655196417,-47.92837495000111,-89.63144875916187,-105.4924386247909,-125.07693819058319,-154.71000477511592,-168.24638388419004,-186.22433974402915,-225.5771665960208,-247.18080156118648,-244.4971160989404,-252.3857838436844,-258.3302764621001,-244.44938310497974,-241.7221805659934,-248.04446053131468,-226.07322599208794,-193.81957617835025,-176.10540659402852,-144.54284550512222,-101.17272805814446,-84.3265713231467,-78.74841349516979,-61.55963995585833,-61.574713184483755,-77.7647845035317,-73.26246210492906,-65.77016828774768,-82.07332619890369,-94.34712262523675,-99.83202221407858,-131.6747149633974,-171.83535746969721,-194.47805693223484,-226.42066580404958,-267.4866349438709,-283.32662320766315,-294.3588192559518,-328.83660142128815,-358.02746802299964,-374.7440049721557,-403.865183744472,-420.1971963485261,-398.0493043793151,-370.2339937357399,-341.5963460694271,-278.4123713923866,-200.31834194823756,-136.8609771950216,-63.47586576829272,17.74583998239689,69.48091129185053,110.00153580804951,163.84803851176747,195.80352028224104,198.0545179447816,205.0682629189132,202.83620216118342,171.70558723967468,147.50559741240897,136.46889943543948,102.62709953775374,61.43464103714633,39.69923376780132,9.882858142715046,-29.70007049148792,-42.33077520864049,-46.3078009676166,-72.35194834163113,-93.70334118306879,-106.42814372334377,-144.7071989620372,-189.34164685620615,-210.90398555847992,-236.1440028331906,-264.26266169370916,-253.24742662920153,-214.3884556340754,-172.83685018123532,-102.5030904869261,-6.058924020269437,73.49843996467064,146.7606256160859,236.81508327251015,310.71554939494234,359.17431881317066,413.5358769278452,456.44902950932396,462.0927297447422,462.3429495313073,465.02144376211595,435.7183869275301,390.5098611556888,358.52637669426053,313.28253420808,251.63305980098568,210.38265307912988,175.19131077144914,121.77884231172601,82.64442089312698,64.13067522274372,29.76065528657531,-7.172796196099023,-23.269270782796028,-52.27137357064748,-103.98539639319137,-146.41636767093527,-192.66501266378714,-257.4333394404298,-294.48610036463543,-285.6980138609623,-263.7211961016337,-221.72015400067755,-144.99574982280532,-68.98304805336076,-0.34432960214454944,94.3508225939643,195.39054940129313,268.04445290201204,333.3230384695558,394.92307790510756,420.94610878985486,428.9303513578265,447.1730385626729,449.59091279154603,432.276026082677,427.96578550122615,416.97662065306554,368.4013092287458,311.34721395985923,259.7905400642304,191.78776398135062,130.3556509611494,100.45546151956526,66.28295296931566,16.193580449546936,-17.094810898896323,-46.06275072175636,-93.47583154792358,-130.1628718209625,-152.59230649361456,-195.5319249530865,-239.9401931504529,-252.22407217009092,-254.31269793975198,-249.20813881647334,-205.94226151534642,-146.69880436626673,-103.38338858566115,-49.536918816968296,19.443918445582064,68.6032099942583,111.91531464036507,171.81097298061493,213.95883530345446,229.14798237818528,250.53793749574126,262.6215583045591,240.82052492299857,218.883471308746,207.19767341283227,173.3128308386071,132.67519299246027,109.71069524142403,70.87618224511048,9.285779700169225,-33.971246042014876,-65.22935348241498,-106.32918916795278,-129.42794717124866,-135.29408883635014,-166.30461736760628,-209.34102857021583,-231.99911256777486,-253.7626088111704,-272.8790379869491,-252.14783283470825,-209.0335921683944,-176.38819052169993,-132.3682497692655,-74.82282900349455,-38.18543007908209,-5.617850815206694,50.35368550854754,97.83346655303377,124.32632009844681,158.47199162792475,182.94067085232254,172.88482567490107,161.7816220682689,158.9166387727235,129.39479198500453,86.9160685386839,57.82056669053654,13.24670451087519,-50.20170198230851,-91.68469076778406,-121.23867273783479,-164.05750246922267,-190.77033639868677,-196.4367340274615,-218.74339357675532,-245.03085375037847,-249.59921535193257,-263.8022249412791,-296.8325415303241,-313.4084127214096,-323.00188083232695,-344.38610425230473,-339.96435500678325,-297.63616753942165,-253.8915523183317,-202.58198654827524,-126.08916662927675,-60.342919392798464,-15.55005205382978,43.66557018486907,103.63696138219757,134.2553381837362,160.9981166977509,190.9161549214831,191.39394656396988,179.59980098071844,185.77708984253022,180.49540067244916,151.57017152023602,129.84132329163128,102.01158367345916,44.999806438923486,-6.162273869711038,-37.44874491127932,-79.58527269268315,-118.76076289646026,-129.66284186852647,-143.06248857004252,-170.48437651678702,-183.50612492475616,-200.2714013201446,-246.93278900123448,-286.2878974650994,-296.63401109491167,-300.94712600625195,-283.38692235725676,-223.47340371406557,-160.75229047675123,-112.19710454975146,-45.696796388131574,28.085166795903056,82.03990633762325,140.0669683276672,205.3513689780366,239.82550291760623,255.2812212208373,282.1956461846263,295.7046098313265,285.70519160017636,282.49725803533323,271.74024960765576,225.96811120877976,174.20102712570838,129.57837067945863,65.26237752471155,0.14031064486739098,-34.294007838139585,-64.2686350118951,-101.34265398787073,-117.28166286269864,-127.87260636039684,-160.79908797329895,-188.06770849061832,-200.65690677671793,-232.49095475461152,-270.0716918411542,-282.6332859337456,-294.375897499083,-310.48211038580763,-293.3086026748062,-255.52110153312157,-227.2900624594705,-181.1315950760077,-107.95513007481209,-43.37709229992018,21.514261603215992,107.39662817253698,177.81067205416343,217.51341216204477,258.9966083069159,293.3992214287333,297.74354769339885,301.44596519746494,313.4625729797324,298.88247321830835,267.33696094381907,244.07011738123867,201.8314653384805,135.42093320247136,86.17891100459502,49.41730242053124,0.06060108052061253,-35.95340405286762,-52.19612494190187,-85.0615310051181,-121.6442432272502,-130.75712017259843,-140.94289646324987,-168.62910119145712,-186.01200217299618,-206.27293015969292,-252.94216914872453,-287.0904267092856,-286.1868932411285,-278.2783674895742,-253.46815540601895,-191.10432164137796,-126.91714806402759,-74.84048266791163,-1.8338034398403131,80.01571732970295,140.99135013668254,203.74785325798945,271.8144520372735,306.4312974860734,317.3300535160643,334.0360527865507,332.40156738823305,305.25082936817904,288.48411065150776,271.5031540141147,227.01238832848634,184.75468449537902,156.95992992206862,110.68024117419175,58.71522660673355,30.03867655793167,-1.7387846441477741,-44.253121844950364,-62.29555534421794,-68.29279851523414,-91.84024992173686,-108.39078817014949,-113.58435620149183,-147.2327426986892,-197.9175635744342,-229.11857054501678,-256.3260570235371,-282.42003375508904,-274.18551042683697,-248.5870589743426,-237.10388530023113,-208.16924280208337,-144.21916996321838,-79.19542069274777,-11.817373212308622,73.47650386607766,141.67202555571768,181.60454595245915,229.4592135678065,274.236998684576,285.46667124700974,288.7341349924397,295.8049771430127,276.6083686093398,245.52266013869985,232.76444856441867,212.42814753503615,173.54292865570937,148.96819309889574,128.27281441308133,84.3643203801818,45.79959999508162,26.146707068111112,-5.387929356371021,-37.68953541759176,-44.20880384565092,-53.399479088466265,-77.70679139253238,-85.71923138195498,-89.80565800840955,-118.78325640628624,-145.6662094957436,-159.1005745035451,-190.03070268893708,-221.79015474146232,-219.6951664288074,-206.59644868240088,-192.5044861666282,-146.52251197435015,-84.6452475283105,-41.813014333314264,2.6443561070130315,57.10291122553947,88.82282942077694,109.24530785096613,147.6814984106034,178.483295174152,188.2761793973173,205.93445149969875,219.27505441688234,200.92354290067837,178.77763601965248,167.52983930917406,139.77704016666445,108.95356905526253,102.10037577352404,90.8565352408323,62.12726873516347,46.7437265753275,34.064944199776,-1.0587886779717621,-27.5693883153146,-31.83149780824509,-48.424712076328476,-70.39734231435357,-73.02757749692668,-84.91569392806451,-116.29218863651403,-131.2865421129469,-138.5353865144503,-164.57961712283742,-179.40738694136314,-168.36522962461814,-164.04766464058406,-158.29553743084784,-125.65811583678783,-94.99437165411452,-79.45597959363246,-47.27465774194392,-10.811623893812571,-0.13711081813488568,12.227152191391768,39.80985742159224,50.159996709079266,52.64224297454863,73.34577276971132,83.36742304273832,71.35055621472249,73.55908699259531,82.62082678849058,70.4124040316321,62.36905839725547,68.9153255110444,55.69396110478503,32.82955494725737,30.835415663044223,24.832887244123874,2.81556514011746,-1.7252607068375254,1.5700120511224085,-17.6666782690846,-34.14879683565612,-33.83454836016201,-46.677343542862765,-60.32890022876389,-43.91946029965198,-22.600443058545164,-9.330641614027474,27.04012418473004,73.10327046214078,94.12806644531605,111.45576465186062,135.89841499421357,135.73617384197763,123.20806550788265,128.43397941521684,124.66352199391132,99.10153961455379,85.48081635883159,74.61740638088838,36.980725566868514,0.25033826508069623,-18.423416559511846,-49.339451815923795,-84.05977315898434,-96.30368396429216,-115.61436228711266,-155.37567661482075,-177.68478044925183,-186.41894787294655,-209.7069484101865,-223.23056328315238,-216.25223790519544,-224.61097769047782,-241.97017516071406,-241.4538706556919,-249.84692293280685,-277.2022695064082,-284.0596385304495,-273.166717730801,-270.7480366258183,-251.48234879047874,-203.85257906389808,-161.86416917739538,-117.47404137804693,-43.01501312078079,31.071558394262375,83.49293383766576,141.06131848548472,192.7826541542115,208.7246987342122,217.0383341224259,235.86962171234435,234.45260251148497,220.75472626719986,223.1315475411122,214.97437625337116,181.61253412643384,157.23843971429795,138.24866801771856,98.5834149503032,63.62707189860345,46.85134371276657,15.515162125623347,-21.44153063245158,-32.74115942413088,-43.60905741546041,-71.01290043789574,-86.04583904667587,-98.46183407776287,-136.37739055650883,-171.32756325516445,-186.63998656395924,-213.8441251827195,-242.7632520856099,-240.2558346251949,-229.60530545595833,-224.33675665946768,-190.33481127019908,-134.34061610951085,-86.60918304954141,-24.87746649498486,58.92098550530088,123.30280570341631,169.3719233645097,224.91815164444358,264.87679949236593,275.2454191072171,290.08055566226795,302.677975406434,283.6539494484328,259.70739680094755,248.6660033453453,221.2641147575746,186.51953148664467,172.781600991869,151.58493455868552,106.16382448216004,72.16487591655306,48.05415236965273,7.20409286115547,-25.92184378661659,-39.088522610104405,-68.53182688195358,-109.27233028075992,-130.4122820049979,-153.6975547744465,-191.08370440738074,-207.73966493636345,-209.40312619052008,-224.7619962477648,-227.37115236745944,-200.41907449055788,-175.0298765168148,-145.20485262576187,-85.17775333450794,-23.23865970334607,24.019082974988336,86.32846996900001,150.4422571798751,180.28723023141316,198.7503473678284,222.28916717150918,221.02402960161118,206.1436899507969,210.4989965080415,208.395737777669,183.40897471707257,168.5359172742545,155.82372375662146,113.85164084897555,69.91020058737088,45.96508798682843,16.204310534369704,-10.459137269502765,-8.50294714933382,-11.515405732699309,-42.27211720600972,-67.61131434470832,-86.97062620244891,-125.3695284806222,-159.06139874588567,-174.1629247167795,-201.21861954010305,-229.0243822229467,-223.95719471322093,-211.01943932050926,-209.05203300638442,-186.0010435334224,-143.05534883338063,-105.55158411816927,-51.913847586516574,24.570851229786353,82.63397860798926,123.89918219253994,177.2711702911038,218.0814408121079,229.36278917176747,241.7240143083456,248.75961546137384,222.9938103431648,193.59154895094514,181.4674552571753,156.29496161693055,122.77164988645843,108.2812208216238,86.17178182342413,40.641036726994926,7.968767310342375,-13.612611726717947,-52.74091496428544,-84.55737102307386,-92.53520923717322,-110.47390518845438,-135.03531428257998,-138.5536065735209,-147.25275387399975,-177.49517018901625,-195.72919667307875,-206.53835568395004,-237.96543997299517,-261.7580079561592,-256.04381795286815,-248.25472913775172,-231.07320283777287,-175.90200551473274,-110.76648837283422,-57.82396852180834,8.523501694592294,76.50185137096553,113.02636274248962,143.3752125097451,185.9958805476001,209.77002851478323,220.15338948250366,244.66742069289634,256.1093773122187,238.03530330290602,224.92086350240788,213.58935582054855,177.24208812617283,142.86691757616455,126.45742573415082,94.24857919022134,52.31310731448,33.30873519747428,15.843182032003975,-16.65309960893727,-34.6542145999044,-45.354825040851296,-77.58562397086514,-104.30451686375233,-107.94127260385171,-123.32576871534187,-149.7551246123152,-160.61267436745777,-178.55893232713873,-214.77070871554903,-230.98267882282747,-225.5284810722537,-221.9985739039944,-195.2774377127708,-134.18663477646564,-80.41698743528656,-38.113474680734136,18.203428472647893,64.95608540670247,87.46902435052287,119.26582164395774,155.83998018839856,167.72496397396486,178.95318657023165,204.34206566430225,207.95799137753855,193.1103663441924,192.38097181804523,185.19799989038046,156.1391154806163,137.58264564895472,123.99827635988954,84.99163714391034,46.96407206881601,30.490864854221776,3.9453071154704773,-29.330254553504837,-39.6953496367923,-51.32213584884008,-82.164200603793,-99.41069220602506,-106.23753773442316,-133.8164659459544,-160.92682489561554,-171.85909280722421,-199.07487484845822,-235.19232472382916,-242.73814143913475,-238.0342303142611,-234.92562240617076,-202.62842006664516,-151.50568187507176,-118.99103346155901,-85.61989537196389,-35.098685999100496,0.05648186203799899,23.683633971352176,65.9685271363319,103.652928510797,119.73586319645854,145.98250228664273,176.2562210405492,178.80368737078408,177.35497299366403,190.11706290682727,185.0858739177758,164.62377151768254,156.77351912920574,139.12270661069834,98.4991888496166,71.75132865669943,57.74676117786813,26.284297332051366,-1.7264385414084087,-11.606765152952377,-36.08253007046257,-68.95353965941673,-76.69996135910732,-81.60476775791493,-104.51281292953557,-119.22221574157881,-132.9143342902139,-171.94733048583788,-203.0872912835781,-199.1100582526186,-187.85654841045653,-167.90617509416882,-117.3196598640126,-68.63243240394246,-43.028850682128834,-6.81948384993556,37.79870506833669,60.43614002684153,82.4094644035014,118.11800083441491,133.76134393756547,134.78466010612794,154.91017579094677,172.10382309445194,166.1455204513484,166.36730056650785,167.76511188163684,139.10568888062647,105.50422304446766,91.00065558399764,67.78873771894197,37.69873017002193,27.883885571367717,13.320827682112295,-23.593593820884458,-46.207818922777065,-53.80315448618163,-78.67946068704823,-101.50900589524394,-104.95238193962966,-121.02912439742427,-147.210438440288,-154.0575593219855,-166.41381493144314,-201.62968645464596,-218.91906179258297,-209.82003585881236,-200.70493549314983,-173.34168325971535,-118.46030252084375,-77.87043595388828,-53.47114689306845,-12.019857225264042,28.192891692560636,48.94072558160883,78.71606437907627,111.18115551741705,114.92248199634123,114.8394608729763,132.46547318544728,137.18809967575768,130.95842284494034,142.4312268539105,147.81243094351223,128.89529518252152,117.85925377239656,111.67958911449023,80.74751349776926,50.39644468062602,41.421647054666224,22.030188376942128,-6.107411660665667,-13.601432988819075,-24.114342953639863,-55.277325768174414,-71.83401692957815,-75.2736611263852,-98.8329441503615,-122.0590747967465,-126.61529015845454,-143.54922607668536,-166.28607021386418,-158.78196174874364,-142.00841528135106,-137.39856882373766,-116.08780579838248,-81.69164079149083,-64.1442856787676,-39.866637566173594,9.668711880917236,50.33258558470225,80.32619516544251,125.55553936765732,160.9454522019068,167.70356065433256,179.00129400216233,195.09752175647117,189.4144554027925,186.58914820488138,202.66439005563456,199.9083554833306,177.0016310370828,165.7438719850217,147.64163459968776,108.0355352840646,82.11163290297407,68.00853671966584,32.53993896936987,-2.981494233490201,-17.65360108367866,-42.80037392411915,-77.73143738341491,-91.244473136166,-103.99928824218884,-135.3046979507991,-153.8639314391218,-161.73241270056153,-191.10550084757674,-220.41488581729703,-226.48781845394265,-234.18122176056633,-236.44536086421465,-201.97087408630736,-157.81281475530852,-131.36466129805473,-95.5841604368014,-51.54963941905189,-28.318203868413825,-3.2658644914269823,41.57007142522466,70.87505208855258,83.89655737545345,112.24923682635733,135.76458987809735,135.7502114066384,144.30490216919628,160.37512720370245,153.59232939106118,145.98393527853892,156.03469036266287,150.46264413281614,129.39920217387947,122.48739212490031,108.70890625411104,72.68604725456895,50.4924638332123,41.6355838411308,13.43250190567154,-13.961056977971483,-21.714636903512826,-41.49670686247068,-70.08607299527897,-74.49305373432432,-77.0990267360644,-99.375915888478,-110.22442828485656,-111.1478783728977,-132.87426116873408,-151.17078320481747,-142.47825522676578,-136.73632834392464,-133.72867957398424,-103.68506095940353,-68.23240316970274,-47.27431696471359,-10.683120197040948,37.481096516876455,62.574558287820224,84.0485016437196,121.78502291633033,143.47549333973785,148.41252957084373,167.63435948763376,181.83401808020787,173.8480526475979,177.21043552315675,189.96569382453168,176.93536857904948,156.17234492467293,147.48774731039885,121.0880236724268,81.12128613329259,62.42223731410058,44.81482776730469,6.531468719831061,-22.52705512656447,-42.15196093012713,-79.75629231197583,-110.79907081661277,-115.97650723771619,-130.872230769577,-158.14792278238423,-166.9973776146756,-175.54668795506248,-199.98186549315608,-206.75987139895497,-195.96911276992623,-198.540870671115,-192.8180454081041,-158.35482233739788,-127.72356424953749,-101.75620896170695,-51.03485947470638,0.4906526813816612,30.91893042673295,71.00594886034357,116.96201683993408,133.15253040712665,139.24205838969323,157.8488281749741,161.31043069697938,154.08310645777703,170.15867593836313,186.55874780286396,177.07437548144563,169.82873386404967,165.15771713149957,132.94849538855553,96.09242385912458,78.71848431890429,50.63176187079873,9.933411138030888,-12.146209675030688,-33.251177634060035,-72.4578695518823,-99.08952041534714,-112.68529652149437,-144.19354146154927,-174.3936955109075,-182.69266945390223,-199.11745309026418,-223.7259377759315,-223.28336935146837,-213.36463817641567,-213.08563258743337,-193.733416090438,-156.799622789695,-134.612175852578,-107.00043688252673,-51.6035302946673,-0.7119333741555245,39.050046914315196,92.38580900269164,136.67930500574013,151.3199797271411,168.05488981498223,189.80004389524703,187.52008743240918,180.8267186554177,190.87849653590246,189.05094858892735,175.35448893543256,178.97637516200734,176.64592824382692,144.0886563578833,111.9170900793442,85.04367494150408,38.37246227575723,-3.8909764504854643,-21.08509023758995,-47.68914848949595,-85.91857040636128,-102.20877536574953,-114.72699328054983,-145.26561357627378,-164.33384008613854,-172.82251928014267,-202.2329156947685,-228.37765531103878,-224.57825656158442,-220.59549290494576,-219.64213721727117,-193.64503415271923,-165.38311274783769,-155.41654283153014,-128.94818770955715,-83.14202838045172,-51.850674392257844,-20.217107958871985,28.353712322227192,61.22555221774751,78.95614677241646,114.20698723878331,145.12696872237825,147.7034347219705,153.9747337017235,168.43899754879976,161.62952411458173,153.52771060886934,163.63492117252616,157.40805866314534,132.92171589240309,125.13564887976962,116.33795276611256,83.91819019751642,59.612168951065144,47.414416230858436,16.793216039166065,-12.945258560488494,-20.83943825586932,-38.13812125862557,-64.40162541455713,-65.85199127720402,-63.94759983001177,-84.78269653728205,-98.8959240643084,-102.18103524892413,-121.60106143374813,-133.90527228326835,-117.12056984496654,-102.51185106917481,-88.63941966011274,-41.54232221174223,15.08951032699836,50.64445297759891,89.34190521234915,131.05193259991873,145.7652001832205,155.7779061490312,183.91625063116211,198.03194861967876,196.38123923905468,212.06470387969773,225.42668635096135,211.68313756257868,199.38862280095424,190.60083223656807,154.27554654768755,110.01229792231896,81.5783317366454,40.74904678346654,-11.593899052518642,-39.97996010255427,-61.83412181615239,-101.5579891111597,-130.21661107204403,-145.13509618989877,-177.18942985120424,-205.982266668047,-208.8492586785954,-219.4408074930968,-244.4101826266417,-254.19377380070637,-264.92427782215645,-290.92415120979564,-292.31367892733454,-261.8567363870795,-234.17557914370605,-199.0215715208967,-141.3751350320105,-93.75306222584942,-57.482425525717325,-0.36054907320707485,56.61944823689535,86.42206001282253,116.81997245617234,151.64073605594206,161.4482098664517,166.91356164963472,191.9841316784919,205.29753742130075,202.67192986689693,215.2824895245936,222.9779212100457,201.04939724658186,179.97674359457164,164.6144401167751,125.67001975409187,84.39637872149869,65.84391426086488,39.9883809416482,3.266015548956995,-12.65992162089946,-26.280550568963687,-61.481197038505215,-89.72242821819158,-108.64351626802414,-149.0794224234972,-191.14765545737993,-209.67963026744587,-231.76908122223955,-256.1958601280411,-246.9904033677226,-221.33437329447978,-203.93882129673906,-168.30169513506712,-116.30061961056717,-82.84347530489498,-50.8575738182931,0.9079349692655683,40.25774481329069,63.031221148901174,101.51826013656401,138.2175959779166,149.56902254524041,164.55480348596046,185.3996914448587,180.39688144537377,169.4618825072133,177.57155784345974,175.0087054500797,157.16963535009677,153.6424503097931,145.44073846663787,110.86012432942655,82.4736397301732,66.02322852154046,30.523973084270878,-6.281101044719248,-20.008527523280417,-38.654397848973616,-65.51315035159169,-71.1722934859871,-77.45008665040814,-110.40127760561994,-138.96421378824326,-155.1283326118303,-185.72501506279792,-208.31713685324596,-196.61423137547578,-181.31736943842273,-169.02847064065128,-131.54260299174487,-90.13443106016553,-68.0157634834454,-32.44986614708125,20.549265276297092,56.395783117273524,88.60642879718104,136.21837228489971,167.25830033889955,177.58975303175956,198.91796183494446,215.08725208852056,206.06227606042307,204.81484404764444,216.06702865064298,206.50976358859853,190.68221611816392,188.15267100449108,167.1132346584991,125.68523520880946,99.74936944992778,75.44772035835672,31.73991126855179,-0.543943141606519,-17.926842957901272,-53.96342830180255,-91.98238681296556,-108.07071169866629,-132.75115848584525,-170.60227217842598,-188.39477432821272,-202.54044966022946,-235.64959065269653,-253.9716355523458,-248.06609781986913,-247.17018715752775,-235.59940336698605,-195.34066927710813,-161.55570692492012,-139.22804549846455,-94.24124207727816,-42.02509971873143,-7.410550369870993,34.32299821756555,83.30619100730155,107.05596295719224,122.50654832766418,152.62385924883006,167.6905100141074,163.26050581207974,172.4040944636495,181.45844899905717,168.21065048508828,160.2425424944479,160.25918920742293,136.61272697824398,107.14076485734057,96.44897143230554,75.6260738240083,40.30047833847264,23.14976374279708,9.159699914274562,-24.82427336646527,-50.22889752977869,-63.18326782591117,-95.46731248270457,-128.4728449121651,-135.80521149167572,-147.51919468801066,-171.3562654642342,-175.360716170395,-172.45830486719512,-183.73445383790758,-178.7278646486692,-151.17327934282113,-132.41701094770826,-107.17493403065671,-52.66864627769429,-1.051476284817321,35.88564695176863,83.95867349508636,125.75343090586003,138.1105189837747,151.12795525323247,171.85548951984205,169.7294596402184,161.1882823869464,170.90964457431352,169.5275053582512,151.44593121750614,150.39623674714767,151.71449610816953,129.70233766405664,110.80487162414875,98.39590093932638,60.83561766972015,17.551680008621705,-2.8155966938050057,-26.946867880686856,-60.45086530126321,-72.48108531138828,-80.05399307644407,-109.06796420304846,-131.99729453156988,-143.27453993271462,-173.03370928449854,-202.2456673271814,-203.00735855318098,-202.65022198585854,-207.77278562945898,-188.2448055633604,-161.56821941631443,-153.45022381004907,-133.62050089290153,-93.00653501654219,-62.7138167158178,-29.99305868803359,25.211801195852267,69.5197976456952,93.70619753669875,127.97326411582638,156.5073599743547,156.01344295692272,156.99773853861626,167.1962676939995,157.50593919300636,144.64875236372706,150.7853560581786,145.36022301586706,123.34404011262978,117.02294138993706,110.16170610054274,78.177414621425,50.89707544129489,35.60218004049003,1.9601193252912061,-32.607187856015926,-43.00171595696213,-59.35937143692346,-88.30192310646876,-97.11489389904891,-101.25823083981493,-126.82953074751046,-145.61650393288554,-149.38119089122773,-166.41409230016544,-178.49724829874773,-160.09719225856293,-141.08981024410235,-129.51348176227376,-94.00789902441153,-48.43431744433764,-16.849049416795168,26.159223394805192,81.02417069276318,110.5646274057576,126.8599019477341,155.00914853638005,168.8476791384862,163.91659687709767,173.73060096312298,183.97921562764657,169.45221286064367,159.78472601704567,162.3390260199673,143.03123783217308,115.1774520329041,104.70951949441843,83.53596179945949,44.807954006097575,21.941066398970854,0.8323800689868683,-43.728797667084805,-79.89587699312395,-96.68890297941887,-126.46337698062572,-156.85341906831601,-164.2354245203021,-177.84933347846157,-203.7619017735662,-208.41791490343257,-206.93014160101356,-225.65457822703013,-233.44590117977867,-217.15692972831533,-205.428830749238,-186.54154520044048,-141.72876596839635,-103.96744643166431,-80.5100059039093,-37.40604980370292,12.782357034830564,44.44313278993011,81.02652839487854,125.2859069625246,145.31510263480953,154.9884835124737,177.44079323885265,185.37455736264138,174.41442546663754,177.373548402864,180.0879606244972,159.238980513078,145.3644728853435,145.76238630473426,126.84829589802632,101.39532828237341,93.00435248619847,72.64457875088792,35.23887541518502,15.448480780337473,-0.9171997962541747,-39.01549105652539,-67.95107223446857,-78.53543938779718,-104.52588136914962,-134.74320413773899,-144.945891080606,-161.50401840558598,-187.1893336623224,-185.51722409975218,-170.75257260737635,-171.9674260727947,-162.36826978666645,-132.48214447478492,-112.44719469269313,-88.10587860391891,-37.20693424431296,6.438660599153215,31.825585736561266,70.26291730632042,107.2037169300292,116.1144733122117,124.20470208529697,140.34514564284382,135.60931606976155,126.16760122324368,137.792287510774,140.39954162123308,124.3659148953237,122.34276416265392,121.40266277714059,95.57138148918304,72.65095172272694,61.777497337539096,33.85077539241296,5.250413876387235,1.8201841786807367,-6.792835780856566,-31.28071038349485,-40.041253490035245,-44.7361749427705,-68.88653972123419,-83.3067287658486,-79.92764397978993,-92.40483216888371,-107.94337506237565,-97.3948715518076,-84.77201924689707,-78.0479139121685,-46.08959008184069,-4.473099209192853,16.36253148699035,42.66425537657156,83.3715590903516,101.92271120927307,106.05986224348345,123.16189948355589,130.22389376405016,121.63976104568926,130.77691893888456,142.9372779578601,128.28284921696883,114.30272566442753,113.49821490248493,94.94666004438693,68.83301675454581,60.513655158238805,44.152059153587984,11.784083886970427,-3.501568315922751,-13.52951050711828,-45.396241851032116,-71.72566760421009,-81.73804758874027,-106.65045597385034,-133.98366830269921,-135.85487784809047,-138.02803504847094,-151.75330768183989,-149.6740234385922,-147.59422250540723,-170.9507290968064,-186.43500182208257,-177.3581549387839,-173.03402751969935,-165.16222287110278,-133.6002966008002,-109.12548139902368,-101.62863176824749,-77.56754396251225,-47.02497508203898,-36.69308837524696,-21.923763260920666,4.586956050438941,10.418854610787193,8.308071567106328,24.785321386513136,33.63329772566388,28.008189347018604,40.8246504765334,58.73114424092079,55.039593197483526,56.57160416993914,71.1773034587002,67.28378358815621,58.68039067816886,70.2814595656468,72.73871038570766,57.846230195018784,59.639734753216814,66.69390892279345,53.25997978821157,46.1340631559883,53.036487188463724,41.02391396785599,22.03987992875299,22.599490728944165,17.026344518961366,-1.835068466615808,-0.6624350960516301,7.8497611146293425,-5.258054142457466,-13.865825632298776,-3.8745097414698515,-0.7638704264096163,9.511251190764064,50.17914817305549,86.94316918765476,102.45347892881657,126.37547166603576,149.97119188377752,150.4822369060978,156.7331998826501,178.1281706496158,181.2697606371573,176.18532841806785,186.91768427384824,184.1472817653406,157.6061542859577,141.2140686934805,126.06752775498035,87.67069730000995,54.729973547823846,37.556491458969305,2.911378953107439,-36.73249910334235,-51.54424688894919,-67.37473485111413,-95.96356124256388,-107.09232997607586,-113.38167576180335,-141.77306774301036,-163.8664831717714,-168.39800140201592,-189.03524255213148,-215.35364690028842,-217.31937263498628,-216.1173862355272,-216.90374012848088,-185.88508351705568,-138.03909494905994,-105.91026089600274,-65.11529559747414,-5.446939928110593,39.22503145201402,76.80217718817755,130.39399902508777,168.07138024953719,175.68988211860776,187.20949466679082,196.0794773757346,179.40423305124128,168.51710357053125,176.0417562971131,165.46844105453783,140.88547785549247,125.79685262487519,93.8302849039586,38.10211334191048,-2.685188644346365,-35.73052297343724,-88.8998393131445,-134.8005006295503,-159.64167570210756,-194.50387420579904,-228.5538481434109,-234.08016691765425,-239.91825187097845,-261.3068337374307,-268.1077451677821,-272.43462766727237,-302.2234700298314,-324.53929414448953,-317.7087497196777,-309.2685229458512,-292.5703793982464,-248.11051674120984,-207.79055037184264,-181.25090990915174,-130.59621428992176,-64.71743387308814,-16.679755163026293,32.68801612662898,91.22950194884739,127.51365045117248,152.89830262929647,191.91059116005715,213.82886860597307,207.5284354863776,210.53788512746158,218.35727869030526,205.79942174250158,198.1267982324681,204.1733314525854,189.20203696202327,161.90963199561048,149.02084530988463,123.89990741479686,76.2810489766928,42.248996773947866,17.302064443733563,-22.441601470431053,-51.283128644834235,-61.64015782990811,-91.3026922944139,-133.24621487063615,-155.86531291522036,-177.40014173260332,-204.61361259938874,-204.3901944019049,-188.3196415837289,-187.6637653609194,-176.8330133751661,-140.4618561709517,-109.32581246782284,-75.63075067565703,-14.235356958388959,44.307788505405775,81.55375453217943,125.39172502866217,166.05142034668702,177.79118396143497,189.66124375103536,216.12428926014258,223.62036928765875,218.31268028225682,227.55861704513546,227.4924037463615,207.56787787004012,200.18123084368543,194.34853237255726,160.04853961254807,124.80736641318482,106.37320889001506,75.65579815893702,40.31054121877362,25.531600059637057,3.9032595289265863,-36.754200537224634,-61.46898541525027,-76.75220074045644,-111.95146662791669,-143.65805880844204,-157.695267961902,-182.17329083203234,-204.52912485407376,-194.47139822153068,-179.0542499309887,-174.86990807315408,-150.9403667799918,-114.70542180013616,-93.60294176349412,-61.74573025596317,-6.9368289813349655,36.00228645385467,72.91220516962605,129.43017312872107,175.52101340684888,191.7998370015905,207.18487920217228,217.31173221690585,201.75933997913768,192.0005947543229,203.87277786511865,202.12762535361003,187.04228684655004,181.66064197455955,161.45165448716614,116.70543851444671,84.65699168232386,62.41467358559209,23.182061564409473,-9.622672069642906,-24.262692877274187,-53.215941533536096,-87.65971715335692,-98.77333192712294,-114.23316003215585,-151.3625111825723,-178.72349591568928,-200.92665911521658,-239.92996077336298,-262.03836048546714,-248.58164946666182,-234.45697153796104,-218.72600015517867,-178.05230476663235,-139.59388381679304,-117.05598942324104,-77.3230300262413,-28.6831094745214,-2.575550686950963,24.67317624276859,68.6601399100671,97.9531840149722,117.29671179137145,151.20721311958167,171.8420253490306,165.27428461306172,166.1770530677675,169.63316583374922,149.2729871813799,132.242142327222,133.00297286149578,117.56301676812353,90.33976846905765,77.61149388762036,55.10113894393635,14.314817881318069,-4.499020351293673,-4.428209761374631,-16.27863663533592,-20.165929214803274,-6.22495562405993,-8.353047712795435,-17.69506071991549,-2.6926532169010695,10.898350197871567,3.576084738756594,4.81025012042305,10.002829212197605,-6.666861513533311,-17.86166013645562,-7.735123458335663,-12.037896826722088,-28.019927823799172,-25.074576094008854,-24.564204530430032,-40.714123859199724,-41.921568024370224,-36.459672535943476,-55.71019020959632,-75.3095067321812,-79.22159577658007,-98.54598904328665,-124.71862621453289,-126.81183928759995,-128.9156505485401,-145.9075898700059,-144.60609665656324,-127.68865761804335,-118.78875437873678,-90.43316248396464,-29.90248633555376,22.826159364942978,66.00050397068301,125.86138091847234,177.47634580306692,203.7939451629865,234.32508854607443,259.274803740313,246.86901378695296,225.15130979656956,217.27667014603685,195.4379982299771,165.32924304990115,153.04240471024525,128.86131199006383,74.77465162742837,27.11381968545669,-13.745803159659344,-73.19665942440744,-125.14911228137379,-154.02830118794333,-192.95160729652642,-235.28353009600147,-249.8714291577657,-261.8764059683249,-289.59560165318703,-302.008241633794,-306.1352058400228,-334.39899930815676,-363.6259000509008,-374.9264410275898,-395.78432335933894,-413.98908732817426,-390.29483483411815,-341.81005299785033,-284.81325578278586,-192.02295639395038,-78.95734202730574,8.942365154003769,83.50563875326985,160.01934983461877,212.98477889057185,254.3102255426317,316.20407113338564,371.3373837683249,394.9309035660011,412.1681140428613,418.2539154661375,388.91000181145165,353.93756248322154,333.376623014786,294.39331049528056,238.35925004503213,193.81953499513867,141.19530952095423,71.3948330035856,22.808193344374672,-7.500617122421069,-51.85711466642584,-90.75930565386255,-110.9752826447092,-146.80181437797177,-193.70576554208074,-219.55947589034017,-245.8709475624409,-288.03876598314133,-310.9345153409953,-316.0212810092582,-332.36437816353174,-335.6574702629249,-306.76497594264634,-274.1243635912147,-229.46218980189207,-144.07786494176415,-51.33832180495638,18.029088623826905,87.19960579833828,152.56609796723444,190.60610908164415,228.19720815385375,280.0822707248817,310.12019090561466,320.3393810382871,341.37528457388146,351.35692895930265,333.24339168358864,318.33373717961337,302.901810211568,259.6852759435411,215.48953831003797,189.30554459691,149.57415786993124,101.38888695698807,76.3045511715977,51.24921440531471,7.706752883909989,-23.411409143249454,-46.988978860893624,-93.87350639519613,-139.50737406046375,-163.84666217545964,-198.44307649168414,-239.98158265290758,-256.8768887550287,-269.7401458212412,-292.76461295031214,-288.64190477317504,-256.86324834653834,-229.0065711662542,-188.0833761565202,-123.79574858052015,-74.1465003455781,-37.49608485229188,18.30049035707374,71.79596368338898,103.07147932960126,139.75176219077926,176.51057571800652,184.8401817276322,189.9925241942512,210.78405207754656,214.79431947222574,203.31300962756498,204.31069945978794,194.97460779748428,159.71693864420408,133.43841322143248,116.41820057251091,81.1188824451152,50.36898180396356,40.655284496750625,18.644276015804294,-13.475941924527497,-25.53688926571852,-40.680705924958794,-77.18206598171119,-100.96582029211693,-113.1695377035048,-145.48353999568505,-176.55775032050298,-186.78700707954607,-203.56273511139028,-216.6259276007524,-190.84366418203916,-151.85647106634195,-125.69928677801886,-86.88565692258999,-40.3242094283362,-16.16356658475032,7.946921418033816,50.22561487468788,79.38608674582338,97.93604414887719,134.8357216539578,165.42154239726224,168.53270585931648,174.03419800765295,180.0030089929657,159.86714565057943,140.54766875495534,141.06509622121976,126.92637648941412,99.2647361830781,88.52739583137429,72.89762844408402,36.28677030645592,13.215500363480082,1.17112852814821,-31.870729828642514,-63.31309878622101,-72.87344141900545,-92.62304977811215,-122.55447747603287,-133.30406878682888,-146.94238130808705,-182.19998819501743,-205.34719188034737,-212.93735356395365,-229.18331294992066,-228.3220898025989,-191.73144001568738,-155.67171939123838,-124.47988634059261,-71.57872340023121,-20.163052225942025,10.494568259356825,50.251021151828965,93.21641442111495,106.4502571087647,114.06758166690912,138.79493106664998,150.87712677639715,152.37175666262146,172.26924527457794,184.77765096638413,167.28953276074594,151.74036981907156,139.84820505647014,104.60506232648355,70.69222786744314,58.00033005119952,32.58298128504816,-5.297247502457523,-21.80462631515779,-34.840408668465905,-64.37701569701768,-82.69488480931244,-94.42551642093527,-130.44555466981362,-166.08378649689627,-179.2367084749023,-201.8864722222734,-234.13254452737698,-243.3083302828478,-243.83836688910793,-246.98667500152422,-218.29412443879403,-163.85050995737828,-124.62765721282533,-88.18923579096767,-36.99301355168007,0.6517863570841724,28.183861300191037,75.86660204014731,119.45469936195559,135.27095071332604,154.05599367077434,178.7051226598442,180.88994061964925,180.07599541084357,193.2568941308503,186.97240211221884,161.26328901422903,149.29178974983137,134.48067070197501,100.20418187084366,77.86061960708354,64.85778335987423,29.296227490318703,-6.303820797926132,-19.305277226145755,-39.504443285977324,-67.248522963416,-75.06404843714984,-87.9152995560585,-126.76260196081503,-157.24139316668067,-176.51121039303297,-212.94439756674467,-241.15666840818062,-236.1489654451363,-227.3480498472354,-215.425495885767,-172.2932139571071,-123.10632067085146,-92.72237616740318,-52.26620141314987,-1.3324285609804214,29.82661851972165,61.15823740901708,111.52123147185969,146.91109276975737,163.57854570864575,191.01126134658688,210.99280602216507,206.4326244126706,209.49291107440632,219.17574843153648,203.16230654178833,180.8535893204117,172.16217342968642,147.39873280263134,109.8062617924741,93.138979412927,77.51269813563506,41.471995649716035,14.520018182451958,-4.571784593595504,-45.75988096175396,-83.87445447203953,-94.38762003659609,-110.12459481321767,-136.11993597691458,-144.36929836194082,-155.28181393945357,-185.28446679958014,-195.40204107729122,-180.29634155055425,-173.94536060379,-162.2445683092131,-127.76264923550579,-101.6696899055897,-82.45754185389534,-37.36498179034539,11.549628525825595,39.34526745051666,73.51299894833355,113.16996223908566,127.11065878235027,134.71721224151776,156.48840410564145,162.81711021578081,154.6525466906577,164.76938550444945,174.6807944810065,162.4324204463693,156.062766151556,154.6336426153213,126.26865292493112,91.54335763992825,75.25677994232603,50.29999441890634,16.12122040961974,2.643724766030806,-11.070362162249904,-46.476781042628645,-71.58848328143668,-83.86901201678387,-113.4438695862946,-140.2120330452671,-143.4169598723691,-153.36905743204605,-169.49194309300057,-159.74258273906912,-144.81918586265752,-148.48822696807608,-141.82739369278508,-122.53163361141623,-118.43478006005418,-106.42290620528425,-64.23110477145687,-26.57648482785241,-1.3645514889039099,38.32547477248355,72.42931616834028,80.8496724134099,95.66872698915274,119.98438060260158,123.64396138548082,123.84427345980475,138.00590357182384,134.12948889000748,112.53348576421402,108.26544361049139,107.70294626704086,93.14027433129793,92.95791249757562,104.48121063591046,96.18563239456272,89.77971330043499,107.91094375782505,118.98506261363686,118.97379690840813,137.0501870356037,153.88257023443754,148.3844816735557,149.44079796294668,154.47606083447633,129.18929528282513,95.2501751617396,80.21085663032684,57.14798189886773,23.988810453669444,9.809264594341961,-6.071370710646454,-44.572404178841914,-74.35209657504717,-94.90598654504039,-137.15796742456382,-177.12605348743094,-187.27168869254584,-196.4517333213149,-211.32258826574383,-208.7007993698377,-212.7486818786415,-243.43891603048635,-262.58133575638266,-261.0593669569351,-270.29833812843447,-276.2149318021443,-259.1443159643789,-248.20445145936154,-241.2979948700633,-199.7709692345528,-139.58224659478145,-88.76135876565417,-24.710956683008092,49.6894829695075,99.17208540869214,140.69602724076339,195.95918907645915,232.4106981848185,244.74784624745914,264.08162112806974,273.31786366708775,251.89506090752678,233.3907217053289,223.67640979246244,190.03938345214047,147.8128885594075,119.43686843361829,77.04354581467788,21.449654852126198,-11.777524579723092,-39.98859927152275,-87.14030924626346,-122.05436450441447,-139.43357659656752,-171.72878821168297,-203.95058866510652,-216.11348341881185,-239.22340975554783,-274.3477130670875,-287.55950297735455,-297.5101821465167,-326.3178300073186,-337.1704710352968,-317.24947646932924,-291.4865801274631,-241.64019691701006,-153.47342166335198,-70.83272944205709,-7.329769408061065,65.655513958724,131.9040861337983,171.00798945464092,213.95189104172184,263.830682374709,288.2394835025185,304.04822566369495,333.3044745294152,343.77792364421225,327.43318612345513,314.17328945620903,291.0552057899032,241.87968779201688,201.21405343392308,174.15174819151827,126.81055283413113,74.77367174792437,42.93854077454192,4.378094807600504,-43.094040983119534,-67.26814169192957,-87.28306775327367,-129.83064455410582,-166.2262068929929,-189.98128164225827,-229.66913029630413,-265.34555872940064,-272.1773242596164,-280.96475881106585,-296.0416990661041,-280.0040781144033,-242.9971500593856,-209.03310160869688,-155.54758261083035,-85.3364643354223,-34.72705226766422,12.26428443826256,80.1206896734251,136.70787832795585,171.24246793232874,212.69434004092273,247.46863256437854,255.76124594205828,268.55404424486505,290.61007129929476,288.6919391638687,276.93123523015447,277.3800416657342,260.24081811942006,221.89691480579035,197.99072913426437,176.81208330884104,136.34928314445474,104.04765425458277,82.36570431715455,39.81273307567725,-3.473791400335056,-20.04626252215534,-39.84840475275556,-71.88313117757617,-88.07290204296565,-106.39166707254094,-149.6570135293681,-185.6535542844216,-205.8177620277815,-235.96530985137318,-251.0814357223992,-222.170586427584,-182.59643069474043,-148.18564169100102,-96.86103892969778,-48.17046628962126,-22.909819690493784,13.12169882364207,65.3589506016119,96.41828785137608,117.37872625490232,150.9948059690661,168.5958138014864,166.94500376257452,181.19361985935663,197.03442569885374,189.40849861119824,185.19464225709183,187.5486706154488,163.2501712126105,129.08587888744063,111.97941425020414,84.85694084248988,42.91773039785764,20.04819371833684,2.987377349722487,-32.52975545388033,-58.256694160753995,-68.4967267525536,-96.6071671599908,-128.28706522013206,-139.0381130011595,-159.2736583030766,-196.5134697475845,-216.44198785501538,-228.9960357609191,-252.18565893607087,-251.89834521889674,-222.39145292391032,-202.20963774664207,-183.47620703414498,-144.00011461874888,-108.8161509608159,-79.34180488640122,-23.97901368017775,35.379273150457,65.36331484637702,90.31063118591528,119.00981621944422,125.93062949956732,130.30584212424722,154.94480926855042,167.03153469709832,157.98404712035315,159.17438166281727,157.06178993668118,130.6518179363572,111.23584102869106,104.77588079858944,78.12929541042922,46.14202138840969,33.433943433931674,11.777004993673408,-23.65752377650103,-40.04647453123045,-52.39975639607826,-85.12590335061836,-108.85810227363741,-116.3324907925382,-139.89953953003837,-165.3861634403578,-166.35928563910463,-168.10248788007604,-175.59411187490682,-158.45902423496898,-133.75400881066543,-126.42603506423589,-106.49542188539158,-65.5524342378933,-35.05238593318249,-3.445017034201566,48.44746675046831,88.28990460384537,107.56594117853288,135.87799377943188,157.51027611479745,149.9188335172345,145.26288553148316,153.35084233899408,143.83754030017099,131.19636334820962,138.55797895270942,134.4449182443819,109.06738978152686,93.72789909397676,76.44843389102363,36.763858922988305,7.347074869998996,-3.8810565719023256,-31.35423056942954,-62.33231689281689,-71.10412721748652,-84.70377952150162,-110.0902723815847,-118.13463193804046,-126.36292138965888,-158.30984549515318,-180.53470553377912,-181.2047559286762,-189.14823516635127,-190.582178063348,-164.8605858680784,-143.79840192527553,-134.35746697003816,-102.11013616779631,-58.48998397962409,-28.151929238050478,13.299950045375057,66.79485005649963,95.26953393341405,110.76769261054241,139.35562232395267,155.09295895384406,151.75647001358584,161.62468773450234,171.4979070874787,157.02288384974133,147.48005461890205,150.898566970067,134.17694818918608,109.54366780344365,100.8613588246565,80.33280568622848,43.181224414730906,23.890213812371254,8.892450795519215,-27.98216439531476,-58.58105125961759,-73.62636452126301,-102.94867314030714,-132.27767411582238,-138.99990953373944,-154.65221114626075,-187.09260701234697,-200.6302336818558,-203.67610364862992,-218.29841026187083,-217.1380394765745,-194.80414979719617,-184.8734908486878,-174.4375925855735,-137.3775023125137,-99.4746090679818,-68.1171664334123,-14.967221550078582,41.29563465937109,70.63352262123006,97.05092004072777,128.99433500095407,139.61522959506115,144.3819721199962,166.58217015712324,177.08059687369212,167.13809412417586,168.47024641769363,170.21220250357752,149.40161330041013,134.1935485840284,131.721773111804,107.83800816521187,73.49807497286119,54.29300196810725,25.782973489954323,-15.229546857065406,-33.81144755613848,-43.94849483803717,-73.39811144574863,-94.70757228532042,-99.14788290476396,-121.02451047762176,-150.7252195494888,-162.00538062171543,-177.12067668451806,-196.7360127359972,-183.6275626252606,-154.27628992411837,-143.8284280162159,-129.29271466336573,-99.27584523495194,-80.05852229038251,-55.34235517124327,-1.7553750983627872,47.13970937368728,78.05867930814105,120.33431489149353,159.79801971151588,170.36277251661045,179.71083805644363,197.24459954112356,193.6585025878747,184.01904159666867,193.18973977395507,192.21716733030178,173.02593961680336,168.65059421108657,167.54884989789875,144.16915329527762,124.03696252713121,114.16663768561602,83.06738585732306,44.725314531200326,27.296060743972212,5.771607814784854,-29.102409961183657,-47.80218498860635,-63.62183326259061,-101.03305932052446,-129.4542771258622,-136.22589527255667,-152.11187249967668,-166.30538597053697,-154.64192779487365,-145.51656702554877,-148.48780900711617,-131.75836530479376,-107.5583523048937,-101.0864187506899,-83.12141309503757,-43.710160407212854,-17.08586800973839,5.920702392616056,49.764780069861345,85.35302754582729,100.40066087711398,124.07949518159829,143.33926102747415,133.58262115610256,125.43503724483043,131.16440904544245,118.77608732204621,99.30410027527054,100.6302935162031,97.98998772738562,81.23050661938048,78.40243010065123,72.70088091498852,36.01707949410469,-0.5739885923652448,-20.842647909577394,-52.78461060164667,-84.71098722831753,-92.0005321852328,-102.63245916592241,-126.15034006771896,-130.4723441176846,-128.90576018907893,-150.2093174342824,-166.94755578230647,-165.70827746610996,-174.18846108382988,-178.51077646136432,-153.0071986010715,-126.09477490290436,-108.26260154647036,-68.27373498443998,-19.255517841969134,9.346731943920645,40.97858997875286,84.02176376591706,106.97094792723851,121.21201422084584,152.17924183040944,171.71177952482984,167.9442764847759,172.88478677708767,178.12874518530538,158.45468433601997,140.70589106874542,137.05662060222284,116.29504119253971,88.64516764453727,81.97726391600526,69.96848200221753,39.48297328870238,22.40528604725248,11.270531261391048,-19.128709296366402,-42.03332382772202,-46.70258159199339,-67.14561346704436,-94.1450483950509,-98.88138582992302,-105.34349224215389,-123.67492172339787,-122.85480519233337,-115.09950648763838,-127.64579741433414,-131.98062626017213,-114.13427206126559,-103.07959424183883,-86.6011558083069,-39.595265774780316,5.683744257957928,32.029567342862684,68.24600731265939,103.07536914474237,110.2460154913639,118.65989256984929,140.4601425131012,141.80555441439898,131.831676823786,138.2575331597359,135.99131958756453,116.2482562484931,113.04953905789962,115.20065139848384,92.19306968283712,66.98555158533937,50.69357225869971,15.984420515326269,-21.369278652855396,-32.989039840933486,-47.629505065393715,-78.99717166011416,-96.2375366261793,-108.69470575044895,-140.84612926484456,-164.48156904315312,-168.1942217148093,-183.38299483133892,-198.25648805459474,-186.1467405302476,-176.62774051788872,-182.96036674489486,-171.6966563628181,-150.3798891023684,-144.316461496339,-126.19989374735061,-85.0861964543171,-55.181851196934566,-29.043849498562764,18.32223877802808,58.366094598557865,77.54761110757363,106.89467852955393,135.94934660672465,135.9837829728403,131.85892895632122,137.14303838007328,125.11289817420871,109.60395348530737,118.05819516143293,122.56193537471506,108.57803679011377,104.40095731429793,99.07789080622621,67.73652935217073,39.57769139418711,28.66352892825028,4.919384707951496,-22.29387736561635,-28.93927067513594,-43.099584146678595,-74.32075410158235,-87.3213921778326,-90.8843716338112,-113.56490428871939,-130.9146768968327,-131.70551671044197,-145.66536946340796,-158.72774220490598,-140.69126361682214,-118.56974728941827,-107.36791895466135,-76.798465687003,-35.1360583138199,-9.130585227182447,24.146667451751984,72.05652455327005,99.02252597790645,112.0425470544709,138.84962980412826,155.87191808700948,150.61560980688955,153.03692692634363,156.09505586638323,137.4943663804924,125.78847835247959,131.60412261435647,118.99755853180784,94.26713098297317,85.85298121524423,71.25669821647685,40.5425021120484,25.625098688238456,15.536887119764959,-18.213483089352234,-47.35851151968692,-56.73636970886733,-78.41362664657075,-104.32053302226515,-107.10729127192425,-113.18887412762862,-135.48829399074793,-140.5577698006538,-135.15637511654324,-146.7452929164118,-150.95015940462184,-135.95839055188117,-132.45871331739565,-128.30869597923797,-92.5056440118931,-51.39330346098647,-23.795169489959186,15.953798165413144,58.223644497050785,76.89520155297814,96.44035828725961,126.58120409131428,133.88971024393229,128.38858490062654,141.90719844722588,151.18101915009018,139.92626976048194,135.8753477887508,131.14755335502576,102.76943220478242,81.6722333355131,80.70912799440646,63.1957583212575,36.37670334606683,29.9612297740114,18.56195504467073,-11.782391930888743,-30.395198879659638,-45.969780472584674,-82.6272671536363,-108.33239794166164,-107.35578098325514,-115.96817700383522,-131.55386715321976,-128.42198985979107,-131.74325873478335,-152.6650962176148,-155.29908947084462,-143.8793615139455,-144.52894970616126,-131.5052998760215,-91.9470227496841,-61.06712496261676,-36.373221020463326,6.513643870148044,41.89874510538501,57.334547398017676,85.7934438793875,119.1940467177878,126.68233525055237,129.74644827093715,140.91813790460958,130.88481456431813,112.02655239766463,116.44777744002337,119.09993608240715,102.85851655579714,96.67929520110832,91.72188643977594,60.13693178072067,30.362361335048774,19.58495448289513,-4.625670423264583,-35.623049071976354,-44.01863604906711,-53.59180430623619,-76.40361539743064,-79.71490041232336,-74.6412298840375,-94.72839197453234,-116.06419479326975,-120.93260075784406,-135.70973056922202,-148.2276069192723,-129.29697818889744,-107.78728544806376,-100.59727937596577,-74.90440316462767,-37.81912968493609,-19.597500093550746,2.448273945561157,40.81964294701528,64.18647610252293,81.45473953874495,120.0117082253465,150.54474330250386,153.49971332435945,158.55639032852673,162.09981457943067,141.58019033850874,125.26793248343898,127.731837029332,115.69430846459323,94.95685715669255,93.28120168302979,85.4999501835363,57.063809110263136,39.51427436303412,26.961799838345936,-6.2481984092876175,-33.378907225778654,-40.127558339758885,-60.4035209734585,-89.45096549083178,-98.53149326844425,-110.10635008013222,-136.02759039668217,-142.39721827509754,-135.5659407249329,-145.14764529217527,-148.60802639097133,-132.89266118067053,-128.69359172138945,-126.78350139779785,-96.26602034361159,-59.519512605604596,-32.16545282080946,11.462763107565204,57.912653697510116,75.71583002199858,89.92350634057141,117.15839480551564,127.92370103869524,129.550955528266,148.0250961582621,155.89251375414756,139.07730757367747,131.72776690191816,128.48603044399468,102.07145998681997,79.04060225978264,74.6572219574408,56.22810431432822,30.180565882411592,24.862916580393694,14.804933386743585,-14.676346957428935,-31.128239298534616,-41.39234202225066,-74.09857608078534,-102.23487692386355,-107.38713827938697,-120.49342807677817,-137.04883396409764,-131.1304190734473,-129.99756566819323,-149.58153956837035,-155.3526619077462,-148.12629377191797,-151.49414729443305,-139.6350704232564,-99.39968752385792,-65.65476177660534,-36.989153835957275,10.33949291261156,51.311779615395494,71.58460095465716,99.58124257398988,126.12523773524073,124.6782939592618,122.42506594447917,135.10291334856842,132.40030214907097,121.66874272177198,129.38585921038285,128.88586985247917,105.50240130042059,92.15425710348674,83.66865764116193,53.487702144151264,28.653074334880976,24.055941405109923,4.782437769732546,-24.337045310197606,-33.50212116596651,-46.15365830660126,-76.12842881278056,-89.96483111538168,-93.68355870642564,-116.906975787023,-135.48240018146157,-133.8264349858637,-143.77685870121516,-159.50243557585088,-151.10378242991845,-140.40793429553213,-140.66405325213498,-118.8734693911507,-80.52287104772627,-56.53864287497285,-27.410962742873878,18.816940821418484,49.753855351106225,70.58333528246949,108.55623538665554,138.21848692942643,143.0972598514818,154.3387301359307,166.45836182727635,151.56752519668748,135.1066406681623,134.3719704690181,119.88174685025825,98.84660553882291,99.6301573497638,95.83687273662659,69.74059523229215,53.15818335083692,42.38166444770752,10.21722422031381,-18.975932429932847,-30.248637439652327,-55.10329064902188,-85.74927331903442,-90.5889680040175,-92.37557374786229,-108.42010218092982,-111.68145739781004,-111.37816133049094,-135.48122541532092,-155.18524247921187,-148.49269291093367,-143.42135179422638,-136.68431849009647,-104.08938038184877,-72.04644508337566,-56.85387073261012,-26.913568029735,12.851005616889324,33.02299161770886,54.76781221303911,91.50063112611471,111.0592692112719,116.96433647903677,135.20129386341046,142.70834457066718,127.82818372017049,125.41700577490438,131.05739153721916,114.43390718828562,96.36251148219637,90.97756616984184,68.97762160340297,40.49604450214825,37.50179089363196,34.66877194778744,11.798061565763769,-2.2985829256908556,-12.979457609210604,-47.223218001725876,-77.24880549546425,-83.87800171753939,-98.13255811150594,-115.79168650599915,-110.36930644894107,-109.68554656431488,-132.0846996518533,-142.78076847326656,-140.41518868383665,-149.56064612712976,-145.415631197347,-113.86180262653383,-89.60451606724733,-68.5259250617293,-22.200598988785373,21.417531772035325,40.27667638989264,64.0058435920516,91.71982210896178,99.76331290662712,112.23917373050624,140.38880696572807,146.35812433750058,132.76668050077944,133.62372897642348,133.00237128145966,117.26033402631211,114.60115780972768,115.4870655597131,88.24818330396505,57.68290559672441,44.4987273995858,21.052397200478467,-6.641198111169041,-10.0458282977119,-14.02529699060722,-36.74155243556955,-48.92400740533644,-56.57535934107852,-87.6557813046378,-115.70339616410112,-121.0031720555923,-133.16100153347332,-147.69466310447302,-136.81671248135453,-125.19209384735291,-129.41172464779467,-117.27704248049434,-92.31148076561843,-82.33469129973064,-63.19076984212063,-19.683104428103263,12.068060939540013,30.536569368165985,62.23988518559234,86.50328051053268,91.95358325144969,112.15012880971686,138.42429948349758,135.11708932541475,123.11486343296717,122.87537213138481,109.598239006321,91.22596198094377,95.35332939377295,94.3086508185952,68.82900915952361,52.60470288461037,44.744351551334816,16.295268828084602,-10.33942795217455,-17.998681069552955,-37.67052462524294,-64.89471773309974,-69.53685757764487,-73.74492602800213,-94.3467505385126,-100.7467120205294,-97.55599818271342,-114.63988502242793,-130.11474426770394,-126.60523333080815,-131.49255199795644,-136.18648435718046,-110.40090592412591,-78.88070615716308,-60.885834133394496,-28.62360985318659,10.447181266246009,26.75517974318168,44.623004508539985,80.25253737859045,100.1525465142052,106.28844013550072,125.4821300854251,133.68341308103268,117.11193708556186,112.71915568968899,119.62373390710646,107.2546732887679,95.0711140576042,96.19857417116394,77.53067143738554,45.752079038619755,35.06617838612257,25.739869717484446,1.2428344645485332,-9.670868542273567,-15.31905922915644,-47.47992458451277,-80.87773325882276,-92.46874649407394,-108.21816698476673,-123.70488032887991,-113.97019344465528,-107.29758018757225,-123.28593011263443,-128.35137332741965,-120.61722768864675,-125.054525024481,-118.43653753420831,-85.6495483514664,-60.65058826670779,-42.119009521709074,-1.112725993448084,40.74702714333191,64.66237958611853,96.0020891792399,125.7031423068746,123.00675004443838,112.66197191704478,116.69975954338067,109.73463474760352,98.2622543698427,110.12016513545369,119.17880690412062,104.86386157391158,95.5980671016694,87.41797215171215,54.81472103141971,25.690903057235328,19.136717023746495,1.9754069335867408,-24.776271575491297,-32.36105336462998,-42.43027990050338,-70.78971315686168,-84.94206769622562,-88.36342704857168,-110.63337253743939,-127.95036832813463,-122.29508974688684,-126.32053797198311,-138.34090905992431,-127.81756324881337,-113.4934029965467,-110.2021485803532,-86.66493104661697,-48.223152237615565,-28.738255509949,-8.29047214733248,32.082881430894645,60.55435744752194,76.06791013374567,105.97030039145848,128.2200093869515,125.38904266033161,129.41546773014437,137.98734169126533,120.5412021974985,98.91253936334446,94.74072767564971,83.3459855559943,69.16918825031425,77.01316033366092,79.38151809105929,54.80732981666677,34.090130481475086,19.782437954855116,-11.669490678301106,-38.19151636648019,-46.41923036351625,-69.44625821588235,-101.73290127755368,-108.77922479117618,-109.70624464526307,-124.66254099499449,-128.020538601069,-125.6007929029497,-144.83755099046223,-158.44435243753324,-145.57512119482678,-138.41395775506038,-136.18110814485019,-108.92249106890236,-76.41401134539261,-54.838994373098586,-14.82829252743215,35.193247105432405,60.04101492273542,79.97423180102334,113.00266171669091,128.2738114929669,129.15220827768596,145.64484946625137,155.97518560921836,143.50759747624525,140.94151842024655,146.203838125337,128.76668648463203,109.48463595615641,106.4210701897409,89.64846903379006,62.973974407998945,56.67538098373439,48.08474991390948,17.37636455085708,-5.128327866508674,-19.62824422539596,-51.377935104209186,-75.57866197739604,-75.85778543243278,-87.43634556072956,-110.03554452020965,-113.4322481490629,-117.04935266274303,-135.12916496269787,-134.3032923991123,-117.70772002370725,-115.73715573012088,-105.96674494030903,-70.27613467511605,-39.845019402234584,-13.144967300568732,35.60825530229384,79.81988969535462,98.46853992883125,120.02634637580462,140.80614108636587,133.96428583248158,126.01284378415775,138.11566070850375,140.68552355508973,134.63266897814702,144.08162632955666,142.37613951702156,113.09600223213657,93.68415817041907,85.8277821999309,58.654503661983824,30.731210034522757,17.610247441404546,-11.718412620622177,-50.288728436081335,-63.275400099675025,-72.98713234536999,-101.18100823529026,-117.23242019621689,-120.58268748752607,-139.17608926832636,-152.55363882282185,-146.44908629103426,-155.65683084172548,-176.27491666716554,-171.6488077121554,-157.89324441675072,-152.69349691858085,-128.49032377652875,-91.67967815496198,-73.55397249664993,-51.831741697632154,-8.472992209922015,24.23075488883777,46.7866931272297,87.47303629997306,123.33562004606712,132.92466898932605,143.6184709907137,153.43443179115678,135.91378893450806,117.20501070683463,120.42570833385533,116.41779632138338,104.72513495230089,111.03523559057771,110.37569309369005,83.25115899642111,62.64682385215583,49.816421179399825,17.302489350963544,-12.701379297967282,-23.01235627704043,-45.57837234377802,-77.06134911786368,-85.79610817748946,-93.21677537503422,-118.2780877796702,-129.75665229457695,-129.39352428612654,-147.35389117967446,-162.18743795490138,-155.0359358222918,-155.11462613036483,-156.74364925889287,-127.02746456081461,-88.67720471060076,-65.17703485751177,-30.21205423882802,12.175847873601501,31.449941183210044,48.85614607619344,82.1155018376543,99.26179415089679,102.83767633161051,124.51755066764616,142.632771271411,135.88769536901924,133.1988663424845,133.403564187332,109.12058892055043,85.01834838393164,82.07119588612167,70.09585841232206,51.91892569121811,59.79633369401618,73.26052384845002,71.09919211271917,80.22489838504885,96.3673697800306,89.85804509046537,84.9689790268935,102.2452237585722,108.43438689985648,101.09370701749008,107.55571420073514,106.59914909994708,81.73040196261127,65.59444179356169,56.552168861805434,24.337852039882627,-8.541971179159335,-21.318263375929796,-44.2140426439553,-76.39970673418851,-89.36335401078925,-105.64259718892993,-143.03259977786402,-167.02696083285724,-175.8134882461111,-198.41653995783153,-214.39887306152124,-207.2149947854843,-211.1576341530193,-226.66215256033541,-222.97985047240746,-220.24728809440842,-237.04982081695908,-240.55292698006093,-227.6951944787514,-224.8838629261603,-210.23649926602064,-165.4874495558283,-122.79785687569677,-82.89967717168994,-18.42590401104776,46.227088758502795,88.56606747472806,136.98466858273432,189.40833045789662,214.8389378622572,231.39138535782598,253.95647119404012,249.60819992734662,223.2616155405315,212.58809522664183,200.30167708145575,164.78100298889225,134.01119093139704,107.06276867320848,55.761404472356,5.465252103560399,-19.201380290912297,-47.646463411046604,-81.01349970351372,-91.53820962597368,-103.206473851435,-138.3234298986549,-165.02276122560224,-178.8725961890804,-205.6212245404492,-225.25534712185984,-224.6156664234461,-241.2009736042585,-273.7500536036707,-282.81931831153804,-276.8549567214806,-265.9836040917938,-218.0881363459382,-141.75192246893616,-78.71204093871977,-17.070044579467215,58.857955728925205,119.09180371381255,166.42198091907704,230.39937380163292,286.972170827558,314.3991277923517,343.85972321847726,375.66383553502817,379.1358053132135,372.10745243463515,370.24246227484076,343.3541098128728,297.80093018164894,267.6466428215681,231.55912496089232,169.54836829676668,114.6359349842972,70.36141239414367,11.478933295988918,-38.3068463703579,-61.20996054097454,-92.30302313369582,-133.14844191827893,-153.28324602799995,-173.19503276484258,-212.09721569274916,-237.69154330125986,-249.42031482131617,-278.5721816794485,-306.54168829010325,-313.848459483796,-326.07125135222486,-332.2936686435081,-293.54532639315335,-230.00762794312408,-169.8235823162883,-96.43066046242176,-21.37818940468307,25.39808067979847,71.6102289410459,140.2702988591928,197.15174949521042,235.07664920990592,278.2361136370692,307.86417758391644,312.249489906305,327.65201690160393,351.9999100182941,348.19088295246104,330.2819063907247,316.4714775456007,280.04646357220906,227.60869794612177,193.92679132553025,160.84863765938078,110.32667089377996,73.07858978965416,46.42632900457605,-1.5398606609489143,-48.8306235393246,-74.23931275538152,-109.40060287653623,-153.75047256341864,-175.3429930597396,-195.20954145340983,-233.06530051018476,-255.63705788212437,-262.7620295154625,-284.73547538548485,-295.4699167800845,-267.5432865397513,-230.0812168433609,-188.33160689956748,-121.49554442056842,-59.771058481193066,-27.397408055622684,9.46872434622415,56.39303978896454,85.36902952772962,113.9118102419599,155.49956292297838,174.3565458769301,171.6185709998379,183.29916645604894,194.02318816393898,185.21168571443772,185.32394304826002,189.7213293128976,164.72672333884526,132.17176487842693,115.96518657863652,88.26075779930582,51.035393292715824,35.56523080448468,21.394672504145987,-11.54444431612323,-33.0794432275003,-44.26089020475371,-75.48458625631149,-106.20933550705598,-118.3460596257471,-144.82355627909686,-184.8869146760149,-204.4476426620591,-217.45319655494652,-235.93034564152393,-224.4932221410162,-185.96304920274423,-158.21162041924404,-126.79883175847645,-74.86878532577646,-34.735916986260214,-6.2050610243628626,40.74447779759245,83.53256329306238,100.46743880445626,121.24972790048653,145.29008683712846,143.76461017969314,139.66514263497385,154.8589335772694,160.10623840165547,154.5951770175509,163.0902836815267,159.7504781623978,125.29084947157162,95.98766244431164,77.73212887154705,42.731746071407876,9.72998796772402,-4.636089187808904,-32.3215401696621,-69.78673175871513,-81.85692407596991,-88.61667025253716,-113.64382948346477,-129.7229182412133,-139.3818752252564,-174.06492925818065,-211.03237374424106,-223.94634737051956,-235.48543283523185,-240.2843327742845,-209.48465046098664,-170.88899894310134,-151.69421155145488,-122.88035387041944,-80.93295227601837,-52.311637178607754,-17.286500700987837,38.29897999809197,77.39617150217744,97.66500452939756,