-42.66751877197432,-76.61964152714955,-92.98854266249678,-93.8536646142281,-112.42653819095204,-143.29180672069776,-164.4743600717814,-188.0116088068528,-214.44792511525168,-220.16223208058727,-213.87222822224712,-211.82953123961704,-194.09960372936575,-156.67683223671963,-121.50316786794527,-75.03461705535032,0.7396749470405126,76.44194052672071,131.1300343058545,176.24585821528038,205.25781038644757,213.9658649990038,228.9767933037638,248.93141050314577,243.7669682034188,225.7769770908651,221.77836652277372,219.32441817063676,209.49782754706266,195.31210703218068,148.11399911051384,55.22755662167373,-35.98132986567627,-93.30096415387396,-130.8457957502622,-150.18800776604542,-161.11374319661286,-213.06490800082062,-305.9657434878094,-368.9404128019105,-372.715771398449,-340.99264901308123,-292.92136840163687,-275.89093152760245,-334.3556722712515,-410.5541841311732,-419.1741230190047,-367.9285523628904,-300.7751309088214,-237.5443821113688,-199.78259024525286,-179.36900474835664,-128.35531936433978,-48.36067541347387,8.280916162935894,33.62458893084901,56.63258420891549,86.21240890539143,127.93517759078595,182.27848587449995,215.61339144942426,206.75218656588729,183.9906551949435,170.57777303407502,163.5887281536813,170.98410362511316,192.05250436259962,192.84664956148703,158.3448827027197,113.70843781844471,75.43110358968914,53.10261892345763,70.53426318143815,114.63204601750884,134.8002222877017,121.98370074152572,100.150146148772,76.48743956656102,66.72376081265823,90.23418324539472,123.24920514109739,136.07189975446562,141.14562917466563,152.59407759964586,168.5004044885644,204.5341821973926,264.87345739068604,314.45575973347536,338.35471046096785,357.0887700420187,372.46379462319993,379.954873118322,394.39996842390747,404.77483118897777,383.5941082319555,352.42129340263955,342.2354106025006,333.9915362338211,311.93943595086466,285.80096027851164,242.0183615882405,175.42208548386017,123.6821949897349,97.98713153949357,70.08821309934083,42.91385146563381,32.32087638262677,18.74972540946491,-2.5986902729888364,-2.6038039665283463,14.800557934268564,24.953535873961417,34.350166275160916,34.549172333513134,-2.7581763064584752,-49.80100579202884,-62.450260285624275,-54.55848520852919,-40.59155946317904,-7.7700030714508435,28.006354568500917,54.16696320208432,100.15174832913743,161.7107799180124,193.0383869675602,197.52934616064783,206.7555051130962,218.37768021464925,235.88057585509696,268.54063295064725,279.231902050739,234.5284180014142,160.85665284633492,92.64708220327196,44.19350632617952,34.92676441092755,57.04755741431029,58.63597410660701,14.370512275986748,-53.35270168341435,-125.92554574358638,-185.5395353116032,-206.05688809884555,-201.29455035103183,-209.96955657148385,-228.89284470428794,-238.92238691497698,-249.12733527014774,-258.4851104630616,-253.16444270201237,-251.53917621260348,-267.55553152068194,-274.18115820657493,-260.67389717922623,-243.11124720420023,-211.97003593737728,-158.96845388771806,-109.06593970185301,-67.74015861158068,-20.747687369906348,12.230161474553459,16.72920559506442,23.971341534215046,49.999397532995445,81.34114731826493,122.84269578995075,165.50235885399516,166.0564326509322,122.62861139916193,77.8170952325568,42.58307716261166,10.357547523601877,-6.952301862797056,-20.99492527642845,-58.89507348557974,-102.74032780342475,-125.99552359851398,-141.8814528621115,-153.42045799191075,-143.7858166512511,-130.5903137060008,-134.1954526594466,-130.64440603186372,-105.70481177178127,-76.69706408055347,-44.93967728729835,-16.730627222025376,-24.127279789744314,-56.92030215832465,-61.68464635926333,-29.063944171232954,9.058159506228117,39.86043667271947,60.97492758947176,68.29530295532606,81.26449634762704,113.47872937157942,129.5386317189738,104.06532013525879,67.2633708015321,39.044066813227,8.534497761209103,-21.99890094797802,-54.80322218247235,-101.89238065783228,-144.07259822311954,-165.05218503607256,-192.89747822121413,-243.68082266800968,-295.04502318401956,-334.8206483484565,-360.1102588742017,-359.3754669163733,-350.29728883555975,-365.34794068516464,-388.16352131557744,-390.0067726402265,-382.783673793022,-372.5567941124709,-351.24961477665374,-338.7638004282777,-341.23426010731515,-326.91164337283084,-294.4261358090255,-270.49089486369553,-247.04240345904162,-210.68728356743378,-178.3719383426294,-147.21065516559278,-95.14718266928021,-41.87716760274033,-15.929253159685251,-1.5651002603709374,12.263777734915564,14.178680453441025,20.651031045874717,43.821676700003785,49.35800329887563,23.937688535340843,-0.88748918629567,-15.982299625035633,-29.126955804902977,-29.142056110355583,-25.732516948266216,-46.2409293990652,-75.74796514567481,-89.164657561032,-98.34404089600923,-103.82334979806808,-87.72876746847896,-69.342991280945,-73.18206148832954,-81.15506259869974,-83.07305124705852,-91.53872386757497,-89.78444926215934,-64.09916416920059,-46.51545131928688,-48.390298150551004,-39.92712063921017,-19.198069814764835,0.1670766922651059,30.859851817240006,67.89339768705497,88.2671205797448,109.99773508321194,155.0611947886098,198.10765400860754,219.37009824883123,227.22642186330364,216.86580862068303,190.97834736201267,178.33899658411895,178.19724955101083,160.9710077058504,132.15616132055388,116.15426508300781,108.48714899237658,103.8693324675513,106.60769085431726,92.71981154317253,46.151367881379855,2.384965010351088,-12.499927068311123,-10.902816169088677,4.094765612776569,24.08748922655108,16.15825106237078,-18.27153094833464,-44.005682578799394,-56.36478871095957,-63.097627800040776,-50.62949123174592,-26.820718037808632,-19.667564500827062,-19.457149743562486,-4.256526428187779,16.568520051598224,43.29354254324067,91.25544157628863,140.95501800973267,171.2334998482845,204.06730174330045,247.51747752074462,274.6581953525764,280.8242600921695,271.9623509488626,236.30871350581378,190.90117736549706,173.34821329868254,172.71377292271154,158.75087334917424,139.80626435371894,123.59260089404754,99.24957932402663,77.9139630267355,65.3827762297556,34.653460837905996,-12.790728162215684,-40.647847375553454,-48.71518619473008,-56.724071455343356,-55.12765108202547,-45.54203325622269,-49.09268343660157,-52.68468427406854,-41.478323405360506,-40.057733879915546,-52.21264844570706,-50.69851600205091,-40.738652131536426,-36.32694323947901,-18.703978755301407,14.87929278029062,42.96611604216546,71.72863431164424,108.76231909894224,130.01222761442406,133.1932333330414,144.6132888954548,160.216193671646,165.13971865798777,171.87981827990453,176.58527058734097,154.84977220410144,118.70282775484637,93.70266761898309,72.47217995920728,53.759369138636444,54.26579968175608,56.43176819537472,33.252450892279235,0.36929185259278796,-26.200777487935497,-53.104937771754514,-68.1999846102324,-62.130783747932895,-59.1668907970346,-66.0478415431385,-63.094162317695435,-58.20749685099236,-65.55470767398927,-68.0064084499719,-58.83018553786491,-48.28103338251009,-22.596553858560938,20.762930982763486,43.51419524858041,33.62814166785635,21.716327403559486,17.245033605435218,15.719132043923253,31.040086992141912,54.755857818817255,55.62201060166606,40.5847216696685,33.434158896606576,25.410458228542062,13.47660468947818,16.10080355564336,23.86693572270115,16.44156616943414,6.0407101830468495,0.11661694779469398,-13.43139232409306,-22.354815076798957,-13.8714436622662,-10.185239147660624,-19.07447868236584,-21.43008691977221,-21.675901746526456,-30.125595061336004,-30.97591342091826,-23.43856133668046,-28.688514398850195,-42.13442460189039,-45.35294113090809,-46.14301680075696,-54.54111890421684,-56.04952982090654,-49.4092000706123,-55.48881833237195,-63.71403232602856,-43.33687622379912,-3.409340414725609,34.51722673322775,74.97514317362858,103.12202037243203,91.8892868751087,66.41598491408214,60.94284923461471,59.74147505855966,49.17688777596518,37.87431780302339,14.718410403991669,-19.042771484359594,-25.972756816984425,-2.1589297254876856,16.51527462071441,24.185186417084303,30.051439101702755,22.641600795817283,6.570720022003602,-6.587319728351491,-31.58504984823304,-61.69554609864365,-64.42049556632446,-43.238771163291204,-20.811932895983198,-4.87367111714575,-8.029077633863652,-31.12603066982229,-47.42510723523434,-50.986052763804366,-56.32761675574409,-50.846758086272544,-26.004757776931115,-9.212102044577886,-10.624430033818339,-14.576760728495747,-25.707575848775214,-42.88412845412533,-41.334663863358415,-31.140856892916492,-43.36476497383522,-61.72808124162388,-61.06722012861516,-56.282953633159316,-51.98153661924077,-35.30242732373671,-24.94405407650938,-35.844286877173474,-44.953824112726124,-46.96486375313202,-58.309077672320406,-62.93351512068782,-44.25267633762138,-26.038017451120155,-19.37342950002735,-9.374017333505954,-6.720231596081877,-21.018091263901702,-25.854290767182498,-16.08067322226585,-15.878901871741647,-17.622539125988556,-6.2106939251278614,0.17255597306768833,-1.8343797053605249,4.607441037039084,4.950056844080372,-12.373404875209019,-18.11824975031482,-2.581058051020574,10.45081918431732,21.335644914868656,35.9801611034514,34.47726645481486,21.733839187562893,25.460491593623793,34.016406649763894,29.073976822770803,29.24746755872817,36.28638846390358,28.88952453702158,19.185084422215645,22.54962290081004,20.0606319881756,10.05973864878003,12.214483429387757,14.728920274851022,5.370733545553897,5.933665794717324,16.71660629677412,11.820355715949393,-1.97073283104816,-9.561631155276489,-23.153764949082948,-37.285348216320344,-31.579354152136066,-22.11586662646016,-26.49828864386209,-27.20678280070299,-22.899374725589134,-32.01367528487271,-41.20697729877192,-36.19720366114454,-36.02771638842842,-42.38225013450493,-38.367625510022044,-39.57400417104259,-56.98555916213271,-61.66474735349328,-46.948358788336165,-35.79683458456372,-22.451074859545265,-1.9952907535665076,-0.7231687758555312,-15.832745321462093,-19.809385757321085,-24.762435410462746,-43.56093739631938,-46.03528313313295,-22.300616928448783,3.4496652044894747,30.547700917387118,59.03242845979301,64.19079789929495,54.20895068450168,64.02232755373352,86.96732850537265,101.13670715405878,115.57230784358596,128.20810493853176,119.19432581696344,102.11648755643671,95.84843310699323,85.55141566338234,71.77216107799973,74.68956949760202,77.71784465084204,60.09687733248926,42.80203901359543,33.60018449444669,11.791338845337943,-13.928816126084982,-28.153404159408765,-46.30274331335641,-64.06878660104533,-56.3460033113713,-36.74886879850917,-26.775484378227606,-12.709161730706425,7.656345769393968,19.475114350757863,36.48699421908246,67.36845049989591,87.4162790362842,94.52236762839198,109.59428607771342,121.69826283060493,116.61160770297403,109.9040040029306,99.21529268619086,69.06896725784543,43.35866074061977,42.36466270450848,40.275087895636304,23.334863990480578,3.247868397892971,-30.50430157609853,-80.85851246909846,-115.78410922304332,-131.01164735772818,-154.97488632700578,-184.26393667866077,-203.16506980318445,-220.2855926424307,-227.05182699136583,-203.83835654405814,-175.57769531996288,-170.4892185606045,-169.25801829102676,-157.75417910767976,-143.54002509917746,-110.94464284717827,-54.38998221323058,-7.926949256117422,19.90101049465592,52.500651025700634,82.44091354647456,96.31086468723993,112.34688235367528,130.65532018027827,129.23393162606416,118.22903722354349,111.4963529312074,89.75936720035689,52.82937783484002,30.08593874745491,23.73945400511782,22.050796857567736,33.39477694929674,46.802048247634836,31.92053381555878,-0.5105772592341893,-22.914646392968475,-42.34695818728747,-62.2502654451926,-69.96704443110065,-82.48184946714088,-116.53372097743298,-148.54921426283275,-167.1344998404778,-184.9669004294422,-185.81308290155167,-152.80656301130063,-107.04305512376985,-55.34249121008195,16.919424861802533,91.96014144171446,149.12830979785872,202.09489220760565,247.5926439425952,263.7132880130737,266.54140593679983,276.6129186206839,276.7999055756761,263.73773999437367,254.0915400699788,232.36837712258404,184.12370746306252,134.20043613868586,91.45796812771636,39.59113796978413,-6.9385170010222925,-30.416239614211236,-51.37305681945751,-76.6519558005939,-88.79694805306899,-101.19630130863996,-128.99784904168692,-149.80394344076038,-161.3244334624957,-188.91185464763092,-221.85316244884783,-239.20181431485463,-252.57139480972583,-259.1988937134504,-239.47959747149062,-208.0596139731083,-177.66008746178002,-124.3533779881588,-48.439903676229164,16.437818193002684,64.39209525248268,104.32115916114512,129.2597711104563,151.2731445977594,189.56938279401197,218.7299394533768,211.61693169450194,188.78858589699718,167.71510719272842,142.68959448999274,124.80183711990068,116.54977014506812,89.7428321270474,44.64784564637605,10.135702837281896,-18.12676288645337,-51.614913047711774,-71.95134967865623,-80.84345820408507,-102.03830748508317,-125.62377478215672,-139.6919485634479,-167.2094421176477,-211.2182465100961,-248.4603743913237,-282.6543519836915,-316.2443386716208,-318.99769178562957,-287.04048655748295,-248.53394063306922,-200.4116694257954,-132.99661889578988,-69.92486337937505,-17.21258357020585,42.69523541112995,96.79495308102459,130.86366655563805,165.06612777653095,201.7718356843106,220.75779771423737,232.1293542200037,247.79844152672433,245.93923347207388,222.3578461994186,198.42932622344503,168.92887043442198,127.07664286302916,94.77791325346377,69.83333303293611,29.56949240218148,-10.478647281929138,-33.35123800192926,-59.49642407807689,-89.48838960030193,-100.05890155964696,-102.84229922880898,-115.92443876160392,-126.63932705218404,-140.26951489908248,-177.024243953045,-213.25282153770604,-218.91344244167908,-207.86030324643346,-187.97302109534374,-144.85906515130662,-89.66259768907452,-36.87758926514364,26.295155758490544,90.53119706188014,124.75093988359997,138.29293709556867,154.61128601744812,165.1472188980149,170.00750278945122,182.4183683114598,184.34855821467247,163.28348649186273,143.62658935426944,128.79860388826611,99.2175874469647,66.89963288272087,44.129149358691166,11.427567313814547,-28.27789672537683,-49.45592630891542,-61.22864618906869,-78.03793212562647,-83.96721064129324,-83.58132252721963,-99.50065012418702,-114.91339060297733,-112.34428853771448,-115.18803801607044,-129.1759566158185,-134.38623625973975,-140.02319870589952,-154.88989069491294,-153.22694788190745,-126.77880003593611,-89.48120505998564,-30.762920932049713,50.901000048961805,121.5916153697004,173.78894290268522,228.8319383608445,275.2401717394729,291.90429398942035,287.778162440354,265.748418115088,224.7455104961067,196.81225780308264,197.68391764500024,192.55410295694344,165.53504521049757,135.70380540887746,100.64562100250394,54.84808212324482,16.838165483975946,-18.11869351476056,-70.8582551747836,-123.6679422301249,-156.6502844945426,-184.32040193945147,-202.5841731128568,-187.99235906056157,-154.59342016867885,-125.75784824305927,-97.3394237389885,-80.60954466101336,-96.38860370216425,-121.64369245999504,-128.2188545600313,-125.71984928972155,-110.98392812324443,-64.23110323765445,-3.401705959281724,47.23055672518486,96.45712824171675,139.4584765459779,158.4074052061707,173.55302448242472,203.76478104644883,227.55152007924067,240.93792153961516,263.12623703629004,-116.0934525821989,-119.82859693868349,-105.39448428787574,-76.30126509764219,-55.779732094581256,-33.54330214610516,-4.200444097377024,5.737202371807035,2.6307446545104205,18.947983814837293,45.878267167623264,66.3014547517758,91.24346337643605,108.39227309603514,93.85692127148656,70.15139876135062,58.260796700728214,39.498344542307365,17.627127226160137,14.777441911044821,12.27130146425665,-6.600287506423214,-19.735093498798893,-27.006655393165012,-47.4415056115083,-63.172677591566256,-62.56589832527934,-72.3206235898279,-92.20509115298117,-97.48401481118019,-100.04580068509465,-113.57864645130603,-119.40660185771506,-120.38586969692358,-136.06017516247056,-147.99113929963266,-138.88126122200637,-128.022959636755,-115.49463886604735,-82.69491363266754,-46.76942594320592,-24.41205845113322,1.9651858886242897,28.849211056925625,36.451355269121855,44.43817869679917,68.38946536315964,83.64884728417964,88.7288919135174,104.69589756345411,114.9909738554151,104.05382004069577,94.49334071060352,87.2183672939623,62.18105262029644,36.88726174794346,26.512535892853332,7.598224587227003,-18.61854703248036,-25.90477453721489,-25.968579784065398,-36.349076935618996,-44.44081670155448,-55.830002510940645,-85.90021964457702,-110.60584930279397,-112.33489829128735,-115.19052645244798,-126.1915180468218,-129.5739048782944,-134.96046112351476,-146.09589642150047,-136.91299788002007,-108.79129256856439,-85.59442568721809,-58.297385718316725,-19.279377873775775,8.532793963177252,26.418781784066148,54.728960890617984,79.31619927669287,87.68082883394518,100.37534954079412,118.10538974492121,123.69548581530722,129.96101704210605,143.22765475066785,138.40628701602725,118.64750771607355,109.9971788811001,102.6088903056569,84.7991352465455,75.72746236372848,72.41479136580628,55.10835642697518,39.059306678619514,35.07207396229915,21.781691203217214,4.293593521346686,5.608025736129397,8.344941754999038,-4.952568404308063,-14.079280845329937,-16.62289573028029,-29.263810310953836,-37.19282569066184,-31.4590700920576,-36.250660620862,-45.929155610691005,-29.751100153840124,3.199614238443811,35.25754593755493,76.61464404375165,116.17474295015461,129.82445260382684,134.78447107672332,149.01164455842098,156.53981330203706,159.55977113873638,174.82910097291182,185.87730079055976,181.47958756367552,183.27897218121407,189.28901585458976,178.37611939331353,163.45489326940807,155.56929345865075,134.181440086104,103.49053594711287,88.66451755167768,77.27585714640709,54.80941453284643,42.513632019654324,40.096039243032266,25.922511395176524,17.676409639669835,32.66707717196451,43.621888742813574,41.1503921781182,46.866857333058846,51.905076464951875,41.784995453423996,37.79833833424844,43.20834534755938,36.45969811115736,31.24239519419738,44.780143931927746,54.92056927611422,55.494633968536895,64.37559615266116,70.08452428335431,62.598881497264145,62.26888875635842,67.48375826031004,62.470298020875134,63.680833719132536,76.81501012182358,74.81439510019396,59.45662971849936,52.71329738996855,42.03172718211589,18.896471051762394,6.1635951871089105,1.791036557334411,-12.941141256845645,-22.346033223029565,-18.82516625170031,-29.94632819450937,-53.66738827306894,-62.95950092136937,-68.19033889227084,-82.60628280429317,-87.38868299973309,-82.68299001057784,-84.24538183551829,-76.9672851351322,-53.46459752363637,-40.93805650774457,-42.533759553453244,-36.641552157294356,-30.880945610608077,-33.83790877573571,-25.250812224285866,-4.281794200241055,11.842227978498151,32.764725332991446,60.805761475205216,68.71538930804012,58.15061308790732,54.54414987586451,51.51754723999056,42.0320638754004,43.660921229226425,48.56644766598093,36.13260673505923,23.04769780937699,19.898075797462333,4.69718239552906,-15.0316308938871,-12.655129117284357,-3.8468046643817004,-5.225515222655904,-0.13268719641148863,4.918363944136292,-10.789048841949057,-28.36914362863429,-34.185560160877024,-49.350644163176064,-66.90730788623547,-59.38506132425291,-41.322763609645975,-33.48731484950902,-24.34775037180453,-18.266806523280593,-30.31152369118444,-37.06204770125425,-21.403798835638273,-7.204607901395203,-0.22328862565418617,12.922336373185525,16.637422178303744,4.30778736921552,2.9050261730413096,14.612481567538476,19.146383835022444,22.90424270405624,29.3160608990261,17.983940596112188,-3.716335042746411,-9.894300649366663,-11.046257703174048,-19.126999724338685,-16.322971437946645,-9.24589267328641,-20.718658575007808,-33.23160734701333,-29.9162518769651,-28.271403381505085,-26.530092999475734,-9.801529262412517,2.060404402396231,-3.6092364167400137,-4.767741036361258,-3.291660512079277,-20.291505011313678,-38.698690623745534,-38.304085432448915,-33.432899177529926,-23.3041446010376,4.813128870710527,26.20076210490803,23.478001655493273,20.824768705347083,23.005534380252517,14.506131435196018,12.479628773827313,30.430095826998564,44.26149728451314,46.258810934992525,50.22895626718542,43.84147758899588,19.567824451079247,3.936536421835438,2.788342139739413,-2.7958906683139797,-6.736927485709577,-5.503072311767711,-20.85905001563758,-46.1848506844089,-54.22200389277304,-51.62495151907464,-49.20672493909707,-38.02478344739659,-33.024756929025045,-54.894026232852546,-81.72591238367372,-93.96220844515956,-104.5718162135716,-106.15265111831857,-82.10221454596382,-57.84146675033993,-53.975607589549796,-51.53997701999131,-48.05203837577444,-54.51227561907227,-47.40809299778644,-14.267618727029156,14.486749788876644,31.53424963731763,54.23676363016348,67.55603173037206,60.94289876705887,59.398895721779866,64.43975941001051,57.58702574037078,53.554414109189366,60.78903310308679,52.84690054233663,29.561768078477414,15.122076726155864,3.142262241308222,-12.652431310170176,-15.302087691284225,-15.68966759777284,-36.67629664216824,-58.684105895224704,-62.46971783890747,-64.55666707037737,-66.68574337442888,-57.52683084698408,-56.23159600034337,-72.17959642909172,-79.8425423754965,-78.72356329095946,-87.88745176367333,-89.91184617185212,-69.36176423112444,-47.89179070292366,-28.363475770653373,3.9663878150451417,28.26706410973401,29.25939668950499,30.56232259332465,34.224481459344,24.26985436889509,19.928724188385917,32.17396618118974,34.07954140947247,23.372694781225825,19.377110614687865,10.861601408753762,-7.525305551651532,-13.180016300985898,-13.412070203118748,-32.32886810694653,-53.74221863212464,-62.636665897377185,-76.58079560216483,-91.2401432745064,-90.02489539223708,-93.22941540245111,-111.7150576003719,-119.971062917864,-117.91745581421252,-124.32098049489917,-125.2633903133816,-114.65783759811978,-116.4916728335341,-123.9842576822895,-111.8578659835616,-93.68875725257453,-83.0295023677564,-62.633623156283804,-36.04166747811066,-20.11085547397387,2.3447438835981185,40.15752532896146,67.15830547496567,80.91401365908037,98.82171265603357,108.73790783710166,104.00874935296684,105.52450875186543,108.09683167134575,92.63720898251161,76.1921780755195,69.68811006912829,52.70986889831207,30.504105580797066,23.859351986580883,17.371740268374488,-0.23768391853565518,-9.119865622298917,-14.574110092791981,-36.46183816279958,-53.040073956926506,-46.09775627047694,-37.6910727126366,-31.1615638358495,-14.81896962559918,-12.439423191715235,-36.08387739111789,-58.024950641630284,-75.08782460759008,-100.10594977346469,-109.33259667041958,-89.92763933184294,-67.89411704136181,-45.71610318087059,-8.583304139669217,24.61256623541379,43.04476469437402,69.84878784158091,101.15758864905442,113.39989109532605,120.63206491466478,137.02761872644913,144.25135873695632,144.59918580028443,155.629454286,159.27373425831502,141.97688179453783,124.70722194991598,107.82651996777525,78.31591295141092,56.66166022728086,51.88675963384816,37.81641333472728,13.952432195058316,-0.9064651005466382,-17.416485871741852,-39.870550961432684,-46.79966483233003,-44.61585109962432,-54.50183265384848,-60.761650996508116,-50.62348315036759,-45.94116160540539,-49.9960065401737,-46.618661743842885,-46.206515231682715,-53.25324687775251,-45.4226069759531,-27.581346090367074,-20.22788803705477,-7.941651694707168,19.69567696158479,39.76149169620686,50.0682303237163,64.9792358596139,72.75378696320612,72.08791544779432,85.66493119343447,102.76934429034003,97.63398524774267,85.2930947733899,80.98619835794383,69.8900444514045,55.13145406411698,49.58947305471965,35.99755808822565,11.053414575947368,3.4319441239462707,8.977142633081188,0.8020951234924052,-11.256235634660532,-16.285117232069645,-31.342976672304328,-50.603599204770354,-55.44656526056351,-61.084699855631996,-73.4872526187664,-67.30790914935784,-48.3475017004899,-44.737788836969926,-48.58234263028011,-49.39660846511943,-60.179013193763765,-66.87691969722866,-46.044063983731775,-18.924225669952403,-4.249888053238952,13.081479047162766,27.20061196910767,22.830089580679626,22.500209473124965,37.04603961412863,39.7380716432795,32.96356650184914,40.974454051192176,50.57095029076639,50.01846749625001,57.18636934539222,63.99768880716112,50.71617178505907,37.909213754482415,37.964902289898006,26.454551266813144,5.758134588549854,-1.0301553580134206,-7.331909432185288,-25.827609447441212,-38.19751981386318,-47.68211500846475,-69.53710869189341,-83.3816135163286,-79.5811008264551,-84.80664370444622,-97.67531305070327,-93.96927185763587,-83.04226079514936,-74.25561013383746,-52.01570301263839,-27.444417929388685,-23.54901893807031,-23.16609448548803,-12.82693488423471,-11.743286202936325,-15.57773279013818,-4.748466307688399,4.353542748606259,0.7392014539093816,5.043431200650303,11.808649315804413,0.6054377806404414,-11.125129637952544,-10.63219848223137,-17.169623277664783,-26.351824304472608,-20.459053969163477,-17.8416663671067,-30.281888452333273,-36.10835509431865,-36.05637695254474,-47.89315319810141,-57.82527958877675,-55.6089991316548,-59.26528459880759,-62.64915404227928,-44.22863676263757,-19.427694504750463,-2.724389427197694,22.135332064222577,49.575770192196046,60.17871329161707,70.52356489562047,92.74656092634446,106.68399871057407,114.48222798175175,132.4324902516196,141.73798420823096,130.70253329356262,122.34365484776933,117.1013649312833,97.9207877728255,79.84401482239804,72.19021062303219,54.62509965296741,32.86593330632633,25.963177905334938,15.331211193810997,-9.169284464253774,-23.06882223363301,-28.073998729285655,-42.92490021325336,-52.62254311499744,-50.227937614127754,-57.641633211099105,-67.11148172599442,-58.4608998522596,-52.35426078977789,-62.425232133089835,-65.0313132629751,-57.861110382882046,-56.24495209369308,-45.24329676125826,-17.711613903694925,3.476976296875,22.271259059438464,57.2217538842191,88.97424698969016,104.07333266457447,123.46585872291028,144.39024817899846,146.9089361371403,143.92409855243483,143.8028944221756,129.294625245645,111.06408197173559,110.18889322237374,107.0024399499734,88.03157366271986,74.55321179190797,64.57426642839476,38.713290405936334,10.970766796655509,-7.4227022832520495,-31.867793681529957,-52.91485505325958,-53.348706184119365,-57.20559718491386,-77.11726657946463,-86.14038314298698,-83.45487730570974,-88.7337923779288,-90.95808013760373,-87.31583333722011,-98.38125248924285,-109.31899881625465,-94.69213253640379,-75.51158140052088,-67.93151025940845,-51.40600329142518,-27.22815097686191,-11.097775142087347,13.510173116212698,50.87480185281228,73.56444114516626,84.88950354068987,105.6324563316379,121.9980891529366,126.05785961814345,136.0112849834082,142.26482771546637,123.8491950488153,98.74937019031543,81.29060461402145,56.661144081273946,33.988056253855106,30.624289610378817,22.518504943424798,-4.904637497331455,-27.277185789904372,-45.143144197336525,-77.37904085179827,-105.92809721207603,-119.19592037192413,-140.1854718001567,-163.80219706558114,-167.3528992128732,-166.318309455077,-170.39930085578965,-158.58620254067844,-138.81414414729406,-134.70466618106207,-133.16860670797502,-123.50573161981168,-119.60281468579322,-110.1733953720912,-75.65269195786226,-37.10269170189507,-12.468980308493053,11.17556054855094,26.67257705767002,22.33721864926145,26.253505258936364,51.75069073197623,72.26606296263937,84.79912558795029,103.47065071093259,115.70895163792791,121.5658146471152,141.50462568048266,161.40108576204574,161.9890936822217,155.8677463635869,138.77366843434496,97.01846646979571,49.33897673412208,8.332077632008215,-29.797995787642314,-50.837196611308116,-55.42975167536445,-71.26861201495377,-94.90703168954798,-104.37661853571703,-108.71521687881037,-112.1884972497592,-97.94743978988221,-78.66826701994252,-74.19867838084281,-64.728570068662,-41.450557626962926,-27.5278330587424,-17.87847402534215,5.965276393704882,27.06737283350113,36.40031823800571,53.078892797566745,69.36450778458465,64.91069864040699,56.24697246805307,56.177224399787406,46.18366043291939,29.158058290385497,25.020167125027573,22.63592427226046,12.179383659077306,6.935009241835266,-4.767793775568482,-42.19657032465636,-80.53702787677041,-95.33552039476305,-101.62452642729046,-107.6296751063696,-109.55065762904161,-123.45040961465327,-147.7052105699241,-152.17700722908893,-142.50799616053774,-146.61245664920165,-154.05585066275984,-150.58250747354998,-147.1732443569192,-134.84012884025717,-100.37415890384742,-70.36121542243647,-59.042845102342326,-39.99811237179436,-11.756131929437746,6.279135435132957,29.147559739203054,63.981344485960165,81.65010666670162,80.26665014289576,79.85790984708352,70.20939563499914,51.15665268429602,54.39173107996934,77.97314861227704,91.35014819884408,95.32424062958813,93.45969309412202,69.91917707747989,41.065842906743285,33.75602610317514,29.53762486695421,12.937201398487659,0.28924516785053034,-14.346690390324975,-45.97580148941107,-73.46995355968306,-84.61442599242959,-98.46068322968769,-107.81174996808174,-93.45814411769463,-77.81964029196858,-77.09577518091027,-70.10889323382851,-57.45782531442053,-52.85262291740263,-35.919192204149226,-0.33436069169399474,25.147392952835446,41.70488147925726,67.18962002654939,84.9060479985712,91.1239944926966,112.71716597394595,140.79879907126139,147.9482612679152,145.99423345307105,144.67893524497336,130.25567014010898,119.93173692641636,134.43898921410377,141.7388515222074,118.37747225522087,87.90932441531115,58.93085866335631,28.05258609793521,17.605094279728398,26.131946094553932,19.123871787453417,-0.23469304069061714,-7.3935426206877795,-13.221545728104562,-25.47529491356114,-27.85655770085341,-31.345585105357763,-54.81868983071355,-75.61041390262255,-77.99697657336473,-80.44590094178109,-77.69673121788328,-53.28391281706034,-29.21445727476667,-19.588074410157546,-4.221090036822163,16.189204868300212,27.57835955490388,44.66220715564066,70.6544855767866,80.5530205948395,79.12542649246839,88.0831121412193,96.47128087487863,97.71393716129265,106.85301669478538,112.60958293106705,99.05844998845484,87.71561504861363,88.22906515230886,77.53357043507725,57.78780591272904,46.59558352602009,31.095328233231285,8.78879215156522,5.453018116365414,14.529184016401825,11.104960362537955,6.548018304961681,6.687415545538401,-11.286428505110091,-41.00001863919839,-61.34312203791002,-86.66692172359696,-123.54085284909567,-147.88383947009513,-159.8234009815946,150.3523311552927,136.81830877894453,131.5505330911901,116.10284427597048,96.42467597292735,89.2894207382842,77.53541325854525,55.03763027357981,44.60554946265484,38.587823573744885,16.616351714256727,-4.204939886110182,-14.59659998637905,-31.22480932727384,-42.81279415763653,-33.20042623093608,-26.368880162360576,-36.20883738452364,-45.84024680442908,-58.70646797365095,-79.29699782419144,-78.32265420518367,-50.067987929858205,-25.440414885080543,-6.132670673904756,20.171645513848798,36.020234371456255,39.08933587704892,53.670456310280834,72.9011377804911,78.44737595114972,85.42666309335448,98.17852627346664,96.85527500558874,92.19065946877822,102.79097811408877,107.44069474412638,92.55692858388836,75.29794882325041,52.8378962432994,17.915743049795765,-3.99205475983595,-5.319313621834624,-11.076901320383598,-19.1146818934416,-17.54988276269915,-28.19325217796298,-56.23042119799917,-73.4055771430676,-80.3898366381949,-93.02973160817012,-96.99443477155671,-91.61273313629242,-101.9389218342491,-118.4100317255552,-117.45255082150817,-112.58306620822577,-110.24164964378268,-90.6441142688795,-63.27430475955744,-49.9717535915373,-37.48734077499914,-18.929925967723662,-10.630019086644829,-0.9084788470722565,27.24291641387061,50.49393521068444,54.08435039346679,54.408862502402584,49.53232502980024,34.193039993159196,31.841226532262148,44.830924101097594,45.3447763600834,35.89577622655224,32.907454139888316,23.33643150229541,5.141618876780681,-1.639373637862814,-5.155862645968614,-17.97149142987702,-18.7568365904218,-3.3606867734339483,2.2793655568803795,1.5142056364799534,11.884803638694867,20.190427655848787,21.319362992088614,30.112990389609273,28.93800837249758,-3.6567131172938705,-41.572569772689064,-64.59503465135668,-85.42765951399957,-96.01774956680927,-83.56979285510715,-71.0399758172883,-67.06758839533138,-51.3920401092041,-35.01003173664026,-38.99253669896323,-43.610196256580316,-36.5751146888312,-36.25656682554238,-36.31690935827551,-21.597201624362846,-11.459753607967855,-13.701717677748377,-9.993701238220034,-11.324495084591447,-34.840352316694435,-56.51775688645904,-62.205459194963765,-70.21520301776242,-77.40033151145886,-75.80628933952883,-87.6727237505026,-114.0372199386453,-127.86481396041694,-135.13388830527714,-152.35996002707205,-161.65983651823439,-158.64906589778218,-168.30178764186277,-185.3273373114303,-188.1109121926012,-186.08169406109735,-180.63568947390712,-151.65454585236805,-114.90292419445724,-100.45583661083364,-96.3404005708112,-88.75848442686697,-86.62524012466955,-76.9175937394939,-46.773976711182726,-22.714354536085715,-17.721638610966828,-12.41742116815347,-9.274805532289776,-17.76162599337664,-20.808431438055877,-18.645645272202103,-29.316048837513634,-34.40445832864183,-12.88951225304452,11.032152242239004,18.47554766541404,20.15983927154611,11.742454472717277,-10.334125517985242,-18.69905590635351,-8.970897735056585,-11.18393912937857,-22.187739372165286,-20.714471319969032,-19.26259290746983,-22.769496364528955,-12.005068067883617,2.421653926804028,1.1590807479407736,1.1418629897258443,8.474288995662869,2.295003925900129,-8.649385560660765,-4.982221153834514,-4.231571473911133,-15.571935426217747,-19.473329839705826,-21.556331947841052,-35.52102474038321,-41.03576116343393,-32.64274038657861,-34.3975174348519,-39.864518618240304,-30.534682488799465,-21.718005739120667,-18.56206656703822,-3.392725245083355,12.63352241424127,14.48606841849863,22.503347308134348,41.200297232931,45.402574267750566,37.940339045739094,36.03524719878669,31.217805822798024,27.726504170398307,46.79502111296205,71.19030354917734,74.6143610469954,72.47196095971773,74.66069684536794,66.44941222738561,57.99495969353549,61.87057586617662,56.60947877448524,39.669164427078705,36.97724496758257,40.9774997207509,32.722260807736966,29.526747816327074,38.404800382830466,40.590251142519115,44.24820219074954,60.83586057210946,66.24726778754822,53.99717070857814,48.04870064842967,44.00862236498339,27.31565824330173,15.959691764800745,18.225129849921203,18.560965071132852,25.336429991198933,48.508434276466986,60.610821847146774,49.229129231661986,39.06997778328514,34.35772057523675,25.287442561987305,26.857265206676992,37.746513027517246,30.108179353198537,11.97571918352253,9.436121474745544,12.491097972160231,13.38101066479227,25.336938032404145,34.36210724732715,21.992314210873612,10.025610691263884,12.136370692181917,12.335877434447742,16.800478523911092,35.868287602153856,44.2583695710484,32.59358116337393,24.28384696904334,18.44222058526461,6.721341574013249,10.63971870642114,30.854854057591808,37.719694104115625,34.470763744594834,38.42912476427098,35.64119532175699,25.397154276901546,29.616543737909353,35.9013587387373,25.095579050205657,18.662460788274803,26.488662395915195,27.53523507084872,26.611167247291654,36.61102270288442,35.66960557989086,18.252892555827835,11.471366302303231,11.536610193016035,1.3050521605478167,-1.4007321513004514,8.405450152365272,6.783416014940046,0.5912635303392846,8.630132587938053,13.503580825114852,8.09909222257127,13.502609446837853,19.09240605969175,3.7786634782901025,-10.089068866955719,-9.61597600111227,-15.830048014194041,-20.995616925473403,-8.968792226697666,-4.280709388347491,-14.592551812028574,-11.983589485078802,-2.5628839230359883,-8.167070416021307,-11.962493155860663,-7.301184649927436,-15.245574824923043,-21.382191630502312,-1.8119778266139894,19.140495879299788,23.322983471150746,27.7194950910369,24.27817426462289,-1.4059203204458743,-18.323611211550347,-9.879224859703392,-3.634903674339557,-1.8121695674591245,8.320900267240955,4.550553741000826,-16.135330146623907,-18.96226860179948,-6.610406534239725,-6.534334679820662,-9.148845932814208,-7.937023725805162,-22.05057324182988,-37.09055690682275,-27.7186626136508,-17.35419197389588,-23.482268870917263,-23.6469530161472,-20.453818370235897,-31.730372202120027,-34.8008226481802,-16.3752679535461,-3.68890803064533,1.3600239335627857,14.87266378853201,16.31219854279071,-2.216349152280465,-9.646505960801566,-7.437123278900531,-18.993309614440072,-27.94750971709174,-23.57537509922686,-28.746820920580525,-37.74481161679557,-31.37447370311338,-29.515090196278493,-38.73675588178933,-31.48418799798068,-17.599346283465152,-24.859347495680076,-33.3244789092183,-26.175982709538573,-23.78429472258417,-22.331874171434702,-8.09338111711812,-7.88913256648694,-28.917416099755993,-33.22163053680357,-19.343941845965734,-15.389887918087274,-11.672571377818505,-2.690572885562044,-13.483370299493838,-32.45857725066841,-29.90685639931672,-23.70276102044925,-28.74778801446992,-22.527346761866582,-9.875978011495183,-12.79380292154043,-13.021576107900456,-0.15532085912688043,-0.07476942581244161,-8.542663962644442,-2.175476704230346,2.3008764912297055,-7.469904763146435,-9.771111534167286,-8.907702563102529,-22.642879748246234,-28.139074105760038,-13.999004438649312,-8.572745836034485,-10.52062848929341,-0.613600457628495,2.045258100702924,-8.254728425179389,-2.4647805900009003,11.743027755433149,8.962491579314182,6.311987714900953,12.651830186933035,6.219308184634224,-0.8290095018196615,12.777609954724857,21.047736270222693,9.6429581070792,3.9519070889741243,2.4368277544719295,-9.396187380519262,-8.187247893208987,12.329542029680706,19.356474483748837,13.671132313436349,16.64031130312109,13.311885764017449,-1.0540934762382301,-1.0250932766557463,4.564639430114045,-6.641913242394772,-12.84292623339843,-1.004703319455282,3.2417293647878695,0.7553064055397716,8.685688774434688,8.210666060308634,-5.686472366777485,-3.0217524073625803,10.600968094877684,10.04572285776868,11.444426862571088,23.138832869552704,19.289476917419982,7.118086667827344,12.208828379006656,18.490076911328764,15.319495197182695,24.288076740249444,35.49807778229646,24.842139641517367,14.605139309515934,21.14031387788971,20.64822670274038,14.849119739534817,21.31415430681856,18.35244581087909,-2.9288992493803496,-11.241045634241123,-7.366323137575207,-15.055337748697474,-18.837005648566713,-9.304173560792831,-12.318727799444137,-22.355732236689065,-15.59650712082222,-11.823687403129433,-22.88677116935738,-19.660331732142943,-5.16416131023305,-6.965585581816238,-9.318383835948417,0.8900312511726627,-1.422628427773501,-9.156304993844014,5.977293447341581,23.890227743100343,29.138797822778308,50.57440937607382,86.3948099403449,110.21339807912152,138.59947576739089,183.93681793468795,220.64160893229507,250.86370217451196,288.47292645396226,299.14989275529456,260.8101991267201,202.59189438170046,135.4997351646973,55.45908962730317,-7.093030302210925,-40.26950985923656,-75.25901956344966,-112.99251498582944,-134.43957455749324,-159.83534648028552,-199.0438232707827,-222.81343435379517,-231.68628583704694,-247.20181291122165,-254.53995010783274,-246.198973123361,-244.21356706318485,-238.79684553901197,-209.377267158299,-180.11715360236477,-167.61256652782993,-152.99621651390652,-141.47715174533118,-147.128585590503,-146.31547839892767,-130.46013276529447,-123.5324743556431,-117.58385508783866,-94.82049697681303,-78.2614980332879,-77.72486774570127,-70.50723625278948,-64.76245768805656,-78.29369140378016,-87.81741199860612,-82.86370951021671,-86.15454437336257,-89.38802204206942,-74.25139453811084,-64.36762279110522,-69.54195235905293,-63.52958248088132,-50.7706351310117,-49.63975686647248,-41.93831856771213,-23.660024595059486,-20.67949304179326,-22.883061787816523,-6.675703427909176,10.315549135251846,19.111945926448502,39.18353608776816,58.98851640766,59.37001239226164,61.721654512488186,73.48440069739665,72.1427127509593,68.33546847670608,80.95636744362092,87.83873045534169,80.27057534079425,80.623580081856,82.47107803929121,73.47896625491185,77.62478619979025,98.18739698828225,105.09412753043924,102.67063504162792,110.4659198482016,114.12746134002637,111.62509280165155,124.33977727026988,137.83720114919333,130.32134377864222,122.99853894571598,126.23164059610012,120.33756820435205,114.11359129583396,122.23951046358545,122.01918659154963,107.80096581239413,103.71603777470729,102.51303299180329,89.21389749126672,83.7174411590274,87.88978477882976,77.64067580108714,66.20930467032935,74.57017257252812,81.15300238271523,75.9677487192414,78.27265951278261,79.6443992073044,67.1870782228608,63.0198092008581,67.52659487177105,51.94071611107259,29.001369544727645,25.092279759358362,21.334865544769077,4.21184239220106,-9.357087518060236,-21.22491187881088,-30.955185337329866,-7.3089961829932495,48.60902010208925,97.32348741024941,134.5758339923594,175.2211967807647,206.14108413664425,224.26763672444042,243.2754311445097,248.2000787919853,226.29286990099803,202.0940189391913,186.5546695676886,165.87394954961735,149.86843357157815,149.0926179099477,137.78160899308875,104.15923452110272,70.45777681734131,41.218807870505636,14.988262322853599,11.825820341761993,20.088503100268778,-2.6970083723247793,-51.84506318849384,-92.48588697198988,-117.11262840859794,-116.46918477339585,-80.40617611523726,-47.32303490930491,-55.01291997056011,-82.3256470524052,-107.11266304041214,-134.37210685649933,-149.4571033815521,-144.27904472418476,-151.9889946112794,-181.77117935452657,-201.9615225805008,-206.759408128468,-204.3913466363984,-180.03725767467262,-141.61802699420502,-121.27733629203738,-108.95234064222511,-76.25343136983193,-33.03160824764663,9.346074476604574,54.12771666977846,78.85478510607301,69.43806106070983,58.17195933276827,61.31748710460009,58.97460571746332,53.370459431218734,53.11346091545285,38.62676523062971,12.392369803558182,3.4407266564854955,4.46639005989935,-4.1459385930133354,-8.738518416581107,-10.33779841204217,-34.6681081222242,-70.5113041661362,-93.20273264644881,-117.09525662186392,-146.48232653353608,-155.56904189086086,-150.86837066211802,-150.1261980311741,-132.76486047523926,-98.78137213605798,-84.94885659635054,-89.50382940742168,-88.72671857823016,-90.19461516186877,-88.55065810144292,-58.709252094255945,-22.248902262843945,-14.528156412704085,-19.963791987286072,-25.35831421488605,-46.38330881942258,-65.68211384627743,-57.005976508019515,-41.90052269266255,-35.99891555914107,-28.049389990790253,-44.35614593385053,-111.64367652751721,-186.66652498187685,-228.29779179178564,-246.79700623553364,-238.8808461509625,-203.34406629392126,-187.37925207032157,-206.5902824086536,-217.33314298641318,-214.68676247627488,-225.1352511435398,-232.95771665998055,-230.85987731644133,-244.78679290117185,-254.89274239994302,-226.84720946946229,-190.30579797454124,-168.1839884298935,-133.46797831026726,-91.58326024205053,-69.11040516700592,-47.456886126439386,-21.833729286663107,-25.300544895106764,-41.583345981333466,-32.11508537978594,-19.426161078748073,-22.04871171088095,-13.386477299418015,-2.393235511423187,-14.046540297374685,-19.687897536532393,-3.319214073369549,5.784499203442776,15.419698171824304,51.19132835291343,85.42254374068824,99.75224210409712,119.9418045737193,137.67793919742445,130.23627061415993,124.50478264159574,132.51432205249472,125.38227689105028,110.89839739963982,111.75152397495481,107.11423214774709,92.96470877488589,98.78669886813873,111.02091260341173,103.46752079951034,103.84092567547734,132.9545493026025,171.21033388945344,218.30500812475537,272.3332041780774,287.9806449096835,250.52014442441782,201.0196502381161,153.31501151672632,99.80710759493067,63.11459416587551,48.08699351108582,28.750959903948896,13.781465502024309,20.942650928613475,28.678709946521977,34.47259959179987,66.5616291273753,112.14810113114598,141.95930693767679,165.25188983791958,181.46007159314567,170.39354993472202,153.96575311317105,160.48783488763488,169.29318946944747,170.00678517534368,181.35994345212058,188.23142366113242,171.31354798948573,157.73005641583586,161.95999923602838,163.20109083226995,159.64599501733332,146.98645677289983,88.20760266695862,-17.540940827007677,-118.60410828708584,-189.00786452247343,-230.45532797922118,-231.31278581198126,-201.88999238898356,-174.5750233145992,-139.46746347214022,-76.97986946842417,-18.252733321822564,16.841359225339158,53.49411256543064,90.9163937743174,109.8841118788073,126.40182409543402,144.82030699480225,143.01640467831737,139.6670243362481,162.46285230503753,180.3798286018997,165.175065992875,138.49353839727735,108.73273025178204,67.39522320281823,34.58591274401624,11.688903644201563,-36.92160324967757,-104.782831224705,-154.89384895714196,-192.9638080667604,-227.8529217914357,-237.17806727613672,-230.32705860509708,-236.20655850808822,-236.50512778915808,-215.33349655269456,-197.44649030115332,-177.11129391930436,-128.49733680908383,-72.64246936037259,-23.829300913962985,43.329512517185144,115.98190964224413,156.1808654114209,176.88795139143795,196.68197281543826,202.52541322292052,211.07499917325163,246.61796868918543,275.9493432646973,271.32818509683415,253.68936343925796,221.06447658619805,155.7319544288714,88.03955370253536,45.142279621751634,10.83244038000648,-12.03896283792177,-10.372439740321399,-16.4088726127406,-50.823626237460545,-85.39070419173483,-115.67101230306274,-157.90997603798758,-187.64352019382562,-187.53112807094206,-181.73195090664075,-169.36347340391535,-133.70428676676647,-100.4955531014821,-84.45057738284325,-56.520330058192506,-18.113142137878473,3.4831295545248215,18.766583531426,34.54962620867854,26.28622005165124,4.9961170728100734,2.747561095201792,4.475079367066843,-7.249573284802906,-15.132778919371663,-26.385090359214708,-61.345683725494155,-97.08744171666623,-117.75625885329558,-146.17971698023155,-177.31383766538173,-187.8274674967485,-196.96314387293995,-218.7077429783239,-228.03176310666038,-228.80992881874192,-246.36451553539933,-264.5218192196483,-271.40651350000104,-291.2761423668317,-315.0744729043074,-311.31135853838003,-295.46868039255617,-284.03590561513295,-254.9056462530964,-212.96114200048598,-182.30443458317612,-142.585646086441,-79.35412026198901,-21.43814958593706,29.449464100529642,92.67496526996783,145.54526550542855,172.7181132150095,202.31952232941904,234.68459879420885,245.13280148159492,248.38504339422872,256.41874619285966,243.8774065998368,216.2276468585144,204.04223477109616,194.90908144417267,175.71382979125494,170.08802656393257,172.42907863256073,156.39548856919154,138.79711212048898,128.26150991816007,93.63137707316827,41.76508546273877,6.129698549584692,-23.90027865845573,-56.17690047261345,-66.03828631213977,-64.60577198225181,-77.56091641724848,-79.18414691520812,-54.52648692228409,-38.351031279072146,-36.284919002766586,-25.038037884495758,-14.427424044227688,-6.422069748631392,28.282351399952823,79.57647851346421,112.41030555091544,136.95752036413558,165.4858427938708,175.55632431454958,171.57630504688012,177.50535116188973,177.14143871580504,158.0922127762186,145.3820634955556,136.19193424571858,107.01080081224438,77.68576445861318,64.3748141196136,42.443936879555935,15.751371101825544,8.955938492388404,2.013710247911578,-20.77173510094315,-34.25897594990351,-42.47981211206124,-69.3350008931717,-91.25240363806692,-89.20259934800958,-90.17536364429118,-97.60020178273577,-94.98898372033081,-104.31973894947635,-134.24768368914556,-146.9407704034943,-135.81463452650505,-126.93809861160608,-109.43382560501225,-72.7291814075537,-45.38017374239875,-28.082182612063427,4.715893065817292,36.61685345463755,51.69146929885767,74.56097554300307,101.01766979299241,101.45021124902289,92.62994788667592,95.58318781357593,89.82938907926771,76.40361186776721,77.62141617453622,75.34556954153764,57.33400910078227,53.96491823180845,62.130886661538,47.95707659814586,25.26458981055088,16.48232653283867,4.729678488817151,-6.041460198503305,4.165991244159991,9.404512588536152,-9.427833738877125,-21.819567669060213,-23.351734994356512,-41.33652621093462,-63.8850424565784,-72.97266459733594,-84.32519240048029,-89.02297019933594,-61.94709910082201,-28.217662058129626,-13.134131851082863,7.83079437972169,42.71218229689172,66.2900317848975,61.20459310357936,5.554688755759976,-104.91699409643529,-211.50367444384335,-250.93704963001758,-224.43090248560407,-174.14595513385507,-152.30536921085778,-191.08771999233358,-250.21412672296896,-265.0030214457481,-242.77934260757462,-221.39319101813047,-203.29204281089514,-194.38809179128248,-203.08753347319674,-200.5851672187963,-177.4799303801066,-170.0210433429263,-177.4142607825508,-165.9541475815015,-147.176602267578,-140.05133690817476,-123.5333913303035,-97.10091872839888,-82.97827575519598,-62.08397037062211,-15.027244022446627,32.521268126071206,73.67069626280215,123.28173847881784,155.6995728832481,152.98421847023127,150.15218346054633,159.08554393020057,157.43164319027247,158.4883565489243,175.36953620256222,178.28029532674014,164.2959501370408,160.3207498215801,152.12118328912064,126.46929240596324,114.8050814774125,119.10907218134804,108.26862579866761,93.92279648483247,93.99220350940462,84.86178100285836,65.57745490316148,60.623560170583836,52.121842322351505,23.45846269207055,5.537570796942829,3.47173448382152,-10.503935479996521,-22.71796573644631,-13.992780374721807,-6.676251197909211,-0.5764363674611912,27.005715859382104,53.78694508363105,60.440281690755285,77.3879832722959,120.23283899440423,189.38323440549146,305.75769338001646,447.8526763406287,544.6259890954775,569.5703736101503,549.8389950625395,508.50401807587497,470.3760241229515,458.7915446653815,445.59336684703896,394.2177311608158,334.64593093861197,301.16614227281434,273.744809313731,242.60655463548454,219.3940254781661,184.63811832988642,130.45478612745708,90.91567003556871,67.46278940367324,32.80062052534916,5.035529030763529,2.444601882643974,-6.158403156310904,-29.87360769797717,-45.61865659847648,-64.10499156499915,-93.63235171078058,-104.80879337634506,-100.82634623225688,-112.04576442194146,-121.6476100709034,-109.23196464446042,-98.86665281161423,-93.34700734069166,-72.09900172219176,-55.88871565072618,-61.67410139479726,-60.74810984546713,-50.51609863597344,-56.21269112722781,-62.40351843861705,-54.40834091674357,-58.998235079773366,-76.96326678595645,-83.8911972016299,-95.71055832865505,-125.20837906592807,-142.45482299833645,-145.97609716607326,-162.97695448639521,-179.58860210626517,-181.848377658469,-195.6534084906386,-217.60402554219314,-219.64235660676354,-220.6753383875642,-240.53961789069285,-254.23127325169023,-258.98930802699493,-273.5463866356758,-276.0373807148454,-252.6830255758128,-236.0314323622368,-230.38496826896485,-209.8385083454703,-187.10856653458018,-174.68406703326792,-147.23238661856047,-109.38798685977481,-90.91782877937429,-77.17290238348575,-52.07002998879399,-40.58955506850808,-42.51608020034679,-32.680599034025064,-27.68736064931822,-43.81967707462877,-53.94726904107135,-55.27298435103505,-71.98095636617415,-87.82618321542036,-87.55544931626126,-98.51410525938485,-119.51572404494433,-121.33789432548494,-119.32458934847688,-131.16669248961608,-133.1882576636709,-128.4985551958449,-143.50522421780232,-157.65484346529806,-150.08093586854721,-145.5873747705119,-146.23134283889908,-128.2907747062268,-108.50263924661212,-103.86990883674972,-88.20881715997768,-59.125327438990354,-42.55736064134184,-23.060826056097213,17.48583982300739,50.38528584370758,66.27145068993812,85.56189897697239,93.87936871246626,79.50499979419551,72.80760604827073,75.19441949306106,58.125707605420516,36.37946452654374,28.935272678480537,13.629073762376375,-7.516425428707707,-9.729641345770698,-13.306551228382272,-35.85965772819646,-48.20814648483667,-48.98112003102331,-66.0851978207033,-84.4264889505344,-88.96537353548722,-105.97095499256167,-129.5659581683109,-124.95954151668093,-106.81418629904678,-100.67559866814241,-92.9840084292521,-88.49577137473904,-106.94728941513895,-118.3734719207385,-95.83240982838227,-69.76355184246205,-54.25191067049256,-28.718701657998423,-2.540395401547106,15.24514885320044,50.36222129036451,95.12055127288872,113.378815640776,119.65673396954578,139.34093881932725,151.95488873434903,151.45661511033632,156.5352190164151,150.1983460255094,120.75230075901267,102.3936282973184,99.13342183796146,78.99074257270009,53.1149149979221,41.40353330363546,23.01258825976052,-1.0926903397672412,-6.519588486218205,-11.240836750817026,-30.93213732488195,-34.620122902181386,-18.87192615880433,-17.649562195541073,-27.671865958412813,-33.881550748712414,-50.9049133443909,-66.43575394214243,-48.81077665274144,-20.273253659701545,-10.835596062181605,1.820877602246735,28.255857187324235,48.692634871934594,75.4470025387217,121.26166598440768,157.34179849303294,180.59032608887097,218.53782860098943,253.8784473919709,261.5281083293147,264.5266894262062,268.48901846964736,248.6970859661058,220.4789424558696,203.72046968170318,175.76984010295362,139.07859209347757,122.44499978434891,107.08686026789499,72.82331503976802,51.637967501422466,53.2681437336898,49.83396321327251,46.388352094492184,49.9626326221328,29.39065922513942,-12.30441314650207,-32.84451001733512,-34.24156753352658,-36.987571691738275,-27.774977662249178,-14.95537849111952,-28.596223534199485,-48.121491133464545,-43.822492935127556,-33.558573611985075,-22.286390587481428,8.523134308547847,40.91403133268427,58.606379857374755,86.07405961461146,121.61176748911015,134.79832509626578,135.55935403539254,142.48924077386553,142.03853162819664,142.0608056790776,164.20127080777524,181.3445835701701,165.19826563862324,136.4603369125848,105.38924853741645,63.49528119641265,34.85299628247718,32.674944001815945,23.710664462392828,0.20476551080956895,-13.508677921282839,-30.480109702830195,-66.48133903378539,-93.75424595333968,-106.27219566101508,-127.21414974501486,-140.92692635495948,-130.64836140312252,-124.95172688357417,-130.05756011114286,-121.70332965286934,-114.4764488064421,-124.82832729363444,-123.52333381558395,-103.91121459290831,-91.6499584155082,-74.75981680248405,-37.5458334343744,-4.767481208117664,22.77687817417456,69.22613511100975,112.60834873055734,126.35917591018378,132.56037655824633,139.27637348845593,129.47956509831909,122.34763530790889,133.85560669792434,133.1063521955101,113.71451423711125,103.36126189845646,91.18935846628821,59.95836807433473,33.436564327438,13.571010511093966,-24.889531498522732,-63.58045255811271,-79.34318004159049,-96.16496451615112,-117.99084517152232,-119.76199603448359,-118.19815088157925,-133.4007154922926,-140.69127100167208,-139.5635605874584,-158.66034187949728,-179.28806175989197,-173.17735882662876,-158.2092938136465,-137.20160373641676,-91.94061404172936,-50.012768870110605,-37.61801686836141,-24.320882716803276,3.283685900288292,21.304909800998107,37.08601114397877,61.75704380311888,70.02112071578547,65.56523258303636,81.43352733081453,102.84650725115785,103.45398779416671,100.99052845712117,97.80642046660195,73.81140630962489,52.60194303203167,57.461254895477126,59.68617544478779,48.7654098138613,43.84034392294697,27.261816389266208,-12.609261737548257,-35.66030156429769,-30.416647601373803,-29.70789708165413,-33.09143418398453,-30.784307443848782,-46.35040168589621,-73.93480160136541,-77.54010559740826,-69.99841656917107,-78.84469942374102,-86.1380544825721,-84.7825066092018,-93.4738567721396,-95.91278261150138,-73.94752078614432,-51.96759936135512,-35.466770930484145,-2.695895003754371,30.261140143673654,42.566961896808564,56.34603630521882,77.54203653643602,84.59276681603937,88.95190829772406,103.84824258015098,106.36710546265772,98.08841408699595,104.55755816985527,108.2221637668942,87.00111629088143,64.47489863232832,49.24465181825279,21.915145811681036,-3.261786318814009,-10.288609754339342,-23.32877933880258,-43.79282171876384,-47.142767458714744,-51.4984618337348,-77.82145446190151,-99.51170179403681,-107.52343913259614,-122.98085062083965,-133.89559858913472,-128.18362873693388,-132.71266840161374,-147.40395299398241,-142.2220353933993,-126.33463468771238,-114.75477704630791,-86.42385332588779,-45.25788994190485,-21.718636968589685,-4.673836099149395,24.14967432168245,44.28535193614238,54.95763020651226,78.36733926456024,96.8453342603844,92.05531347069035,88.72655186639193,91.5921093900416,79.95887274009854,69.53274891887148,74.57795382406269,68.11779201584702,47.84803008482737,40.096701472081364,32.409598322786756,7.728758959665624,-11.957131396733267,-25.160236288336506,-53.73893341158081,-79.68825250736836,-84.98115864986231,-95.6618809919001,-114.7378849758195,-115.03511081492617,-108.57429833170966,-114.39066276419024,-114.78811635937416,-112.920424144831,-130.71979618474845,-144.5988768815551,-129.8760994099425,-110.17621902168074,-94.429345665606,-65.89032163021547,-39.91658001571675,-28.68377979082379,-5.835138518637473,27.62233926975147,42.447378520160925,50.4348050489299,70.56471134191968,84.31276883887,90.20656206354064,105.10977564876168,109.8130397956686,92.23376156913012,84.56421626749028,94.56135255051669,97.28854456385143,99.54739147894601,111.34903998859838,108.22928154269842,89.76780792595076,80.66045760825789,67.28368589526683,35.744339654700326,15.565120239072055,13.378589644145817,2.222780388693913,-11.261987798548112,-14.04919572061721,-27.212970690819688,-48.265016342786005,-50.458410041203024,-47.76684217411129,-57.30033296371438,-54.97994485284694,-38.489708867653356,-34.09584416673878,-32.612787519953976,-19.798177584470686,-12.399324508403588,-2.7413194208729452,31.921677237190156,65.64524148261631,71.11190056554751,70.5666162874085,75.63199207034339,75.21354670009869,86.71131619766493,115.91875387368572,125.55375568661643,110.34076914351901,101.63422880966354,93.73982927685377,72.83595914909708,60.964589731033385,57.684276962333726,36.38419183329363,10.87000878065291,0.838817472135838,-15.440499947789892,-41.42381502409628,-53.141067200958986,-61.896968013572746,-82.68233211269765,-91.97442882599927,-88.73025024719806,-101.55996150715913,-119.71683846844398,-122.114792785831,-125.53899981774309,-129.90227360450464,-112.99239566414877,-92.17115708449295,-86.80377316709853,-73.83661448284877,-51.61911401083613,-46.95617599062773,-46.46596615247977,-28.141379915426356,-9.751831152639825,4.145682452837705,28.525499167759058,43.54588487249565,34.38901831971211,31.288702399877785,42.28299881284867,42.7639521652478,41.02770632368228,50.56325161657345,50.45017276891667,41.6375059241953,46.71681274592014,47.752149555386325,25.740836914691943,4.824847071275055,-8.700801445280577,-32.415154119575206,-49.100572682352485,-45.33433670325147,-50.60254317663205,-71.65568966962259,-83.67281594401086,-91.64538931597227,-103.71750290652112,-98.79921561423193,-84.32253950848177,-92.28461305078952,-108.08726380087344,-103.06858707246899,-89.41052562953917,-72.5006397962222,-39.092005291409635,-6.952186480591919,9.798623323301845,36.93213286319082,76.11592363225142,96.2307384532497,102.88012263139942,115.79193918984234,121.43525220553323,119.15612813618485,125.59501967406882,123.51485086290651,102.43780303579837,94.78693670822656,107.79692902606001,112.72839243440683,108.98920839210784,104.80593351371405,82.75827713806163,47.9983063801627,27.439595576310758,11.803504209424457,-11.843496956297745,-20.86462284331334,-15.510067903299374,-26.102780246861386,-48.84740263855577,-68.31020914279586,-95.41623579529409,-119.2987137206264,-112.55043322975652,-93.5202551481856,-87.14289115268515,-76.95696563787594,-60.53860246731743,-56.29963954237379,-46.566102261905485,-15.865586345076725,6.163397182929327,8.704923382288932,12.052207381488758,8.146822603675382,-8.724440390746441,-6.909767979142606,16.455771844001426,29.79739529104,36.56784302274495,48.23973892318272,43.309694285346076,24.651604488644725,20.61251603722885,19.085901197334792,3.594517413389942,-2.624497941801373,1.6577322123999392,-9.193542635103961,-23.318719216036914,-25.454533374796053,-37.67735189355986,-58.9469885551828,-62.39901069993002,-61.18297860746981,-75.46965662545944,-85.12063687650001,-85.29402247891049,-95.93781318444258,-100.16427121346125,-78.0112321530277,-55.641970612214834,-44.265251865648025,-24.670409631112197,-8.96047780536471,-10.033013917021417,-0.015082841028472238,25.5148013870978,39.49196052553823,51.424325233004296,78.00370211048332,98.59149602921204,108.98599533906528,125.99370817667213,132.37464110781434,115.17864750557999,103.62613535921517,105.28601379294871,97.4216469709203,87.60034987211914,88.16865028268418,79.12440101415575,58.68599499918659,47.340899790123274,32.70396896637068,1.0925524390723886,-22.63220548616793,-32.30371629660743,-50.704335562554704,-68.61293112046613,-70.51027258216416,-76.11580358825739,-87.86307343703206,-85.26400775562655,-83.18587639836394,-97.58244656142331,-101.65682010512799,-86.60821923700978,-75.21508323411241,-60.109002071175226,-29.854755321756464,-8.415209977229946,3.373710626273352,33.340126019714546,70.87322630254015,93.89665166135282,116.62406529874012,140.00764425365585,143.12357630668157,140.86540446576117,151.4056257674367,151.74027355342534,138.01112313920896,136.730253230726,139.08006975515414,127.0839853859211,117.12574899060766,107.35204281737597,75.30439250533642,40.1443042220876,26.90603172541595,15.92910412591333,-1.77524663968119,-8.890083275214286,-18.02513035703559,-43.24296577303959,-59.03596069095735,-59.65985508287072,-71.17040505012794,-86.31060676101586,-86.08439838501327,-84.87031054393029,-82.97427931002719,-60.57614421334448,-35.25615063362833,-28.185471811304758,-18.45507926647237,1.8352282135635836,15.148335001995074,31.73955205442175,62.24696960200983,82.96327808227466,89.46142388468863,101.25282276078065,105.47401584863327,88.66310633722028,76.47767690724646,74.72526872285788,60.536829088315194,44.62369565568112,42.24861780501185,32.54660851437906,14.895617967024393,11.129910432383637,3.5877143490609074,-26.84784640643595,-53.38561505035647,-65.3270445647885,-82.00425005508703,-91.50674245808763,-81.43048507905559,-79.9046532216993,-93.33814762062718,-98.72373813642372,-107.35391058099668,-132.6748240089254,-146.9514584915094,-141.31481413694254,-137.23310788056375,-125.3276031885099,-92.62152555392915,-65.12594687607888,-50.923237441353166,-27.328891373825783,-3.6703857856943904,3.607755574295463,16.862791784720052,40.61136893055712,49.21224079797418,53.62750524974968,74.07401178140455,89.44344378576676,93.61379842576605,107.29080532007805,113.39083076090898,91.35806886130493,69.40289997179106,60.55389630667393,43.45462435317205,27.85682809192466,27.351341902071923,14.228474904363079,-16.708753257569548,-35.81655574341713,-48.527425760350184,-70.48469084233822,-80.44392724723444,-75.46589205729765,-82.28737517429397,-94.15877266482147,-95.25032230826953,-103.07267978280402,-116.45423505831663,-109.96556540048697,-95.61053698983363,-92.94496301106838,-82.48401879166781,-59.70574889430853,-47.29858650819673,-36.764653002728814,-15.644695605996239,-6.611680598851008,-9.147272169608923,6.377274810420978,30.61864956584757,42.20544885860721,56.45594013541913,73.21693142856839,67.76117603677572,53.76279948653949,53.24662819901338,48.08835314381994,35.97897527920941,40.41058247643429,45.660868569322346,28.874468607340475,11.604628607236094,2.407237074587698,-17.316007547460586,-33.584192617869185,-31.733320832066042,-38.3804959699252,-58.74160117755193,-66.85835674112073,-71.21515173059689,-87.74209322682387,-96.45446159556494,-96.55030143581295,-112.44361859431513,-128.13638007284726,-117.03609838441551,-94.55880605178118,-68.6641378730717,-28.01516248325578,2.460756284579488,-0.8286842491164457,-8.848274329876313,-2.4368679789463967,3.2490949232534394,16.686434056819902,47.797896426978426,69.02413275190322,74.24932496558684,86.56660991640602,93.38164109093695,78.86095142896552,68.91010488072526,70.81964086724236,63.53928222928016,58.20233685281934,66.82997962735014,62.957289367671635,43.24054329056534,35.446874002527395,32.272927413847746,19.108657916071103,18.50909269947677,30.338051102671546,21.655300008571757,-1.310325985766803,-16.566201739193385,-36.878816106366486,-57.182569565112,-47.46800359250925,-21.810187428314876,-8.107797838251752,6.553786509706061,23.77110650564429,21.311062869969298,14.189338720377918,25.627186783569694,38.54725437790147,47.12923413064725,67.90646465441309,83.02756757877059,72.00214185871484,57.72161994902895,51.54875243274856,38.29754140302785,28.833996032130095,33.0585201235335,26.08058282276405,5.912496009049121,-0.8146785834542052,-1.8121678568774682,-13.044421924042032,-16.384765666451184,-12.730691086448527,-27.25177906609371,-46.43570096636265,-51.01482604261247,-62.50604405049184,-84.42941241835884,-91.51479548077657,-93.3856223026127,-106.75132831057181,-109.51175991234739,-96.45834780571077,-91.27357935274145,-83.0718897362603,-54.08547348300607,-29.45599899910096,-19.46263219128066,0.05138770534801207,23.849245988312024,36.24272008824862,55.09297519722405,80.58211267964595,87.07004649166639,86.53335738710746,99.86978492007479,106.16476430821714,95.98797956054872,89.97552326982202,81.59183445344573,58.310616425099106,41.94676197803543,36.15945752856213,17.66580640043991,-1.553303279563103,-2.3399994957703294,-7.119999475303939,-24.857850373263986,-33.70251140359817,-40.84448852184005,-60.23801767447977,-69.67717887935116,-65.32069477083085,-73.91404042508765,-88.39932185536571,-90.01854488079687,-93.97452451399542,-99.40341098366896,-81.51874597759986,-54.62900529098426,-43.561645044780846,-31.569458581813187,-10.671883245441808,1.6936587599999284,17.159528651694032,48.7967356085335,69.56347432143373,71.95241631146096,82.49438439169737,95.08957226159322,91.67990439526633,90.95316498889731,98.86681783560677,96.1851916250424,96.09717574169844,113.84955633639555,120.29116249002568,101.11925176069867,77.57220273932388,48.383837562794085,10.553959842631933,-5.772501996458801,0.053540902128084156,-7.963912837306572,-27.07226047797766,-37.24231808773946,-51.305426699778195,-67.16002821773007,-63.26854251753862,-58.903765636369116,-77.31533658362405,-94.75407152105527,-98.00689326901316,-104.89745643146298,-107.2068071143328,-90.54165338376895,-75.55530001648499,-66.69272494112603,-40.54528702452621,-7.411028196992181,12.318061011205755,34.12679393049879,58.245197202210434,60.67012237633811,55.732646717251214,67.25112138422813,78.55969634737936,83.30972387390082,98.75218240666322,109.52691571812377,98.09497412696977,89.92357343837494,92.94292309728556,81.53657926844124,63.171629817696854,56.23634127086544,40.676719099971834,9.939401010878878,-11.500442361622722,-27.770506873481118,-52.24444835066926,-64.72366129381922,-63.92814587408865,-79.4558330422303,-104.11505093767659,-113.08082445517829,-117.58147393983353,-122.57163572364524,-110.66919866513801,-95.05810597533986,-93.29586411564043,-81.96288539910242,-52.656437300141775,-30.87278240987105,-12.036544162867704,20.04025028384533,45.33175405207688,59.08872726609004,84.616433980769,108.44361526543742,108.58388574266866,107.58596917027211,115.78684080688667,111.77760152957623,103.80958083975105,107.04857337146072,100.69643941038362,83.19797976469856,81.8470013757134,85.76958503919369,69.24715064843242,45.697998382782174,23.60600908358915,-9.877437115227991,-36.459809944948745,-36.24895401794976,-36.158256975519166,-51.37387158905581,-61.87637756894014,-74.71345566003842,-103.96060088927092,-122.1272685365092,-117.89326718788817,-116.89558357857295,-114.72203328731996,-96.21991318483215,-84.73277640134941,-86.43905328208226,-73.07967568772179,-49.861354635942014,-36.35942748586379,-15.887655018130658,14.323791320008926,27.882823655907394,33.019925222951684,51.02740749575065,65.61019053113567,72.34827413397676,93.42370603162908,115.13254540056114,113.48185592700959,106.49854505738008,102.21694929748148,82.50091342192323,63.30916272989336,66.19216608114431,66.11366982403351,47.80018431542368,31.525711384632608,14.334615649079442,-14.69809755387454,-31.993826572937188,-32.79350125748594,-46.26629138968491,-67.34785703496112,-73.39149558172922,-78.03353586202078,-87.860835075965,-84.55078681259005,-80.40240104895796,-93.57821069355234,-101.05637191028514,-92.6808004145051,-88.44629633131431,-79.88035830324742,-53.61502728338614,-34.83261177789823,-31.684496190143413,-18.880498143636686,-0.4079804572923482,8.990601727002538,27.72303747618963,55.71694775480172,64.06744756195323,61.49080095550066,70.35994366135283,74.29859025658668,69.0050323996649,78.45267009854541,91.18691929208016,84.483738145,77.4244558604646,76.82282907910441,58.653820263676344,33.30412633098672,22.374628511632135,7.20502276981616,-16.585101292616173,-23.287453060186387,-24.83224370205245,-47.06777857876354,-72.15364285698253,-86.6747490215314,-102.87713335453797,-104.46592889894268,-73.7921011216944,-40.26553542723235,-22.71664339753881,-3.7099973902836796,9.880465355562968,1.71238801454072,-5.069465375117766,3.3991253724488013,9.221535056183138,20.37947156612779,50.004395577170406,68.09496252439192,59.86606970053582,52.854337017595874,50.89326358301467,41.96312679416151,42.726250898033726,52.587154179735734,44.450721533241186,30.890164458310778,37.97177734863325,47.25805180804349,45.21564348137367,46.94051804481121,41.909702076161196,17.046255445768203,-0.6133449538082552,-2.626508141693367,-13.68321183306391,-24.28782497140723,-16.99220139280177,-18.20121851736819,-39.91340362922495,-60.44144206825085,-85.18326518515437,-120.69005926493925,-135.59006846170803,-127.21154463977007,-131.93313633365977,-146.19880746629292,-144.719207043917,-137.5303235206593,-127.11846700420928,-96.44193788720762,-67.88453446045142,-67.90580928372204,-67.2002652644633,-42.62066943137155,-13.6307004564815,17.697920439883347,57.33086810869415,77.53249696147607,70.58410010633662,67.18894112025703,68.98138590244625,61.018536997537225,59.919511849497894,68.61126584225522,61.17820824920547,43.068573620385564,34.8693064342257,25.87121317307831,14.446948420761,18.808411265467118,22.256351993023884,0.48279170282338946,-27.00215439504861,-46.71699458853757,-72.42290179257186,-89.12577517002649,-77.08059684659254,-60.79327959026861,-54.99363149276112,-44.84027067737769,-45.1212059566719,-73.02887746934792,-95.73732644408317,-90.78697532132364,-77.82507052726234,-58.13094364323722,-25.914591379089533,-9.223515830295462,-14.07385548982098,-8.092026800607895,8.838480663368946,17.800633649829702,32.881573957615686,56.92036667006819,64.26300614843467,61.9087574115077,70.67500436732226,74.78680900337378,69.81285667575929,79.24999987008637,92.44682326424306,86.37466531678541,77.9735818633029,74.58317296844913,54.74208487582256,29.287897481277014,20.968383861360763,12.24668520544407,-6.12550320679579,-13.941691262740838,-21.44263955767793,-47.87394988643852,-69.04885211626551,-72.13637626225446,-78.67260320976703,-80.57055177977247,-61.15971131212221,-45.36279568417288,-43.820959646469085,-33.4745707587506,-20.94010900361033,-22.138606364318925,-15.624656443617813,5.399478175039955,18.694967282119805,34.345260095661544,69.97021206698456,99.94810220863077,107.03231263482536,107.44569481481008,99.04253288497763,77.3144018005465,71.57584113922499,89.35904331649056,99.28547764299472,97.79612862320153,99.46614202206914,89.87876656127236,67.88790710673467,59.519930493241084,56.404897003634076,36.194191199019805,16.148746873654233,5.744992666915149,-15.522239678661975,-39.130972496715216,-45.417410241457546,-53.0810725355275,-68.02383416998592,-63.405688283814996,-46.20977782209066,-41.425645809700576,-36.454616654537254,-25.697287108579268,-30.419606280273793,-37.99911199093697,-24.42658095796002,-10.171079828865242,-8.25256609301138,1.691731825300491,13.115069758989545,10.639835756273667,19.106184224325457,48.26305134663527,68.65602054969,77.32092784875712,87.6485610065522,82.87858720350776,63.881797870487716,64.76639691257705,82.41852891636101,89.12641179788122,91.25662714412412,90.57660217664173,66.58079164686835,35.445622809635054,25.219183805789314,20.005595663974212,9.83427505108668,12.497308500282347,14.75851722916668,-6.1527925242443615,-31.649406214950172,-51.84503530089432,-84.73794173621515,-114.3181484478115,-114.91911141771709,-108.31809827088034,-110.04979839879806,-102.62942879251511,-96.38553268163523,-108.49088759350582,-111.27581662652543,-90.27927309064347,-71.53677261292671,-55.90517879092086,-29.38302341384137,-11.135358577310232,-6.235121129851646,11.179572393797867,33.29177741628136,38.87130707386935,48.317579719303446,71.99283068548715,84.43917827576092,86.00065501021093,90.48828326603073,79.32613126355733,50.95990159477812,36.95212609348012,32.460009171568075,13.206719853919822,-3.6760427201423944,-5.9276384388911865,-15.453401458059894,-28.98988700172809,-30.164202573136738,-38.831565681113574,-61.62996803749343,-70.11018044988919,-67.51336481328352,-76.02724020702001,-82.08500843430285,-80.0643673557067,-91.24769684261915,-102.52423442501448,-88.21592855692033,-66.73860384064866,-51.68668557619437,-26.799984580380233,-3.5407087307840284,0.7870215228289041,12.744410518193112,42.78334271609847,61.766294541732094,72.83234735917111,95.41775730773094,110.35650536409098,109.6433131707705,114.4934060536854,113.8988404496814,90.4832951041848,73.54866809764678,79.34216735287026,81.39058193688986,77.14169858347569,77.91023778269987,60.982700086140106,21.821386978023295,-7.4866539169554605,-27.005599779755418,-53.51562829775565,-68.27536903106049,-65.44045633316374,-71.35763442316481,-81.14160919415266,-74.96220451355646,-68.98842708945003,-69.48220836566622,-53.978308803626355,-30.15959210341112,-17.528908117542013,0.6138329257468937,28.250666062494215,38.793165158480164,39.35564450593172,52.95238646156883,63.27364463499063,61.415195805276134,67.66122722868022,71.51454461154997,53.24031969734925,37.3205247487658,38.54468895838501,34.82097120943368,30.142390563322543,40.04006896513946,40.05636565716128,19.17237840896066,5.325343574120424,-2.860235447240647,-25.287088321559242,-44.63432224439174,-51.417544427570874,-67.64390194434056,-84.80823010698919,-81.1455382363973,-78.40165495958152,-92.08735681710915,-100.63539584719925,-106.34709880269767,-124.48941113855977,-131.4558276924153,-114.43635460316587,-98.06410591413044,-81.53585820018836,-51.03618978712167,-29.483319609796894,-24.726822634478864,-7.663137739670002,17.377933905373528,26.532994965281233,35.98881943416206,55.55232713849509,63.57986160035131,68.38788237320156,88.98813079561448,100.72502796649837,88.84258631242173,77.61465254284781,68.73311558038804,50.285502558185485,43.11382474296819,53.955947122631876,53.22696467840339,37.944857992531915,25.001885930684047,2.8116202803289987,-28.524177539801514,-39.22234110577941,-31.748755206171683,-28.929970380148124,-21.642872225959884,-9.44373827901676,-19.09819866178724,-42.214433305208985,-50.75532800109209,-54.217394552278144,-57.95962814275116,-41.588211685593635,-18.481754217925296,-15.280779115141668,-15.463843151338596,-6.593894175014179,-4.436462012269013,3.2577995917016835,35.24129110749864,65.25274692326109,75.16795920079545,84.04960619101958,89.23862096672187,77.80269582392131,72.38480976496201,81.1911946639286,78.29806152214863,68.15005928410919,69.73854015135848,64.85997153492795,45.46800692760645,34.756281741686315,27.29138951736388,5.58275757228899,-10.778083044283003,-14.366017212000973,-30.620425840751675,-53.141316595393775,-59.90231678330008,-69.398974337748,-91.37666702139002,-101.48709915872917,-106.70788771269915,-127.48062569328508,-139.02993993004026,-126.61773391716315,-116.12950385058669,-106.52191018148562,-82.19865375413107,-64.22678734737678,-57.45277531811423,-32.282667663186515,3.716595177043457,22.476426750059083,36.44749449255143,55.49914292458616,61.50303584426945,65.68711010885816,89.8673782421463,110.71745838388694,109.48969024920297,103.81009983112196,90.933177871533,59.1397286354874,34.968677436590184,32.572076103073,24.646381506388792,4.333870286518786,-14.597086001538147,-41.04168627694379,-70.92032373392507,-76.63749943632669,-68.09184530725585,-74.50307690666679,-87.45082257709471,-97.0963615812564,-115.43832275222641,-130.12542484114985,-122.65330323645549,-112.92944018593221,-112.22533625648735,-99.36589264296646,-79.15121196542464,-71.71307609013189,-62.07218992533419,-42.068216769590435,-31.13711513086041,-18.916946980876727,13.321985544770117,39.70102604732292,44.539017697209715,51.18667571990019,59.1396792146217,54.82872924037591,59.63760719029226,78.64332686604142,80.89892936714466,71.91370552492117,78.07833586565101,82.46910320641081,71.72843346499032,65.88720974899792,56.546814305835454,24.20902340846736,-4.926909899599979,-14.174096198202214,-27.957210416526998,-44.14680368188252,-42.70064327123528,-41.66270713318354,-52.96209144991796,-57.072764243827876,-62.04869700691791,-86.47417629371967,-104.74056441475915,-98.72368927864326,-91.28573687149157,-84.73167758507802,-65.11719723708356,-50.764580809350804,-48.55302716957593,-32.63572077831166,-8.24391773579915,1.4902537813809682,11.292198970721504,29.632917415831294,34.14867829358412,32.21497004574656,47.28078888385354,64.41392002147927,73.15528990567019,90.43049652462328,102.90658072830517,88.12808401384187,70.550843526552,73.7200737504267,92.72785467986344,130.54470295322375,169.7833645549927,167.23039790544803,124.79882558330749,78.4880456648669,44.072490921006846,31.05554882743942,36.28959175333249,26.487530606366477,-4.355254602712165,-20.033987239001206,-14.230218579025635,-9.123011338362623,-2.5970695398794064,4.623423105097434,-4.549957456240019,-13.533469385158659,1.723367289646852,20.79058515905332,31.174735103807684,52.9545227670362,77.89444034925724,85.04903201938009,90.50294949920965,101.70296763915343,96.99249521378134,82.83620144141096,79.35557091604163,73.38365943233555,61.58144826533785,66.144977874384,74.56821592586579,60.05880600414393,38.11820660114416,22.7394669293637,0.6859868335902801,-17.56531007870997,-16.92307235415603,-21.65781597073494,-42.992278962391595,-57.86697504868291,-68.77536150259573,-89.75083428628903,-101.96807946227732,-100.00032323985458,-106.75623939650157,-114.20281767044699,-103.88961597001688,-96.66723577481267,-102.29644769690239,-97.13336183307072,-86.49751656772943,-90.06624292270797,-89.18051209076592,-72.17175980433178,-58.114911442938805,-40.004964997297265,-3.162168546056927,24.283904364220444,25.564341824330604,25.32912829488457,27.891034913201338,21.692919776137984,23.241455966680103,36.48246320265908,38.21250110841811,37.7357929165102,56.099558497107395,69.72050467265431,60.61592802710702,49.18602115238816,36.24820453892987,10.576725063375415,-6.495278615122659,-10.168549284963348,-30.126549121856524,-59.45915183650687,-70.60070380172371,-78.06558113007344,-92.67928999799587,-93.32416570706188,-87.66528289270532,-97.27954139773937,-103.73300573926929,-97.82418542111355,-103.12894710861687,-110.22729284519387,-94.94922159960728,-77.58451864595115,-72.47261726495422,-58.41346108743522,-40.56719338727849,-38.90017983126818,-34.92634445603865,-17.458510503303028,-8.165892052714117,0.029930116969825393,28.115874853157504,52.92101460924371,56.666526760565745,60.976050650737264,64.25970433831299,49.3413200523513,36.553526528615535,37.61143834830633,31.085142527347166,24.053782679309755,36.07775090878382,44.76913784246459,35.5086607157601,30.65731815311771,28.287331106930676,12.174136622956468,2.721286859108059,8.965756680905567,5.170339396485536,-3.176757513533239,5.109733292515772,7.270921530488934,-13.702709821267327,-35.21346990323785,-55.87395640114822,-86.91679147355396,-102.34314699299001,-90.3653801266204,-79.1351891024898,-67.58881643240798,-35.3113798256511,-2.123862770365575,14.671849121890013,32.235589177670754,47.40062389020901,43.215879385412165,33.08851950628469,21.375650304454368,-10.809937836837978,-44.90671728302834,-44.53959435751817,-22.72989139598809,-5.517989647381247,7.8966571046264855,6.661879707002145,-16.48312073554287,-29.156325056700872,-18.722177415347677,-15.223284439055751,-21.031146434771657,-17.713285879870096,-20.17365820042709,-35.52456239907467,-40.53355582352092,-40.84042220696145,-54.62014831959521,-60.0598471656066,-45.9618042361609,-38.8759023920827,-39.785823332111114,-32.5307842734405,-33.27973015113242,-45.70644899233267,-40.1347876104708,-19.76201394601878,-9.78653722944776,1.311363555814967,22.30352258433388,33.79423456298196,44.227530651758336,72.94169743142693,97.5600688973855,103.63528782967902,112.69071362327801,121.6799825017266,114.29599206456405,110.70825653199714,118.82578752614286,111.94945713266208,95.94807851793439,95.66646471955667,95.809895733526,84.88210279139932,81.92319458860811,79.04391123522521,58.06977530450746,42.47564733084334,45.72871642800801,41.24435976160797,26.72441543971606,21.891411193259056,16.407696560550967,4.867408009150012,8.659675592187911,19.584734906707766,14.073784430542634,8.585594410246411,16.00310563689517,17.03347584937686,16.785804265994518,33.09266107635274,48.019541720466094,52.228902702540864,66.00054255666909,81.89785102294941,81.74081850196731,87.33490494582354,110.3366546901143,124.7161214496422,129.6332928573874,142.1861478244521,146.92953306463312,137.54027224316718,138.1737422056346,142.49745636568036,127.28784621610674,110.12961969804813,104.97460588589448,89.90974794515128,66.8450706305347,54.32820740267921,36.838968014121605,10.22384588546784,3.014810319317512,8.92712709375606,-0.0011526908467045516,-12.623431270411684,-20.754180692605065,-43.95956947892427,-68.34667314882014,-67.1719971638435,-62.083724911085746,-71.56602141872031,-76.63265556459709,-80.74087707772074,-97.87529111485361,-101.5988029854683,-79.08089815783804,-60.67843998860556,-51.6300134725916,-35.26411879117241,-25.683465924170843,-29.71488722285449,-23.827604571204773,-11.507260256924404,-13.904952043094443,-16.41602033905868,-7.505879694943541,-8.409553151496212,-16.96371285027624,-13.801558644209958,-14.627246754696355,-28.30316985397218,-29.88027664703468,-22.29671665064418,-26.85691578085774,-28.229721737450753,-17.30325277647069,-15.63651365478227,-15.690014099184012,2.087532297483323,13.551378853953352,0.8011978338811199,-14.849597501909695,-30.97342879994295,-58.11809786787324,-73.50230319072983,-66.94775055575145,-65.76251779656984,-70.18681190006373,-60.14002207757913,-51.67498001390953,-55.57905072330499,-48.62387792277629,-34.662914497960074,-34.96919154040814,-33.1876299378894,-19.09145984066511,-13.614246010143665,-10.185870845371095,8.923472031098122,20.98571659926962,12.693310314617172,8.715574557374417,11.244342277853402,5.581248903569903,6.684657438756139,16.75136034934958,8.15232406658861,-10.606977083552982,-11.739484571296568,-11.314018473442323,-25.165550931170465,-35.90758844792013,-48.47524646932528,-77.59889998661066,-98.87043382626896,-100.27258408992515,-107.65050908106093,-118.0985716576714,-110.8538275670509,-104.8361726694917,-113.6908441046678,-115.41419845834258,-112.7885070612949,-124.1291393017382,-128.68040790464806,-112.7748777469647,-99.95542087249898,-88.01700621400893,-58.315438085967955,-33.205250018073805,-28.892717685040825,-21.413032881912613,-9.153086496260036,-8.717316193405004,-2.8310364652622355,16.560200028082495,23.151775308251423,19.242248747322975,26.249278812524892,28.828250767016304,16.959254075682274,14.888806050878294,21.43555343729883,16.531724450315714,13.178400513235735,16.341169965375276,0.9303804763291161,-25.388085743708686,-35.73126084972078,-42.837541963309114,-58.089801093209545,-63.06924143055834,-65.1265264942931,-83.58754397213045,-96.48754021233556,-89.38751533785184,-86.04008325761856,-85.41838337766144,-69.74806416122733,-58.69661904554056,-62.86284956558098,-55.37783533267857,-36.71439186881507,-27.193071350981043,-11.353295533028962,18.680406739812625,36.58893266872392,45.167370439404344,66.03897697703027,82.85913262091526,84.00326217939718,90.00756255282329,95.25556549242489,81.58802457620789,71.39317704585096,79.08209767081084,82.2568920190957,82.35080328270627,94.73451190660187,98.3629115702536,82.14204394313887,69.82206827686922,59.10566150277889,34.290937611338165,17.635773175247973,21.07685972407317,20.02421849450097,14.037270139848196,17.637174454920157,12.472532390809777,-8.17685020210827,-16.599284706811982,-13.203904492307542,-17.906522945611492,-15.159305678690163,4.031278726504167,14.077809622498554,16.748091468060395,32.26341640123227,42.52278678469496,35.457715362827116,35.687776534162246,43.51351297989202,42.3797179437464,49.91615642038121,72.04056731449063,78.52204147805466,69.17590245238075,67.02458501306728,61.46935231981479,45.15252751426983,38.49892104887683,33.22355881452136,8.590255105423868,-12.372849786736754,-13.011321251325516,-16.996803836490773,-25.287320048555717,-20.690518144653744,-20.442738605326554,-33.53427553949104,-35.914157119602464,-34.22186096822588,-54.6090466957898,-80.41191432466643,-92.79562922675768,-105.31879969418435,-108.68079411917341,-82.86691066316922,-51.16476179958815,-30.721615180719375,-2.2061341734805113,27.92001937313136,37.17436900818341,42.69666848068968,58.82151430643734,67.93382662379126,75.79651477092483,98.66215259534779,113.24846544333047,108.23181187491707,113.03775060993961,129.4158460171856,134.57401206270242,137.23120489541208,140.64503143062095,121.48809390218315,91.6786130424984,80.49004546666143,71.95192479786073,53.034185902297004,47.45897814370596,50.532553910453174,37.12683062512261,20.807246552777812,11.071690734002797,-12.97905709764856,-40.36578280228605,-44.64438957758746,-45.48862326241783,-60.63629040441808,-68.22356591874016,-66.65674385929252,-72.3127172598319,-68.28850911488833,-46.37077673071785,-32.54064726941194,-23.40802601796965,3.292014672375702,29.169115582120174,38.61399570714884,52.00090351553192,67.55503157330156,68.32086303418207,72.965019456696,91.52590380027166,98.82433334841222,95.59001013701442,101.19328260913497,100.74124840003559,85.01212236149863,76.65223383792667,71.668441832671,48.59221755048955,23.45507741983579,9.556126983856057,-11.453668588795637,-34.037687267303234,-39.576086722323964,-47.321532874051485,-67.91904389838635,-76.4881122724081,-76.42383208817122,-91.6297358349003,-109.94724134096818,-122.06658580815154,-146.50178192634155,-170.34380442963976,-165.0716614323203,-149.0442990880796,-143.82908994329185,-135.64070463792496,-128.3528091243333,-135.67442319295975,-131.5472559807811,-101.77765481031479,-76.60129634861661,-60.877282462331806,-34.705642970677296,-12.181877543233773,-3.747483031824179,11.344163223419288,26.682464436902606,22.215596913611343,19.98281172540305,34.09323422572479,38.50869899274005,33.024216925100234,38.601363163669944,42.70820921719142,37.416859995175564,40.93480820171833,41.507212882609615,16.07949664885249,-13.49847723244434,-28.440415502638537,-46.64511277319995,-63.609565015347094,-58.87656772704854,-49.43322235914311,-48.92266475911417,-40.51199530309457,-33.62469776441398,-49.280564727925075,-62.45022741994261,-51.08319596343412,-36.04189135982054,-21.915828437473095,2.429709776976498,16.07795962983527,12.785215066333704,23.824891332781448,47.86093282271367,60.64496061733251,74.2477168676323,95.9274533748555,102.83332631365832,102.28455062776126,117.10299307167956,128.7963128216057,125.87447612443856,131.93629729346458,140.86641928526208,129.95189976006617,117.86383219793834,118.6176140713099,110.50124148575497,95.72714685562374,93.49362269673742,86.51426060459029,64.45529760595626,52.908100294610904,48.9586919090203,28.556412851056606,7.445986137550888,0.29092733330758724,-12.028213797749824,-24.385750481072943,-16.36517995719138,-6.57333057440229,-9.105860629674313,-4.049318827416716,3.2599986676150783,-8.203033626632646,-17.72423016193345,-7.302076025697605,1.627004315429104,8.225770691286924,30.21345780244017,49.536733503401756,52.95674616720014,60.442970621397706,67.60956809229265,58.49936415994257,56.22581639556534,73.17485687401619,82.08889895404063,78.87651979601713,80.68221123117753,76.21792001395147,60.715877935420835,55.409119184423304,51.046915680946796,25.979572030466116,3.4688999362565145,0.7369973097899143,-8.052236323372973,-25.480049208033552,-30.3028437121684,-35.65519268207417,-50.916989995370216,-52.79159053794081,-47.72477935584489,-61.45413724108255,-75.93178244579292,-73.16785883758348,-74.16536476249189,-77.80556901003602,-62.470267321693655,-45.246477725668974,-41.847322862653996,-31.230297118697607,-15.925206606061371,-16.827795355254302,-15.996679165067874,-0.587037349960223,5.2192974200161215,4.189736578096328,18.916259562466287,31.182358272289992,24.658337026341123,21.202144900730502,22.453009146050164,11.56686463932807,3.5558562929594317,5.730967785869799,-7.329791971270032,-31.51016339064776,-40.341024000156466,-45.356146884392025,-61.06666189152836,-71.21112571481443,-78.79763396696353,-100.1310369210862,-116.66386014943515,-117.89598597868847,-129.52300467623945,-148.5336358363647,-148.4404810734379,-141.81937604327828,-141.48981604382232,-128.33045548677325,-111.2414410679263,-114.45986308211316,-116.98799636630326,-100.35406369909117,-84.87385034601523,-70.0293674383486,-39.10792645369797,-11.882515969529411,-3.1379336315312893,9.608153978232068,26.824207186438695,28.860022265015168,31.453593568054877,47.29014343743211,53.522028607495706,49.021363397935595,50.74338369864877,43.00285896194606,19.306505918507366,8.491274798816136,9.628049693558067,-1.4161674911753463,-12.436109412932863,-13.624473845710579,-26.347216078062374,-43.95342791431258,-45.3309892031584,-53.50148650803273,-83.50007328627272,-105.86627536748534,-114.63757654576781,-126.65673231356126,-128.32911590116322,-116.96963049077948,-121.7897398629213,-135.65841121472255,-127.07128885340794,-107.99596720546948,-97.20650277374082,-80.49971710695878,-59.534369072514735,-48.659895566121406,-29.030482515175372,6.880818552193745,26.897310805472628,28.558297557933646,40.706645823834315,57.475728807892644,65.2304712358946,77.70573129203974,89.15587393446307,84.52422795159802,89.44650587123404,117.06673030600909,130.61898494293592,116.05182264242688,93.42537796309017,61.3069983064321,24.526536840496664,12.686231217073571,16.545952092907402,2.118052316061523,-19.875309830532075,-31.275503728233442,-46.80237466666651,-62.1966820481284,-58.98172356440343,-56.929508857106924,-71.33110799800885,-78.01005910803337,-73.75739539917191,-78.38184502130125,-78.13417638671062,-61.00681477094178,-50.82700948693444,-48.325824472493046,-33.074471824652,-19.759006714425876,-18.657957292940107,-4.176216009979075,22.28813429703341,35.23522794768958,45.454677713377066,64.3526304667859,71.79060127047103,71.99222537657877,86.21474780605837,97.61999669691075,91.53303467423535,89.20863156261925,91.0727586486408,77.882062888353,64.96445690841405,64.96928156334587,55.46660943093917,37.609414026994116,32.18116130041822,23.319817033742318,-1.0805923675005147,-17.39870983633974,-26.210225918005122,-46.14528443859518,-58.27106840185007,-50.338322062533884,-48.91808509524097,-54.86033296520444,-47.48442998831878,-43.90088777152446,-56.52503730413193,-58.75856987233872,-48.34700911054708,-44.29402254377675,-31.282826188810276,-3.344655335851315,9.601154427045303,11.711430083158097,32.171766995502225,58.53778585896859,74.57851238637274,93.1701987921989,104.26149192245771,90.77982818659608,79.23194594536533,86.29906332073828,88.06582716355848,84.03861569895713,91.34980809536059,92.54983600553288,77.99776865275545,72.452851514164,75.39626602333996,66.77375965775443,58.18269778064008,56.27071898900238,38.07933611406765,8.463830552507808,-7.12028492327299,-19.839359431680588,-40.43024878920165,-46.878013516501596,-42.88955320213155,-53.98492435131996,-68.7338709147772,-74.17300182002066,-86.06341568606015,-93.25810439162842,-72.24039538113105,-46.30721560504328,-34.72539823886224,-14.092873129256038,16.275866143159554,34.159316135843476,51.22261222301458,76.60061168747909,89.75054928073277,97.21155985228845,120.57621324646257,139.42364534765537,135.12171048636614,129.2747311830475,126.78491882139808,112.54053029362109,102.18176312601224,106.32637208699443,102.0351228239167,90.2646999026,89.2347768936055,80.93081191577362,53.686203112818596,32.98751298856055,20.360080746335456,-2.87966725485499,-21.392209953545287,-25.761594098707338,-39.68182296781834,-58.79850074715972,-60.13306298115976,-60.36788551414489,-73.06893407648428,-75.2656328827358,-68.67065303305279,-74.9021905956496,-77.03352024558629,-60.91073276534568,-49.15455032696819,-40.37703950834606,-13.967877538721357,13.084679280509619,26.642013320008978,45.75268747951048,64.42282126665728,61.571799372795184,57.039702286917525,67.63485077071508,73.49049018335458,74.04389539608621,81.34332049869037,73.16437274043265,43.43396489004416,27.806239444517033,29.454892750656484,21.822896648835382,12.990698064418368,10.965272116034841,-5.500002057319131,-27.234152242695476,-27.377682591205563,-25.62318702055074,-41.59315970695889,-52.09567807217128,-53.8559581594069,-65.1276006464816,-69.10922336271219,-55.002054280169475,-50.042878218231024,-55.11030330056859,-47.361887551746975,-39.1395936277134,-40.139864613088854,-28.111181491824333,-10.534714382562143,-13.846548122015388,-19.96692960436829,-10.092938517298219,-3.596319110142181,0.04403078963225655,17.307660384684706,27.31990657026006,15.822257507347034,7.915648699536119,5.794487530059805,-9.526080894314095,-20.69076707743137,-12.68353628223528,-9.065283167167506,-12.672884744000086,-4.633998752278359,-0.3181576661590919,-11.635804044000409,-15.44762936635317,-14.111846617233603,-28.577243191949005,-41.21854392261032,-41.227251859371016,-57.69819990951226,-94.02206635333283,-125.8842756356151,-155.14617326959794,-178.8749076221983,-170.41489385675376,-140.59373082811322,-124.48516516840748,-113.15953188496565,-88.77328995812177,-66.0855587696624,-42.78881699791467,-4.312178507954352,26.480856390279655,36.907486882219594,54.62356105120054,79.76209897653803,89.13497265910061,96.68893178641919,113.70808694094349,116.37134810515255,106.4250729483511,106.20638781283786,100.9034036775269,79.37808477753293,66.74105712687137,60.93542868228815,37.706088564996904,13.592476382903948,5.069510054015196,-10.512182843630463,-33.758157079927315,-41.8987213379625,-46.38586676401708,-57.839059068229744,-55.82205474958851,-47.33578375508107,-58.02183472645784,-69.89461386631662,-61.69930877802443,-50.268053377131324,-38.46075936976774,-15.360542592687777,-0.5503218280640119,-2.0801598489471886,7.219642982711099,27.44260153874869,35.62190662604594,41.92715030737922,58.066218282619815,67.35008816452002,73.43794965358117,91.47986114449489,99.90853282775726,86.61706424608384,78.95494908913741,80.04652156281081,69.31170415702343,56.840623870176856,50.044395452656474,28.402991242965946,0.10535848217092258,-8.816899851369081,-13.50896238531433,-28.982500708081893,-35.359254847794865,-36.70313496611925,-56.02811005620025,-77.23807623316058,-84.08618760068698,-94.25787739958217,-103.57143336359444,-92.19016723989543,-80.32956890920904,-85.5829720348014,-85.13041890734232,-75.17172919751948,-72.95332909372793,-63.038445120717455,-36.09639689995371,-18.598115920717177,-9.575323493982268,13.73793916091735,35.342239931267365,40.22542822422885,49.92984435372237,65.5685208102305,70.4545379813829,80.4833812298107,101.75815108497166,104.15268495050822,88.01818480648518,81.02168860335124,75.94243003477787,61.60203440625882,54.04990999052272,45.24286397364067,13.863833553854265,-17.99387212234372,-28.939281149128973,-37.970514593727174,-47.2094544393117,-40.69949128598168,-38.6210744800979,-57.0461803293052,-71.5326127721326,-78.45780746475232,-95.70608398751722,-107.20968103092119,-102.22396716109672,-104.67330311296935,-110.52732302146384,-94.18910485107081,-69.90339452580012,-54.27811534211852,-30.989445546058263,-5.061721854183046,4.014854874242323,15.973983954057239,44.929570556051814,65.88162098774743,77.37254689101894,99.16314070315727,114.41393696400391,109.04527930637059,106.274990975852,105.95266250008342,86.94569088546862,66.97235900366633,63.32047238427572,54.949342124779506,40.57181801422572,36.66841243976036,23.192280211521485,-11.040834005488373,-33.6071312223966,-37.25045790647974,-45.51422944582152,-53.62614232832364,-56.7196036227454,-75.59860187263305,-100.63774940635163,-104.0318734414393,-102.89644994300883,-116.69719961449391,-124.71059001481923,-122.88869184199888,-125.05961771494913,-112.75255368017702,-78.16812380598415,-51.82722066104138,-35.27847882105097,-4.912442166914223,25.839011940613556,43.74764967826557,70.50377553286964,103.23075489352817,118.4497119394822,130.7185866672583,151.4881562621246,154.99528469219518,141.94978410091878,138.4958782564997,134.97018053607817,118.99637268000072,109.77400283368098,104.43647853642233,83.27390240794651,65.15465266981872,65.50084639054691,59.90412692567354,44.0725355073897,34.32143166396533,15.50609596959926,-18.619663561144165,-38.21380535696769,-42.221656419107006,-53.93243366860092,-62.03873833255132,-58.02516207767157,-66.00788285942718,-82.6291801562373,-82.84131521927348,-78.2920339973888,-80.65050048836333,-69.59760039504138,-48.42458396066784,-39.389608165821,-28.9914477927359,-5.874101528246284,6.933250320555149,10.460168906538826,27.5372447569361,45.45166760697142,51.095362366292626,62.64891300203808,73.63726416805324,61.533068299876625,46.4124644655481,48.38844576881721,49.03544295809234,48.30949463584847,63.43272797664658,73.81612618128335,61.876877727840295,51.664270408257806,47.335233580542734,28.23328533569181,8.170587791438658,1.0752548559171715,-14.974026165402702,-37.900093925713755,-43.17687918383071,-45.19667349909767,-59.01982070647641,-62.24632443339929,-55.32357285417966,-61.600016246344715,-68.047938412065,-60.43460791309548,-56.52015779062298,-51.49898858658472,-26.638738812884544,-4.984237031113926,-5.629560138974172,-4.5394134166088715,4.795198101922369,5.498518049302419,9.618949657099854,25.453531981351656,30.0460618576812,27.75493145082647,43.391837220547735,58.77955153250188,50.93589388365811,37.52291948183404,24.17378426591069,-0.7200037367685361,-17.963171156257882,-17.896925608087354,-28.232735295779705,-48.49838037931322,-53.524177194951974,-54.09830959680282,-62.99648539405224,-64.20251677462988,-65.29371252491626,-86.18381591327002,-104.72904674877387,-101.68907213617942,-95.3675793866809,-84.73773314255969,-55.66071516688942,-32.777743220360364,-32.89291684523639,-30.21736900863963,-18.6295053787927,-13.688997601994993,-0.3208126643724487,29.021276442547798,45.29366462630065,47.05909827903709,58.7384542999394,67.41417307521745,58.381054136713864,52.8568438652186,49.32818218121357,27.654194433439013,10.0198374858127,16.600507068457073,22.948200452507365,21.689661948581797,27.617913537304045,22.944741943004566,-2.8802259330982025,-19.49871653318572,-22.7469680695928,-37.041457960375816,-51.913081317551736,-53.86644850711399,-62.19899668019065,-74.03679706156242,-67.10624799759843,-58.031182483802546,-64.72750435303467,-66.09616076406158,-58.3480003273192,-59.68411043928967,-53.98676675275956,-26.38648173708198,-3.0313229310012133,9.880392756585703,33.41540571812274,55.34607062202412,62.55086623322481,77.59106751189357,97.37346688218213,93.49437114300324,78.55191531060763,73.35504950563076,64.92248221671996,57.147406668578824,68.68800107001363,78.28951035289501,65.13070970676632,49.59751555376324,37.0956261186462,11.694849444850082,-10.979405144789848,-16.412333429515922,-26.18950039124289,-43.14704853555586,-49.042982779194425,-58.34826194352623,-81.95409066556859,-92.566404235118,-86.49426668675252,-88.87733934075689,-94.54407805826025,-94.54482817104225,-105.6360583490018,-116.60105078106581,-97.2370550986759,-63.18425496309783,-39.052780423669134,-12.566509159138498,14.140005377910224,22.730873078243608,32.172389347414196,57.74003264926422,74.09038702343379,78.02047910101452,90.66323248275232,97.90747194864954,88.68244102737432,90.51617641237762,103.1964359190541,99.77255421871664,92.29880953822754,93.90804567753331,82.63982453048808,62.66991863617405,58.1508694116531,51.55531028989551,27.510177800786902,11.866211579489878,6.843628716597319,-10.571663113679818,-27.41493366300461,-32.074292179063384,-48.24174144012598,-72.42660151374348,-78.41150445305831,-79.61374134838235,-90.00397984040794,-87.16803152455435,-73.09322727799321,-72.45115190494619,-70.34081349593626,-50.853352950283494,-36.06963247964542,-25.808631142018083,0.6692792796516063,25.213878675363357,31.624778382327328,42.78653287204769,59.323000202233274,59.36470998398289,58.002050030169656,70.96810286879368,77.87115310284467,80.33141282637494,100.1405076803392,118.45928898049826,114.74474970621522,108.7653022897511,103.59394234406255,82.31126388984995,62.565860975789064,58.15829600854018,44.2539892150415,21.120595319229974,15.63103406570843,16.493528438785848,6.0781867943873475,-0.6603311740140853,-8.336372877716142,-35.12072667079185,-56.557620441438075,-52.468457903427364,-49.489379104880236,-57.72638403350453,-60.94718571309397,-69.79488552709385,-88.87373533862434,-88.12291206241733,-66.59863633737044,-52.797155380138314,-39.447202710452174,-13.60943770204461,3.1575427462819974,10.206607786209226,30.590170322215478,50.66711451628163,54.02666217364644,60.58039712413935,69.70226073972327,61.3813786487585,55.21181789566515,68.87201571581754,76.34589310857442,68.72053365355868,62.51826428532704,47.21583002017236,18.845550683753114,7.761478220605058,13.564824902612187,6.0868861066497,-6.6334042842104655,-8.334379023291422,-16.378490809517714,-29.39411973592536,-28.12713347213115,-32.39345012058329,-58.243637543420924,-77.79914086130543,-83.73598499310602,-95.8135178806273,-103.55240428928352,-98.09870975418168,-102.11967098384011,-111.28462842638903,-99.1607565905154,-80.16052025990658,-73.72461763044011,-62.21163794202678,-44.99006139314704,-40.73190482031284,-32.98229391443769,-9.571351969758235,2.0059111772429956,-1.0325638440970577,5.280446638635584,9.625071318190255,0.7511283923285044,3.6701480978531498,17.9936999276259,17.660918937040435,12.722348563511513,15.267997121684784,4.349678489812919,-15.654008247803793,-17.365527965310854,-13.724555696259891,-24.969249313905046,-35.31504760899686,-41.496920337447804,-56.77524553365003,-63.03339798341948,-48.92175605844973,-44.66803961857026,-58.882901241369915,-66.2407530393759,-66.56770358255326,-66.19078714848135,-48.574669705899225,-24.910176999226483,-25.13036893224806,-32.6573876192508,-22.59157498341236,-9.007554559128833,6.983498343754526,40.39625888002597,69.76282725291277,77.02249550507901,85.13856479804014,97.379920669749,94.26067774169555,92.3880138799097,106.59666067007748,111.70997936577722,105.18219884547757,109.11854968424234,108.6313138577352,88.92248905854943,73.98719039972121,66.32460972033721,46.02590473549645,30.12827093194816,33.70760119137492,30.01579434738257,12.463473568813566,2.6984793952499366,-8.111704480020176,-30.31689505265631,-41.336075867182444,-42.11942819187294,-56.68793244063532,-70.0868407885649,-62.81853621879001,-55.62823216608446,-55.8970418682885,-47.23083385632477,-39.97117256452587,-40.65230441733004,-23.091799135375737,8.240706833345751,19.277960431070873,17.749153426592734,23.798645289742183,24.64867207252761,24.752724837744047,44.4757337815666,64.0539895767658,65.78904881238233,73.2153819675362,88.03357863218012,85.66437023964787,77.24476181186135,77.20253632809832,64.46993340811328,40.93124581438866,32.89179964644275,28.92044036170555,14.052163934432727,7.919922070293042,7.907717907288019,-9.822887392110927,-30.906811062668964,-38.34409656630801,-51.7874419191036,-72.30487927239899,-77.53883399910507,-77.93578069618177,-86.97671141771134,-84.47310958718785,-70.42532784251847,-68.74404568522776,-68.8217858138211,-54.92545380714762,-45.78024760310713,-42.98374823077505,-26.672992971231558,-10.618202085603004,-9.204457791981078,0.283600632415971,21.413379034820007,33.37558377459117,45.698620381064295,66.88674872237748,72.67130511530729,63.837162505393835,66.0530948993072,69.03358782586034,58.321511357275114,53.56379585876292,53.360884437566476,34.488584566145704,12.338361561472638,6.546534846059298,-0.3102280731508471,-8.71809109265423,0.1285129582501625,7.376220737766408,-7.2006106675958,-22.790653942090362,-34.05891830105185,-59.105534293116115,-81.31380836646439,-81.48611005745445,-79.16092916937231,-76.5725622384898,-55.64428357241687,-37.11062248321086,-41.26555904900352,-44.47769413736221,-39.796077780986494,-43.847679813836336,-38.566699177775426,-9.660627506037875,13.03924017662118,21.094426389119594,35.205153248856185,44.83940201405086,42.726358277311135,57.03130842333582,83.90203138452776,89.59273606235571,82.14471289466017,79.91835603543495,68.47379242278518,52.904096646543536,55.40947332000222,57.005079105920814,40.29770628870621,30.94157935473827,32.922863709321184,21.517122260240768,3.2388679173601327,-6.592779162982074,-7.271229579683302,11.1799884427208,44.38707759124995,67.82026069060313,72.3629074898062,60.53008388915121,39.04270702854372,19.318659098560147,5.918128136106416,-0.13978579492680798,4.585283780967511,24.669885592756177,52.97285817208616,63.445553391983175,50.5496087330729,41.15258627556465,39.65678851156311,30.318295535331757,23.759928602209058,25.30657335651369,12.64375781945644,-8.416660622706814,-13.532462376092536,-19.82665471563078,-43.30829805452823,-55.54411313400027,-49.295046916824916,-50.94439798463516,-55.726263652923905,-53.46504326851324,-67.60093914696637,-95.63237789195907,-105.3684628391112,-104.39619890087133,-111.26687933001712,-108.55740383624445,-95.74621603688824,-96.41776808309987,-99.88769225296173,-89.91071462024134,-83.32110776627165,-78.39737019685339,-51.912984899214955,-18.858810883242768,-3.4900492831270062,7.306747777015324,18.037493053695705,14.474000325105193,12.743529764398904,27.18790559836175,33.83235674332187,27.24419457535511,27.272918143905933,23.005528009664594,3.1882599642851623,-7.701250066193441,-5.857241079906178,-13.243900539366267,-19.895202447720244,-14.480298514355223,-21.29166448206169,-42.154752720307954,-51.64676088761517,-59.98131451056669,-85.15914205666891,-111.56365629907766,-137.09223216950312,-173.62373654569146,-196.05947008611528,-183.1243980892214,-162.167317030387,-151.0421098501365,-138.19689167599586,-131.04655282815577,-132.7588735433144,-116.97671590752256,-86.25659597126416,-68.84383021624058,-54.50438356913559,-27.053030947585064,-6.137310909986022,5.275178597934959,25.70563062673458,41.79085205837117,41.72068046767981,49.31120689100654,63.59561274471983,57.84083183443745,45.986504069212636,49.91149500773604,52.317874329276414,49.983033867924,59.749691157942635,62.29894113018621,41.51501546257805,26.96071826554063,28.23676298608068,22.275974488116145,16.23411778950874,21.416539451732028,14.98112551339591,-2.976162290670456,-6.213030491872936,-6.217422142965955,-19.635334065456416,-24.339258595513467,-16.015907422542142,-16.71726522620215,-16.715927213398157,-3.444630700806014,0.45527266584459736,-6.4275000297584555,1.0903535187785884,12.767973979699676,13.411070095614285,25.182095364789383,49.868154243687584,61.59480228618452,70.00057362467138,90.85189506921219,102.61286179424437,102.60548957077947,113.68138545854458,121.40487487123757,108.19365659050486,99.90464833703501,104.3173812431442,98.0010301331614,89.08162370719393,91.14396799603767,83.40855878280082,66.26866523331468,64.99772577353251,65.84767629722525,48.181832030544214,32.721195565024445,26.371307740594197,10.260726133094389,-1.9670364991908715,4.843327261138316,6.441412355194814,-1.5187511873484296,3.7662097051918675,9.988325666622563,0.21475020100539677,-4.241528639656645,0.3982730421409717,-8.084324979267254,-17.036744474761118,-6.5861878637553035,5.712845384565248,16.285705572109997,44.26199867435086,72.50391215334061,79.24603549997867,85.48111137927017,98.91360861450701,100.06828205491964,100.27173643198344,113.48037474401269,115.89178763385723,103.33907929848678,100.48644511006331,99.31059825973466,86.36428499740975,84.32469035773451,95.79635967889148,95.83912518262213,93.0989340024798,100.22049765611305,94.84957227704821,76.32256067941722,69.57638834588249,63.74959589918683,42.03301604030828,23.881336526999277,13.238442287154434,-8.17422967438443,-25.79872736692959,-24.335938745601297,-29.066596702192385,-48.32738111322808,-57.53532029511541,-58.61986894920896,-63.47282642556466,-56.22174102723651,-42.18977109895751,-49.27721376746071,-62.03260574658335,-54.75137050549215,-44.88623617896361,-41.27633664608939,-29.800564143794453,-24.1521955589333,-33.66061386679811,-30.58270080168756,-14.219941216393053,-14.388086048800675,-23.579649078043055,-24.403940072199646,-32.41929059469789,-44.933738180602774,-38.12292624099259,-26.956240222287985,-33.53157605007027,-42.54125413334888,-51.793367536663645,-78.09765784989969,-102.09390081210807,-104.21264765808309,-109.13043692163806,-126.06633904087364,-132.5718980222705,-134.08465912775816,-142.81194675934952,-139.72679311817063,-126.73210471740362,-129.06505776004656,-131.70186384042765,-112.74000191696462,-93.40461338106164,-82.93727534229404,-62.6993140596649,-42.43890979081472,-34.591229756492204,-15.911724500582494,14.984783841376437,30.116113091394567,36.84498108611957,50.79198223948551,52.59582038456269,42.80059552169498,47.84934945574483,57.09681741816968,52.0559868869007,50.15191199847606,51.86122995767408,35.25551893951828,16.334125516779835,16.07856029959963,13.357393663482311,0.20039618532556336,-4.498698761000413,-11.536515328759029,-34.06405324753717,-47.62414326816502,-48.74231946178312,-65.47132940351521,-88.60782795359546,-93.24520533942143,-90.85592089948008,-84.60923675363128,-58.96226546401792,-36.25516923368237,-41.197674140052264,-47.779281044965074,-39.4502540633766,-33.70259306185403,-23.086148954634496,4.776297551544875,26.108622551303963,34.643942530930346,52.67327426992288,70.37795192295225,71.52193587436949,78.1019504680909,96.13550069461974,101.90510825636699,101.84574090930944,109.4094270922037,104.48968538682253,86.10060324324665,78.91305138155788,72.36570348329406,50.18537076841672,35.001258246419255,33.40494534727545,23.36246765528619,12.556907188725537,13.409085872570525,2.697604398405013,-23.074833352257105,-37.24048951006092,-46.243355193473974,-65.56173848659385,-74.55948038338352,-69.21973826698343,-73.40304804357389,-77.48958050913433,-64.19003289962745,-53.399901873816724,-49.58557289547571,-31.721914067550067,-12.379825394627344,-9.531241222742915,-0.9214368405897635,22.85863489441315,41.17540106846131,59.38118254646535,88.24211118186577,103.69991806930632,99.98472597249079,102.30012555079576,105.0464899719383,93.11900995297675,86.21626997681562,88.92154220371691,79.33911345569959,67.16791587020326,67.39173171498271,58.850009436577764,39.99751219548706,36.645688159515515,37.680134429081846,22.81408572788,7.701231244796765,-7.016208151279107,-38.17923895924272,-62.646545056478594,-59.45755980879849,-56.29357010401019,-65.89689487417365,-70.16044610584024,-76.954774112277,-93.21859862910387,-90.96010865380241,-68.7661561425264,-56.650759683136506,-48.024157367886026,-26.19915204444922,-9.290876245247695,1.5373250744034168,28.588033831112707,56.641643938670775,62.173775153633784,62.21534101889035,64.97467643438804,54.35935760441219,43.67677863704572,50.21930193083943,52.2026118357101,42.689162380127016,43.86627747709085,46.542865407916196,33.243687983177175,23.340477114145365,22.310662176901218,7.8847064078398565,-11.2651612065112,-16.75758972088582,-24.115223248584652,-34.46203799105486,-27.455416987793754,-22.601393746251965,-45.46095237290686,-73.66226001433677,-91.42188236213326,-108.62020408792387,-109.203031734571,-82.50641317563024,-61.31555150483939,-58.62797046776444,-54.23270912911935,-55.22598756710715,-70.33902300209593,-70.65918230030815,-48.866648766170115,-31.88729918968735,-16.371430484896248,10.538582490707707,27.197123839933273,31.082232099421994,51.594311655512605,83.04657198877115,104.85995684687214,131.32888126645497,161.57369510722444,167.19180211449643,157.52693700279508,156.6751687500733,152.62446615823114,143.64526957078715,150.03569579166003,156.52505397524325,138.55269212136807,112.6078282197725,90.84510109691863,62.38955160618279,41.45642669375518,40.59545165553431,30.00433752310608,-1.3077486215721077,-25.28668551098251,-41.20465115015062,-61.547323320163684,-69.1029438787042,-65.8710529624554,-76.7766817674261,-85.49055043344862,-69.78638492367983,-54.371084966023176,-53.44944322381627,-50.44986284577053,-52.88278133540282,-68.60839454603722,-69.29793084943233,-49.52365837108307,-37.25725372440937,-27.590299428346256,-5.279243211538788,8.166674985141249,6.401894535641572,12.769231652300661,20.124636403214115,12.72728300064444,9.498214007486883,13.161909411564725,0.2646642712667848,-17.178147226226514,-18.103039334117227,-22.31933862102077,-38.46348996297934,-45.563486467421946,-51.28596038377876,-71.8528948368868,-88.31553104652696,-95.95410614067549,-116.24336816980423,-135.83437366923968,-132.99859907513428,-129.47250103380898,-137.06724574613273,-136.84720135481578,-136.54600261629466,-148.79281142026508,-149.5091477678153,-132.6340603844563,-123.17713576558711,-114.64237625967236,-90.58604871870126,-70.06373747657872,-57.982430905594846,-33.56627058627498,-10.036808851817776,-7.691534097044017,-4.428096372852933,11.646159822848755,21.99497846785149,33.45670179613581,57.2380089044443,67.79021709026736,58.07485012429587,54.54514181894316,51.92531739563968,33.16418560048547,20.51548665564303,23.77187767550471,19.05345399601202,10.276491770988496,10.47233721064835,-3.2301566090049194,-33.66915959779972,-48.48188824493326,-51.03641486275582,-63.78905414653641,-73.70338184290738,-76.60086599833684,-92.67935223460591,-106.8831433261468,-95.93360090229588,-81.94483863076366,-77.59665229135389,-62.255111998478114,-42.86731259216441,-35.57094116391325,-20.443073303842883,5.797729808104229,17.498236439224325,24.492049375826376,47.416689258655154,66.79059037968752,74.36506199575828,91.94339353187631,110.67951584640124,110.22790486360562,108.23109296499896,111.11081567667159,96.86515334977344,77.50457596175298,75.21176290357455,69.54893339781611,51.00310335284851,42.384691978703906,37.83867666096178,20.894654182005667,10.443999617217715,11.111129792528386,-1.819705194378769,-20.18928096010246,-23.766307699453563,-30.547548015956927,-47.48782288912785,-53.385910317385665,-58.323947719596354,-78.70212797424466,-89.54954266902263,-81.56290788663952,-79.20259907923632,-77.25354411882276,-62.084063822099566,-55.47731610783455,-58.67301726209822,-42.21711189053083,-14.948303027575573,0.2544440561195651,19.378818311405432,46.962319470881866,60.139068234636994,70.25454424146179,98.28590172944892,123.21241368873957,135.1820323349125,155.08783936939625,172.95966146009408,170.09910541689334,168.25300492556022,176.847332065503,174.0065018716853,165.85448419838752,165.4468456938306,148.66764348466506,108.84258027154928,73.4536659643503,41.064998413877255,-1.0792962265705146,-30.851707655034033,-39.80059147416014,-50.43635092755324,-56.76169548999668,-42.92065784430625,-32.40494062634792,-37.46624996319502,-36.30206023682194,-34.620808643446225,-48.91507677813777,-56.13189629819192,-45.367867287492516,-40.11094279001773,-35.348717006512636,-14.299390266225382,2.7135469543468704,8.729254841782021,26.669563286551526,46.13551413287217,46.50847686021281,49.04319153468223,64.59198262903593,71.84525548407129,75.8120697903998,89.20716904845739,89.36162951120224,70.6665360422733,60.007911130851525,54.271246132814696,38.011936403975504,30.747291048359536,38.66228386112325,35.210985498657664,21.750476403063452,14.08335050627361,-3.735239647744682,-32.7250648145822,-43.99167995690102,-43.780515093715515,-54.29857855879936,-59.47468764262432,-52.7560653004863,-57.16020742562112,-65.31528760014233,-60.024780815077676,-61.49499664871532,-73.55505477351196,-68.42186846390763,-52.965738102642604,-47.43644120416279,-35.17618715817447,-12.024351371783531,-1.052921132891647,7.977862941379581,34.457991052383434,55.870605428198516,61.13803964816841,73.10037795402044,85.5044274524719,80.47067817542379,79.18486593279127,88.95656846266961,82.02952060635425,63.83420096791062,58.65332724565977,54.13874035226016,44.38591722359977,48.8650959453688,53.77584824538318,34.674878078823696,11.530748158932228,-1.4195699133384903,-21.831979315631383,-40.484533056001894,-38.835736682252296,-38.328599482980835,-48.91214525430479,-49.05981440559145,-47.42855327263213,-61.94007232005453,-70.17818596246302,-63.0692297952605,-65.05183838381146,-69.10349696256219,-54.90538612557432,-42.40586390541385,-42.12824929733692,-31.90842833514371,-17.41650468522759,-14.950860936809951,-3.489009817315117,22.59929405621319,34.094412160351986,34.608334286435564,45.95060906873982,52.63976794752684,46.50927448597898,50.30611917181386,58.96485876363805,54.019898725642975,52.870581456083926,61.07386521715958,51.364424245675394,29.083041713812758,19.314316455517726,10.309869371520069,-5.421585202731034,-8.550223537022678,-9.4787534723323,-28.89320811913931,-46.06760292868078,-49.64013349155027,-61.94667636939626,-78.17827915345072,-80.59002486550551,-85.39023882233462,-95.0772340509748,-83.89433880902908,-63.469226256854185,-61.92810541720055,-64.87352168820259,-60.595034321301384,-65.13713579165945,-67.54602159508686,-50.07578830312534,-35.72143311243886,-32.861674157950674,-13.74908044688479,14.839937097861965,24.52181046428105,25.968307515986346,29.414397889840295,21.235755154916426,17.202385958394316,38.61600932345087,59.544521767898345,61.837076285609974,65.96641656442823,69.43483602673365,55.534631177188054,42.747172689526714,41.27993344005951,32.28807253352996,23.763598864382125,31.934808194460537,33.36621087305339,15.543657563483578,1.6827080367362643,-9.833013639581228,-34.464331288456336,-51.782010462447985,-51.40525624467227,-56.23911156449103,-62.757021174655584,-56.146838153160346,-57.930449715896245,-74.03213619573785,-75.0566189451864,-63.84404166575542,-61.65184802836586,-54.10350381933692,-34.42520575346199,-24.055429926715178,-15.733132247704248,8.300052570158211,26.83131780080232,29.301048920842774,39.66294056853357,53.605356504896804,50.63872342362541,47.023507303559796,51.48863947882657,42.88769009417628,30.02536247794901,34.528526588769246,37.70539546807254,27.794479131430354,24.304179681733636,19.93609447956756,-3.243188488122712,-23.61212257271796,-29.58053096607503,-44.58735699051632,-63.40518094433951,-64.38760051680862,-64.94073871732827,-75.4797385857867,-73.95349554762241,-67.54895688811268,-77.34507728914646,-84.2557472582393,-77.71700644571283,-80.60727469816888,-85.30492832287166,-68.25341522752608,-48.21360701740048,-40.25778802891575,-25.7579503858645,-9.883505285144578,-8.324361827556462,0.37703373541922014,22.86233614346319,30.63456275414144,29.500805578631052,45.38044247966531,63.599480679451304,69.54980489218694,77.18728731312063,77.88047737171263,57.26116549518225,43.30363056211458,51.72576910640294,55.6626563866311,51.6698098759054,55.51722476033843,50.797580539854614,30.215585318563342,17.74325937923113,9.114158709337813,-14.615323150550338,-34.69093692838871,-38.718135964876176,-47.00212118465741,-57.30574550226348,-55.17438420515417,-59.39056823597551,-76.65513493965011,-80.79855191402474,-75.10066610844542,-79.63558730197828,-78.61436236544846,-63.73459119462005,-55.94206648952899,-48.42552262839073,-23.857838805809735,-2.229687836455979,7.941638114833586,29.99931590818078,57.93668945540425,70.30545865968361,82.00252297974583,102.4688748230287,110.89648124114865,110.45562595373686,118.149671667018,117.57370551302412,99.88314288116673,86.90199954343308,75.32566669026221,47.996254481588494,24.53956857330268,19.00830233976066,11.414899375489465,2.3258512475949993,5.033558044879827,-0.8696305882621886,-24.75188601627484,-41.617996492291226,-53.3004852001833,-75.84045748085462,-87.95601104747875,-80.09691510300419,-79.24664602735281,-83.89392586461696,-74.31616748743618,-65.9533531339338,-65.92563465712489,-50.97595232746508,-29.790970498187193,-28.14766653174305,-31.104296523851968,-25.370569476510525,-27.103659918507503,-26.456879484512328,-1.3308534057006458,28.73388379029003,46.08902217581918,65.49970738104717,79.91563385639081,71.57281756856663,62.57860914071098,67.94397629474842,66.65690102695564,62.278526644393075,72.31328327244681,74.58002801586981,56.47828341978526,43.6629962948111,34.15850437435443,