42.61160980696899,44.43384628479078,58.30714918742164,57.16906050493081,50.111029705609354,57.40822810698623,58.57528187332716,47.0939481497758,47.31328942446031,50.33134494479141,37.91872054091622,32.432509133901355,41.330916004870396,39.87637158782685,36.0672031353222,47.19226024216039,50.64894514080481,40.12839952380138,40.84379788042089,44.06480403235308,32.24548891327054,27.649513955077374,35.729091536464196,30.825147119243844,22.424603066194138,30.320779596643835,33.89750306797075,26.25773577506716,29.40412666236961,31.061989568238026,12.575167094556477,0.19262814063952582,5.652342334659127,4.8922112172673256,3.1995761825748925,14.871406544626465,17.31370733627039,7.024605406808419,10.92613794880376,18.40858425730624,8.290853310530112,1.2667741053603134,4.917605575654435,-1.7157544049291054,-6.54306034218434,6.205447398611704,10.352199170161681,-1.343278856133578,-3.792043812797198,-4.651854353421564,-18.317892733317915,-20.980996415528903,-9.033103612079685,-10.214616540142124,-15.95728873851021,-8.063877020419945,-7.42904964298037,-17.362240215112124,-12.185161005029913,-3.5449471955093554,-11.573016299871783,-14.873083030968731,-8.53481949393435,-16.531029907756693,-25.352949469430925,-14.971097154515526,-9.507177346754233,-16.90192191964857,-13.74263345463692,-10.187822422050427,-22.000902659525913,-24.058990923032958,-10.972410918135267,-10.302755913882416,-14.767129660464075,-6.972716018861948,-7.238420534809119,-18.254667088176465,-13.342461941222004,-2.7934756947519146,-7.955736657851839,-9.733369708202133,-2.287806177024576,-8.63682304026648,-17.005319435503978,-7.524797077747208,-2.932297358157198,-10.766537670503649,-6.014149375465012,2.4459201081783712,-5.290578179456295,-9.46707895519285,-3.640804853652712,-10.055026432391179,-16.69729841914822,-4.464450070791648,1.8929590059879984,-7.598431053025433,-8.326901803169998,-6.501931011729396,-17.83448133382584,-21.148085288506437,-14.097594584797976,-23.176183426169818,-35.25673877440983,-27.212669775017638,-20.608856663134265,-24.9052681708847,-19.002584522232723,-14.219350180846323,-27.79566102872708,-34.75779331772141,-27.558699545987636,-31.536778608151238,-36.781572594922494,-23.408867082849326,-14.08906598140868,-18.30557322831428,-13.955025891763817,-10.410892080113339,-23.91231634628623,-29.12982092783446,-17.74010153994132,-16.479103514039373,-19.575529682531112,-9.208545458572704,-5.802909193262956,-14.815435319608628,-11.233604790515196,-4.770768358864101,-14.652823318312784,-18.300575453493536,-7.563231740549903,-6.695615839954959,-8.369557984735607,3.4539451939193073,5.965906780301694,-6.594239026901368,-8.132483457744634,-6.97778608714245,-21.337922369610535,-29.51818885737965,-25.55385591159121,-32.765104188195345,-39.292305451905584,-26.902324336472244,-20.517095078667783,-29.318220624583766,-30.26357384581698,-32.624480680462995,-52.09238197459844,-62.85549865712492,-56.70050295465974,-56.58457540948942,-47.95004480361048,-8.029126637562731,38.42707697341322,75.470823188739,115.37581287213851,139.8732279918011,130.7181184404369,118.06546777031718,118.20296119198031,111.77299549693274,106.33322411299183,115.8266822215827,116.5790649482511,101.92131175512102,95.2742861587013,86.29147892478724,55.876396831747954,26.072860400880547,7.276588380358531,-18.397087069764495,-38.059727077466974,-34.282594923230576,-31.81924198954431,-40.01926400293605,-36.078881988921296,-30.366282821457283,-42.73513922980035,-51.49627347175969,-48.47015483891641,-57.34434837195035,-69.28238059120571,-65.45244153862973,-67.83021011036786,-84.1356132852659,-90.09839644347171,-96.86170030285521,-122.32984560652407,-127.95483866623863,-82.52937849908751,-5.796608059308614,89.87144448031387,187.74326213614484,230.45642975006433,201.41890927407533,155.6014111778589,121.8107200929132,93.41456375791374,88.34998322850616,103.26224726299327,92.20475605834494,53.47769977698324,20.431580310790395,-19.505092001267922,-79.02254321766671,-126.30172349655786,-156.42142028282453,-186.90551168281235,-188.44083850389018,-139.95310778206917,-75.97559880672807,-4.967245726401693,92.55732689998999,180.02948566045706,214.72306652455185,215.37343501357813,196.40176670611834,158.96352717462213,147.84341406424383,181.55649273306682,202.99748985670544,186.53586533231234,163.37357292605327,131.7444726174832,81.80924051337504,44.172160834001126,20.3700132829859,-18.469991787094884,-51.94337613372048,-55.61954648675645,-58.50466084123471,-69.24267938683049,-63.34443815044109,-58.643252425024315,-78.27391396923008,-96.65038265256504,-106.43374728147472,-130.12653793906946,-151.2765458857339,-151.4694363940688,-157.2601290615258,-171.6846116139057,-163.17882158900164,-140.51485988446333,-132.88452152808213,-131.18974781630442,-125.41536295504514,-124.53509851700615,-106.61654964966087,-51.16567388625268,1.8235654889609467,16.914035611827657,8.347126414488502,-15.242545325634095,-48.09657628243727,-62.419072794482084,-59.920662065369946,-69.12516752298689,-82.75489300553332,-87.81125154647421,-104.23408482188302,-132.32018791016452,-149.6337558414472,-164.6943244759808,-187.31130062442674,-197.43227624093507,-195.67752440591352,-201.18181268650167,-202.6081967828161,-194.76698336312512,-205.16701898475281,-232.34805956665207,-247.48383943372886,-253.56787518990373,-257.82716563926755,-243.45098437060733,-217.40624728995232,-203.09345642886387,-192.88760232597014,-181.3294967626182,-185.47523532160176,-193.08501141880427,-175.39500893464628,-142.7103701413113,-112.30170310925081,-75.87726926828662,-38.18761832415102,-9.150107081159025,31.11775277855594,88.89198354331,136.54394621238967,169.04534141588212,201.2138072546108,225.79291975257436,241.61275196484692,264.30540191079865,281.3946378300701,273.5061751433778,259.99145955667734,259.805655683539,262.9443949801652,265.5902323624322,264.05366597100374,234.8668683146276,180.79076510016904,141.84667983081812,134.2614690904361,148.10826236946792,183.56043069508448,225.61623141176221,241.24102794726704,231.05728153332296,214.49767742915392,187.39523407495733,154.79000992985175,141.48036744269243,141.02945480028623,132.5099848042705,127.74907437448698,133.45649164418361,129.56712659340508,119.7318558095628,120.04264496308531,112.75006687906408,86.96564053521797,64.95316482049586,47.773533551532346,21.00834175781353,2.1150733600150504,-0.07434531724612792,-10.828258284327312,-28.40939502785989,-28.366603750955328,-20.350045981154366,-14.0613837677801,10.150497606388736,46.70741408480243,70.81685439956598,90.53276136437887,108.67047809707903,98.2372357214631,65.2847186313006,43.15816886695588,29.986643234560802,16.56341552144535,16.43751446414747,21.42170258983208,13.631185274472255,12.817649308704173,33.216135236407474,53.210523686636044,71.0855512832282,103.5129284469462,135.89272072438598,155.54993766501494,176.9332097627834,190.99491046557222,176.97084666218387,152.9723584194667,134.65143399770568,105.71965864549264,68.37404177860978,36.335060932361415,-4.803468059050848,-56.01555188590135,-86.73435434469297,-91.77456891437856,-87.03343535703405,-67.68083825802186,-38.72407154148827,-27.259048833102774,-32.22638791959126,-36.95567213673057,-52.26119421425284,-80.6913504923852,-98.36960179344274,-104.70737823943055,-113.2356043625088,-110.31446927990474,-90.51482021360849,-75.84006103812423,-68.59128937276185,-59.55433908816518,-65.88169808727939,-94.59264026524235,-122.41044706470856,-144.4370797380676,-171.14006031473681,-187.54513068472855,-181.81765579672248,-167.54106606950214,-141.66303775802763,-93.8465667806293,-52.6760024442614,-46.388941542425826,-63.228492285706544,-94.2945071222638,-138.358083071259,-169.24578391193648,-175.70476259161464,-183.34996242896136,-195.87016111208476,-194.37478227049252,-187.63662117600938,-186.0347104867614,-175.83924791387335,-161.81775346900085,-159.54604096914295,-151.79249343407702,-127.49346138627806,-109.8423005531555,-101.48142531904205,-85.71718106715693,-74.96868397154302,-77.38066823805258,-71.72002032197135,-59.533378783817405,-58.70134253675179,-53.99864967996422,-33.90242677428715,-19.963427644821063,-13.687405724760369,1.8559973360163458,13.405345442794733,11.041370783225588,14.923421545432065,23.488457637331045,18.216139382973395,12.978107346671873,20.17668001427093,21.916921886970407,18.775299200185497,25.765964258207077,25.951934793219465,7.675069422106346,-6.204961096805388,-11.778898857387503,-23.42539187819635,-27.139027568144723,-15.186622560684903,-10.595591649094093,-11.963906738781692,0.8327908421804269,13.894946159506539,13.831104238551752,18.310331898441216,26.11732829172281,20.549952591127447,17.475791788784775,29.97858732505768,38.383932576175326,41.89652572992697,57.30044127823912,69.67423968249845,65.74409425184867,64.90924269553093,69.73866860510475,65.92601479641115,66.49271346975647,79.35606016301439,83.84214405123937,80.56197995195465,87.07083095604351,92.6311232621541,87.7739262387042,86.31391992470867,83.40715026418172,67.34979315574932,58.5917177256289,69.88874394442847,82.45319485455897,91.08228486203517,100.76517135256768,95.92738091924969,75.79874590500395,66.18609419114034,67.11029301379773,61.43332930836449,58.94836594166709,65.11103130792768,61.66258664097465,52.32823893495211,53.32500043608443,52.07943286131155,42.26093354146491,43.70194748939514,53.15066160836709,52.916573721585365,54.96050391572729,66.75040563960748,70.06487401428441,67.72263037971072,74.91416020141503,78.20451515270219,69.70707264691256,66.93527742750125,66.7130194564854,53.931346876399054,42.827103298173746,43.382605793514706,38.96741243346664,31.531422502828605,35.50056727970336,36.226192718437936,23.814638653840014,16.895993619305155,14.558465813458788,1.4085281395292082,-7.862655280515724,-2.4153350257998296,-1.168907263673554,-4.01619213077874,4.483604600302552,10.048893898453624,1.638376529936303,-2.1990639649288655,-1.1445110987658993,-10.53862773942364,-17.12261235792181,-11.327291372124272,-13.188883395200834,-23.020519359684723,-23.313425841882445,-24.686023072494258,-35.98973112756777,-39.122196497377885,-34.95787394682094,-38.79733767489581,-36.568677321167385,-17.527104659814373,-0.3499146576793013,14.235116605583674,42.47054074191948,73.73760674033626,97.7681461205228,127.89687741773935,156.4776484138701,161.72239882342387,155.39629733001615,151.52704484736574,137.65235840754056,117.72438258207653,107.23210603528842,92.15039840440983,62.61746130598068,37.32089026427772,15.9865842837447,-17.429337905343758,-50.093159049498965,-70.97194140891104,-96.81388854696783,-126.76764861237112,-145.1012884417729,-162.65790776854703,-185.93624392620765,-194.0125640403906,-185.62756892156287,-177.43573861420325,-161.28154430813544,-132.3169990777385,-111.2052979416847,-98.59465642387508,-79.03808374700586,-63.39075101064637,-59.526102286390554,-49.98385399177843,-36.581436354510515,-36.106203923500466,-38.40994236219845,-35.847220587834514,-45.858714779483265,-65.45953481513756,-75.0124415406087,-83.31619234901177,-100.17421575516106,-110.16561798088387,-115.35688055120048,-132.13670518948052,-146.56922601067478,-145.02554359780518,-144.41672432842495,-146.11995770502347,-133.81704116244833,-118.9940132794975,-112.42013441536572,-95.42820708550076,-68.6761749923586,-53.31199341837363,-40.3305696197294,-17.396424514238216,-1.8894094478348487,4.557792023427582,18.383458937519368,27.023490828777724,19.186744633437403,16.54062141858718,23.366025976333887,21.240869838694252,17.70844470103865,21.228187463532258,12.304576026346105,-8.547620097560204,-19.528911401668573,-27.54897489225575,-42.266765903853404,-46.82538009415978,-43.78246335013436,-54.40066512631117,-69.90276889569523,-78.69010425141451,-96.84226478413373,-122.44356054066238,-133.25042553796973,-134.03472114214745,-131.94742244136143,-109.12137192363762,-68.15220571708862,-31.14712729576933,8.901435290966674,61.236533106850466,106.19825101772064,139.48753445597055,175.15995234471308,201.68291517079024,209.54671136416388,219.0700788509296,232.10056931231452,228.96678930203228,217.79561420445447,210.43061049802947,190.89528172062813,159.73673382061304,136.39949616091127,111.26262108095295,73.36080089297471,42.985819954786955,24.480129454291685,0.6732567315440114,-20.91713078481415,-32.452218572678525,-52.903244568517785,-82.46757665566531,-101.9901628163345,-120.36440240180016,-149.0476017219782,-170.74766440243636,-180.16298966818994,-186.619620499545,-174.3982936217713,-133.80707858673395,-90.09998321093241,-54.13156614936405,-14.041971812312237,22.235385153496125,48.58432223116937,83.08844849549074,123.42185361543847,148.29012393218332,164.7467023525188,183.90838819635078,191.82365351894046,189.45347251674465,192.34172249164797,188.8751015828756,168.3389476385388,148.625307099237,132.5080282762479,105.51365754039466,78.6008074577459,62.51405221127898,41.16300613391019,14.743163900849368,-0.4756365617527505,-16.9237875531635,-48.04378609645008,-77.92597643910523,-103.88768079704877,-136.28918033639414,-155.35453669198586,-143.7986125723695,-118.61216886492554,-86.61893543647172,-41.94341050494692,-3.5193201507654823,18.74081433672617,47.929835095967405,88.1060718715151,121.24914620248146,152.25880018750465,185.56317462820329,202.78149467844185,205.96141612237352,212.75867868155632,211.79358648085915,191.12645914987877,165.6277839915476,135.58519302564554,87.81964658326264,37.57899681093726,0.6507143183649324,-35.34857224148255,-68.89121838588665,-84.07270904968736,-95.08429508222162,-118.15059756239728,-140.10970536572364,-161.07620039543866,-195.31490625077475,-226.74075269765086,-238.60020508096886,-244.86190987515744,-245.15117051353616,-222.3550968471227,-188.24147335350213,-157.1709336886505,-116.88832328108211,-70.51897517446716,-35.83477197308942,-2.3093117493040722,39.73130565154529,71.05317515368088,89.00661603429367,110.26299194548281,126.54359711175276,128.70816111094652,133.15975035339244,138.81704806417818,127.71935839722111,110.93827297630892,101.69702438626058,84.429721577812,57.533972601327186,37.33535024709986,15.492638044530306,-15.936790908645726,-37.42505369081956,-47.850532005987546,-67.58301340892466,-91.06614638771619,-109.14329347122656,-136.59487923208297,-169.58445409751897,-185.72074032644343,-189.7748099199378,-189.62042142894063,-169.42117767478086,-133.09181597999043,-104.485773143426,-79.02775929442603,-45.85761083467854,-17.445904062975828,9.605974563856126,52.56383706435468,96.60986589766497,123.61337983651107,146.60172325569548,167.74314082016355,172.72590713558102,172.98053724218144,180.11479462489527,177.1814930989,163.16969306130085,155.90709832906117,145.38718128671368,118.54125366945505,91.92973052822109,70.8435922692236,43.596026042490095,21.880958610168662,14.985222174962228,1.6703678906529005,-23.922935651275115,-45.39684170638424,-69.2784718573011,-102.98918117915593,-124.9676570083748,-129.7106641631163,-133.5062920084908,-126.93725505863682,-99.72418231264336,-72.41646435565795,-49.295135568073206,-13.35011652800551,25.106683199203,52.76518242940824,84.94732329869773,121.251638402267,141.55127626901728,153.2365062703086,167.7393345890551,169.3778036512127,157.9086659200878,152.38184328683954,144.70677622139274,122.89411623082718,102.68211152813203,85.86942228442257,56.25740721178423,24.81043578495367,5.378474424159835,-16.652317518083112,-42.29794308609784,-56.09937660732571,-71.33314889018237,-102.48729876782494,-131.48934276332477,-150.92963043811665,-171.20727971161915,-178.95544665820367,-163.29328715222172,-145.02357939928285,-129.79247513645558,-102.27481735538149,-72.70059275631606,-53.734944959384904,-30.184515908466878,-1.8238694377341709,12.963078444097523,23.010933962697866,40.682901075156686,50.40190459663562,50.83336838866377,59.94013687638443,69.05036059538484,64.98723308775925,61.36591079145121,58.086076954809414,38.90442498139572,16.86893985539804,7.70258493336185,-3.81842350854303,-21.275202429010914,-30.50271895772351,-42.33570752814236,-67.2549092330796,-87.05499580392559,-101.08683499159872,-128.17399867818506,-156.5604867242094,-168.13333782585207,-172.41311219083235,-167.61150472875747,-138.96211778421184,-102.07357931348224,-74.44276566958254,-41.442953414185666,-0.02317439116165687,32.200728790071565,60.41929155363029,92.92562153631656,112.98033476871974,119.05392145968949,128.74373425207676,134.7458262373319,125.96187905635779,117.75250443644447,112.36702121500677,93.26548341816809,68.69956869544362,50.887368582338574,25.9166225459267,-6.381583309409762,-28.101389021949203,-47.65432845783092,-76.62574609562681,-97.37249622904994,-105.74504371846214,-119.58879075269603,-132.71713588804903,-135.32738455855218,-145.0512694931008,-162.2359785199393,-163.16666462853635,-150.17802248858214,-133.16652604793023,-97.44636509673245,-43.40410488901394,9.841082299945663,68.96236715685555,140.97255297680655,201.64404856925978,241.28903699736622,276.51776655179594,306.92829999643703,328.7105204638727,356.1406355625988,380.872950549832,375.7936241670796,349.0749076652504,322.0876776095836,289.27722837938376,251.62107583416005,222.6357950356114,190.20871494847637,143.9280475516967,104.54221920128046,77.19193130798034,44.594403299200565,14.887169582981608,0.21402959350783246,-17.132793307396746,-43.66679019815027,-65.42872566738053,-90.295050840638,-125.78332207904919,-150.23127397447183,-159.6298664100973,-173.69203676805523,-184.3328579220303,-175.88181147802777,-161.65943790422665,-146.2957647892979,-118.6420012757585,-92.70967077211576,-82.51520019018996,-72.35236062735012,-62.63498020437409,-73.85570623470812,-95.34466890320907,-106.6524925267118,-114.5826915420356,-120.53479779555155,-118.44370564287476,-130.4667966587244,-172.28770969175142,-218.9539433089614,-253.59467422748537,-283.8258861037405,-301.9656181166669,-303.00089125626374,-309.2344579011907,-325.2216737182089,-331.5735005412343,-333.7187168922709,-344.0933628004006,-349.4323089526409,-348.870411271937,-359.4834282898448,-370.9037032527395,-366.08445917026125,-356.1467442814061,-343.04470888641964,-311.39358581672514,-270.9792072378016,-236.2720850265551,-194.55169482642674,-144.83675099322596,-104.40523631529594,-65.65072860959532,-17.775491883037837,21.63580456552866,47.331518728612394,73.86681672922016,92.54121252450292,93.49462924174642,96.07251921272344,105.37730610332304,105.04746349568447,102.17744383933059,105.68640829935705,96.60752267991342,72.56192512072505,55.424763747619444,43.22779288761697,25.90074951922319,15.884483862355026,11.033826019944549,-8.7688551245179,-33.682548607131665,-45.18435103063953,-55.3256422280632,-69.92352482217684,-76.51783082617499,-83.95867816170013,-100.70280847247217,-104.99548566067166,-89.23985778586253,-69.7605232143502,-41.44084849659599,4.823703397056434,51.18491205220048,91.25105870414036,138.10847167032261,182.83638496148254,213.50082486389678,244.2999212710956,276.0182823186941,288.66531895265905,287.1686697431107,285.78029068318796,275.3064408198181,256.59787419826625,246.92462219315593,238.362247213695,216.76724903337157,195.18571460408896,177.8867457546474,150.79119229678824,123.82124944603345,112.05209727648847,101.20127989148492,85.58288980862574,79.29204295257723,73.85317084111381,56.69865559184008,43.8913271263049,39.82083680529399,26.765790374237675,11.57429274163577,9.51052115152879,9.919849903318726,13.229066304509734,37.94887451676612,74.22614307604674,104.51635007517052,140.88816145329696,186.87952953636105,226.59168933235247,266.4313544770259,314.7195669192661,350.25825057529494,365.0131098179987,375.6144361250067,378.019911342944,362.58191161543294,345.92964204756635,332.83091351875225,306.40487601634413,274.0057126553553,251.2342512512265,226.46769365482902,197.1505811917256,179.74506073043597,164.97873690393573,136.702275451594,109.7714737672207,91.88605783682925,67.56525379640644,40.17281050049684,18.858622952446495,-10.861634703786848,-47.39041385571081,-65.23085618167191,-66.37320607612473,-66.42460377076524,-54.856935332839186,-26.86970817009432,3.0161939757415093,38.18651326684105,83.06147073184462,115.97482322564221,131.78233487858287,151.5354937399802,172.37862198589525,178.60357998410174,178.4809887942159,174.82469944277543,155.88056127242152,133.4775878339903,121.18780750457111,101.29806161202418,67.58499747985712,39.93605574813693,17.87812208687757,-9.121751999545022,-29.099973257561167,-41.161179313156865,-64.20752914667341,-91.44023318497612,-105.8661524282759,-119.70262625509457,-140.385897949098,-153.3014938590025,-164.20760565813453,-187.57035704419778,-208.39592914760323,-216.4729120390954,-225.48118661420773,-229.2292412666542,-211.4107356889695,-186.04750060943027,-164.18186564546832,-132.39887886469432,-95.48036719104738,-68.38832124503338,-39.10351963217307,-1.9465326789786985,24.11392295633726,40.20957265406894,60.27236520310338,71.80757536593578,67.01337265612008,62.25471390852253,54.03253644912603,27.21355471798286,-3.8062123360634352,-27.72967893201526,-58.74663744275534,-91.96213240919099,-109.71173437754746,-123.43160859857448,-141.39096887721809,-145.33892431633495,-138.50238403372637,-142.74984737115037,-151.7291088071001,-156.8606208515681,-172.11475194112316,-191.448983127659,-195.2456340031912,-194.58981345634646,-198.43363551393313,-186.6724220724291,-157.92541592939594,-129.99888537151872,-95.73747891185437,-49.6806337712313,-11.860981701328031,18.422755125446184,59.3028346969556,97.20865252669402,115.79148061870119,129.55417937487846,138.68549167688226,126.1725651435676,106.86708638443218,98.11591866196966,81.38656013316597,50.05539356208651,21.763817280597216,-9.362474260460427,-51.21163696433693,-81.12412167496758,-95.25123353773432,-117.54617236862248,-143.29841744269288,-157.0230598535608,-172.9884497186137,-195.03162877196453,-205.718371945831,-214.5368777746234,-236.61460964699376,-254.6330045316152,-263.0591343548331,-279.92848875980224,-296.26537619343657,-295.76231425810914,-292.63499311703214,-290.22037639583954,-271.7537537443577,-247.36905049187368,-231.862457138292,-208.87840056092884,-174.22383001652383,-146.77434966214108,-120.54634859384763,-84.79496371616665,-60.15147245916716,-52.71478374952065,-41.55923520400281,-32.35531986374735,-39.26913470354516,-44.59601770000326,-42.9551012093666,-53.890820608988165,-68.41942199296783,-68.58739137340876,-70.42305455423451,-80.39384219824078,-79.44559900922525,-74.26244386053425,-80.46727486085064,-82.29557255050113,-75.06109014633856,-80.25056965253775,-93.46763277864623,-99.16185109652416,-110.89812334410533,-130.2476194069694,-133.36486336148454,-124.5248729921475,-120.20899758839059,-106.99146066930365,-82.35947897572272,-67.26212114324133,-53.59843193093456,-23.88522455155955,6.185980167205947,29.846263702043952,63.30200592014791,96.39916593617713,111.85334963344067,125.59348274290706,143.73712435408717,146.81091244547883,141.04129922720276,142.98429731283179,138.5262759299416,123.72954165535475,119.22877315247791,117.4235951623425,99.19944011567617,79.04707281656869,63.84313875034354,35.678671993898575,4.836013808661424,-7.8435440312998725,-15.824445547324332,-25.051176829887346,-19.136580045454217,-10.261703300852965,-17.2198278244437,-21.29684246427308,-11.554740929732544,-1.8600319253852422,18.158345239715885,61.26417431878928,105.13610433205871,140.70444460338626,184.3219873670048,227.10057096154867,255.1216173684422,284.33447300640074,315.7871180338685,327.3773062690789,326.33520884358546,329.40179496060057,324.60227581191384,312.87801388080106,313.8733034001528,314.1014328328837,292.9847541209502,264.48962819944643,234.95893140824404,192.93770107458334,153.65626963949407,133.14873213856112,111.93705709865851,83.47225925456692,67.62052328840956,57.294692069039925,36.33307074505625,18.245988149849232,2.1677028226752064,-34.545772190932276,-80.76693673836027,-115.77745561737294,-152.30123778427978,-190.44336972706685,-205.9891696536764,-205.34341815048535,-206.28574795977636,-195.49795327007195,-171.91096638370405,-159.8300754348198,-152.0566925869879,-128.65272880715196,-106.22277524329496,-93.49853530853889,-70.33146304821105,-43.79538387061483,-34.16492532686492,-27.72228920776844,-18.957083949561316,-28.926406246908364,-47.58741853099798,-50.55241634337962,-52.00514828435144,-62.18580895798053,-62.508205402024274,-58.76399546294509,-67.9726537330546,-72.90394326042599,-67.65934316702011,-77.47307782078603,-96.6846344696555,-102.03773687166569,-107.0901318987276,-121.06930233122252,-124.71587819397713,-125.05342960247793,-139.4432387702688,-145.46450906088876,-129.09403824741793,-112.18458953528277,-93.23531736575721,-56.11056127421311,-19.331838138467887,6.37697496978717,41.55734244989688,80.80630564420106,103.91830911166403,125.9557921155464,156.7344667536067,175.8482420697025,186.56790515547442,206.70237908781445,220.26764895745805,216.20608041280724,214.02497170650895,211.2301434941895,191.36038635660833,171.69345100139304,163.7200837880461,147.48517378333952,126.44335187311219,119.3181318073286,110.86381712832917,91.30930714373068,81.20651282183965,76.64161640475025,58.26202792786394,40.4008207235201,32.48640203276404,15.268069771267687,-3.4497969048607233,1.0184438454337164,15.783581338797788,27.028428152203816,48.63403817971106,72.46952859499454,79.65829732573008,88.6029290042271,112.24123643023094,130.52409070747007,144.7537335736356,170.45096420963495,190.2036611219763,193.32016122092216,199.9741351581988,206.19293468735614,193.9501863436189,180.0736867077237,174.08102901171338,154.5227030248282,126.61967187153456,110.3528457766295,89.25601880454474,53.408896549853,26.15533883626889,7.20372123805189,-20.231636836264364,-41.09260001244257,-48.80682266018575,-67.4906442374355,-92.2984058686549,-99.25464942858699,-99.77516202520646,-103.56465142337079,-92.2227505340783,-71.87950013282797,-62.34688972612448,-48.18210325571707,-19.89775063446833,1.6914975420137859,19.846057922787825,51.301969559375884,78.25617508107283,88.34000932445439,99.56687109887994,107.64281088966632,95.34262033518984,80.19660296268273,74.10871902163441,58.0041567285668,36.49674725614608,28.397921081380193,17.191140403336846,-7.1608875219836685,-21.947022561322804,-29.68145431895853,-50.52618491686537,-70.80956236434805,-82.13404635990203,-105.50370840688848,-133.86752619773736,-143.1232844890722,-146.13562090704642,-154.34526743032333,-151.07242943850397,-143.10434117797206,-148.30353939013793,-146.97332383666594,-125.7532383077915,-105.23445941139309,-85.24219080611938,-51.723566742836624,-21.712684827857522,-3.599928166222424,23.773344419605973,54.69977891013398,66.54656545185573,71.22833486807404,78.71377199492245,71.74631727107958,57.16777706531904,55.34260859595838,50.689652394759584,31.38460490202357,17.73711178137308,8.727136365180428,-12.970855266966083,-32.90161371772634,-42.65159399151933,-64.06241669347119,-92.42761297742359,-105.7135913273132,-117.96576377850636,-140.91202869597504,-155.66510473109494,-165.39531164303372,-186.81137275774913,-201.72540647681916,-198.19428755960294,-197.07261702652926,-194.77115936809713,-169.70119081520173,-135.8543972294612,-107.23988406004489,-68.88734737044636,-28.07691650754595,-6.1337553165996095,12.60145601999813,41.482498219443166,60.44671948737436,69.48065865486522,85.30961293765765,92.86387293643686,82.35297413184998,76.41282173479401,74.53473620273216,57.12619819225188,37.5105975000596,26.65339005986167,4.890562927463291,-23.63329702403116,-37.504833443312094,-51.04995355217819,-76.42730813487914,-93.41550516336257,-103.75951224142496,-126.42818270368596,-146.1993648396154,-150.8788579812836,-161.35725042958376,-177.23540559707982,-179.9558391027981,-182.1607377848725,-190.86323253599278,-181.8632132409957,-156.77842451189477,-137.6801431064323,-114.89477678323794,-81.34301570186696,-58.20586443787715,-41.62005996537403,-10.463133066172155,21.656321145166597,43.21733541651186,72.53247730768393,103.30937369858184,112.47650794778313,113.1782830679349,117.0383127244977,105.8620901807162,85.28493592582265,76.84099196730368,67.8314426963299,49.29457404811842,40.71624352922735,36.068986574978084,14.25572237678598,-9.894261281818363,-24.374208617137676,-46.75723228021759,-72.2300399177258,-82.40425976835101,-92.44483585532109,-112.0966807789092,-120.79551150436231,-121.00680781387729,-130.83759927809788,-134.64365028185898,-119.5720175400979,-103.40161866139252,-83.78812092993071,-44.25282833335655,-2.413821741036113,26.934699874295525,61.287557800832886,97.49446994771732,114.9045091051265,127.26301884100413,146.97659423437807,153.89493318923456,149.92111686177816,155.5270804247406,156.35265582392452,139.45269581764285,125.4833777191173,114.95452903695386,90.16781113706072,66.99796646277422,58.9024798866004,44.503404352955414,22.515545762915657,11.822843760641803,-0.6493374455891785,-25.94701747008903,-42.32381736634429,-49.714563774732376,-67.96449302062938,-84.99097480128579,-91.29030963049465,-107.49762609300446,-129.2329898325914,-132.1728188772642,-125.00454253733953,-116.9587966822954,-91.58337845659969,-56.10804821982596,-31.947022160256182,-6.037470546743322,31.748332417486235,62.17577448655783,86.9946042155606,121.40389277435501,149.15992551777202,160.38377428961758,174.79621147738794,189.91021111576316,187.91034757842613,180.4414470868317,173.78454676770258,149.58000001418716,116.43144955401954,97.10385452576949,80.02427973452897,56.216557552780756,41.8179314616622,30.548391808865524,6.835246837866986,-12.468506638563946,-19.725585251240403,-36.25434553026801,-59.655458875598505,-74.59728048291181,-95.60108870526254,-128.35562771433646,-151.1261012672303,-165.12489798510342,-182.64533832304113,-186.41986057813077,-169.81986677422103,-154.32791853716122,-137.14189932888854,-102.33936087909795,-63.7358397191303,-29.38299517106403,15.08697337502395,60.40061416955259,89.05172048277217,115.40067818806824,146.30571305812424,163.069429177676,169.6956368488161,181.4526522714877,185.34272140931864,175.73321995998236,169.8839404193873,162.14063505621337,138.25940602899192,114.11677753232739,97.40699713489431,71.47992247221597,42.788619031362856,26.838000338592472,8.758626461908449,-18.55310287152743,-38.3354489509034,-56.609781212781,-87.02263983116036,-112.0891204722288,-123.85372412987952,-140.35997258897362,-155.47118694756716,-152.46268494492492,-145.72498390782494,-141.97668533479523,-123.09861015581401,-95.28837467916323,-74.27668223031438,-45.07115302424549,-2.6223516094662074,32.590767066416575,63.729112765504766,102.53382675732676,131.5031339758129,144.2003915434874,159.4487908581601,172.74033979199456,170.20398957778633,166.27778925120407,165.6329827162739,149.87202091167444,126.27322785193458,112.06944872619295,93.31140502172906,63.87072114009964,43.00123174010564,26.33433867833009,-1.7591294343887185,-26.919126387647466,-42.78524807868173,-68.43220004834558,-97.57049046543295,-111.24257643931986,-122.84161432468845,-141.13320850803618,-149.44382217735722,-153.0434681000624,-166.43703698343666,-171.34654069254609,-156.54846667701318,-139.81883869829412,-118.92494432622229,-80.90306113151057,-43.27968803309682,-16.092328023472877,18.353133662178102,55.389895781732726,77.37551986248586,96.85563937776388,120.17517871128891,127.46285914192643,123.62528389208197,127.59117039586391,125.65994616518347,109.02917198585284,97.04382711963868,86.50905177778105,61.36103937126339,37.59831186825567,24.927487283494965,4.459178623933642,-19.697837783489465,-29.51276372183884,-39.91856606127743,-62.414536167379815,-78.57660306841863,-89.5964597253633,-111.52815745812632,-129.46966410005209,-133.10640503014682,-142.50793133117918,-155.14130155444184,-150.4200660462141,-139.49811440943094,-132.13701727691287,-110.01714617732463,-76.83282391925306,-52.632455238425166,-25.520338998868155,13.962024772850652,45.66252925476728,69.84038937536089,102.7466182969387,129.10834194467844,136.54543978036935,144.56594284078906,153.56062910066288,145.34850898542717,132.82020894412608,128.49117942878917,113.12782578205523,87.65230908749737,74.14672984073852,61.408185194403345,35.59096403866672,16.632358556918263,6.073955131371273,-16.57392381859851,-39.13070086515876,-47.76358360169759,-63.01606534931541,-86.60533310305615,-97.83860668044093,-106.96987986424305,-125.25193990437403,-132.72981988733056,-129.69460223344177,-135.94836671252256,-138.18883771506597,-122.04786479713553,-104.90660754111876,-85.7625687547901,-46.19137732718191,-0.8854102884952724,35.327455345358516,78.14872863695388,122.53479102187029,146.18681173876527,161.45366893209766,181.33553982100585,187.2724178749206,179.68691211722717,178.14396299759264,171.68347714726522,149.61639501844482,131.85694713289425,118.05955120496651,88.42857856791238,56.282632503406674,36.7691068867767,12.881792016996105,-15.816714550367916,-31.758716911695856,-47.41863368170804,-74.275649245078,-92.57556036787963,-101.82921420623303,-121.7050370769725,-140.54458097711864,-144.3481672696929,-150.81837168089277,-161.16995511569752,-156.5906979192627,-147.57797870566304,-143.9112304132513,-123.50032107015882,-86.5574777115059,-57.53416948651946,-29.516320841307277,8.615859280501368,39.649590042023604,65.06860457937313,103.04255678001579,138.05526747062316,153.48966774751608,165.73160179256286,175.25028837768767,164.31941690813125,145.85403705660792,133.99410299749502,112.7115035812146,83.53476872477844,66.51793976418783,51.07782106839148,24.681353617352315,5.272069566678561,-6.136377966512652,-28.940444762847928,-53.05747155050349,-64.9255330107328,-81.07371719239448,-101.84871828447947,-108.07920600942279,-111.6080536894936,-127.23795717045016,-137.3143619741319,-138.95938648680487,-148.4402878755129,-152.5799209472742,-137.8752120747168,-122.99218209272523,-109.36723848869126,-78.19779404655287,-40.77878707698237,-10.61079156424498,28.543291198398745,73.69394789716263,100.81154553434499,117.32839494378584,134.85859640986644,135.56629654885882,121.2817355631983,116.41831006284178,113.259301509638,97.67505786917361,86.02068736407233,78.85613924657629,56.38626700578656,30.146381938804737,15.588430152602442,-4.874029485021632,-33.366500648268314,-49.17141917871693,-60.82694281701649,-82.20479541168987,-97.27125805438328,-105.70328592710078,-126.35679463448164,-146.32559582055308,-150.19754151134526,-156.30816117843955,-167.4768773110158,-165.09423356640343,-158.39331192835564,-157.30586021580174,-142.03102523277082,-112.08534676811271,-87.70711317145992,-59.82821647277491,-18.63744728238208,15.610137107119217,41.43673115123769,76.56288131756446,108.67585632140353,125.33803555872124,142.73342983213968,157.50703252167682,151.30239822780857,139.2230023600997,135.12269377178666,122.64609381900792,104.50114233955378,97.34972237079033,85.91966531974414,59.868399008399805,39.87543521160754,26.23654355425912,3.0074477765150345,-17.241205935047002,-27.292840222382534,-46.86741632855926,-71.45718360133219,-80.51867960477863,-85.60850803450927,-97.0964996333776,-98.97818724923401,-94.44601607902155,-97.88313842144464,-93.0914557599143,-70.32309507802624,-49.52676398021377,-30.398490512264132,2.856117766292739,37.47103490223944,63.85184162513761,98.08533813936457,134.05756160634644,150.61513047722312,159.20686694123555,171.1777251157097,169.77870782710656,157.07033244831692,151.00140113749984,139.5861869379363,112.94386216086302,92.05027828685138,78.2467257599802,51.216088499168904,20.116163040813802,-1.959739138824295,-29.31422402924722,-58.22804208028366,-68.722674978168,-75.71384309746003,-97.01223370494802,-115.4896307184371,-126.59688255131566,-145.06956184386277,-158.18557185505773,-154.6096323428484,-155.36433465910252,-163.13209288044933,-158.75628397936532,-151.14365815945558,-150.14301394667757,-135.26078653467067,-103.57332860685797,-73.98611580486286,-39.403977444852075,7.859415083786423,46.89299130095759,75.0710283423367,108.9999901204456,135.88808322810792,142.17623573585746,145.2750483966383,147.26640060886177,133.17608244906734,117.42202619331064,114.36723350570111,107.36342823323281,95.60667907806454,95.3798661147328,92.17621644762332,71.45875971413597,52.877196258010585,41.11769789810337,19.466651247143048,-1.049077271797663,-8.317733055190555,-22.20054707104529,-44.86875560526875,-55.52218526391422,-63.10344454896774,-81.19024685098775,-91.64027389290091,-90.44827235652845,-94.12775935594189,-90.00492911345857,-62.50244676673277,-28.683039163107004,9.51389191018903,72.41262164053089,149.7810012599565,220.89854623382146,288.91504173244743,339.8450859649553,344.9644626448037,317.22084174369013,282.5777710460606,235.96559128669065,182.61639964585575,143.5658696080999,107.57742516973013,60.20118956886185,20.206960697732644,-9.321407954520174,-47.44286315206723,-82.92772812085771,-100.83186584988785,-119.90717113742457,-144.2150398423215,-155.435762894576,-164.7369180102238,-186.79176874549768,-202.68808915352778,-208.71185849954088,-223.20996477253982,-233.580355752483,-223.7699045654016,-212.95558302468584,-205.85478905485857,-183.67682515699198,-156.16386296511968,-136.6593033519942,-107.20822497690146,-67.93612093502105,-42.0398287421078,-21.847002461000706,4.181432151610406,15.55991925897455,10.244718660488104,10.216698981987523,9.108255071525011,-2.346359908454307,-5.588972866180862,-2.8374828128266834,-15.901461724325241,-32.62253898152852,-37.13845265445672,-46.26540476338635,-61.69539359082482,-65.90925210053342,-70.78361177823663,-88.21601212091608,-97.57636654509379,-96.18356522517344,-103.99175554460109,-111.79431197605669,-107.51127213275936,-110.49029487031038,-122.61118382364063,-122.27107808415946,-115.91088090611832,-113.19604668785912,-94.01288971034049,-57.63767685045018,-27.103398762629418,3.5740963136346497,43.7884891683461,73.81354761647879,92.94475105081062,120.77217390488413,145.8394152493288,153.97716170580858,161.45531376667157,168.2806298431271,157.16601074236834,143.00789970772726,142.10679881168352,136.57948118139842,122.81699045026161,117.27911158861734,107.66950448250483,82.12314445777153,63.317746756090074,55.87891167113487,38.85554600384526,19.818689737200817,10.778848510959449,-7.094624058342823,-34.024538198689385,-46.14006169414736,-52.51473401639494,-69.95052122159115,-80.17881449593,-77.06283000054238,-78.7303861818235,-75.17854766324021,-51.83881985184409,-28.750362122447324,-11.316854919721866,21.35430598602037,60.658950831315344,87.82882364426813,115.33455326332877,143.99825170230218,153.10534684400056,155.1835388934329,172.2926768842495,188.6066128064835,195.37608985317655,206.8094674738929,209.3389898566595,186.9152208944414,162.55421059492096,145.9716355842187,117.14611987320365,83.40689882932112,62.39128150604577,39.078775482281316,9.349100896670492,-6.082221128843034,-15.317376502676696,-35.76877912840267,-50.99633302932162,-56.42613685711817,-74.43269002671906,-97.38859016425845,-104.74668279773908,-108.99937806457274,-114.76028122414334,-104.2621798262251,-88.24110831690854,-83.30826708322184,-68.90912422479545,-36.79238198197923,-9.354706300127486,15.738231406083875,50.137414010201894,74.84934659414265,85.2435980075949,103.04429847580971,119.99454325170923,117.36659701802128,111.12638508001712,107.87066657682948,89.79167735602707,69.29293214001316,66.92073301814563,63.803319065624294,49.73708766714941,42.920725732053754,33.73155310001962,1.8641831375875597,-37.011419011989815,-74.60799019283996,-126.01729096104587,-173.81015631775887,-191.5019462603358,-197.6805855181596,-208.50866600042394,-209.53463585361357,-207.15300681933454,-214.7032168127193,-211.1355393655645,-189.6816205189773,-175.48766941980688,-164.06670783646098,-136.13711232685438,-107.81581756635552,-87.79625199030176,-57.09464169641956,-23.355512003030523,-4.866069235877672,14.714555236681587,41.79130733462196,53.6690042822331,54.89816281056135,63.77386718232967,65.94055423213943,55.36088600380387,52.18909761663114,49.054424678884786,28.585496637350722,9.770383312427997,1.7489612198889006,-16.351254552457462,-38.113505545300434,-45.39526116125475,-54.566071847113776,-71.85640899721321,-77.28160405398773,-80.51377926343434,-100.00742839049019,-115.51282251404378,-116.58198384672903,-124.02143035807487,-132.345924541495,-123.17706679481651,-111.06451078904847,-101.33964515552364,-73.721208617216,-37.645367858395986,-14.400684641456365,10.756203453973036,45.49284673577655,70.03833824374118,89.72860915625981,119.69130073222388,141.82510824876135,148.73869317216895,161.03457799889068,172.72421063707262,166.81776295912806,159.38493793096512,156.21988451772526,137.04074497984408,112.30947778207363,104.60809574494775,99.10471125565884,87.41082852568671,86.74786947117835,85.95063510052898,66.12631176230984,48.048846848269086,42.27038203340929,26.896318073278167,6.4139942503465015,-1.4705448426393852,-12.569224227873075,-32.85636531151237,-39.98420015637457,-40.382920331177274,-53.070528032297226,-59.50051244374351,-48.47606040387019,-40.87226370459423,-33.715861911287114,-11.329190069761731,9.036972292288082,20.191784158705048,44.352703358734345,75.44290002010622,91.5479829199152,104.18631621198813,118.90070123804782,115.25974601416054,101.48042864629957,99.05475268355436,93.33070696343535,74.99995900090994,61.76449560838019,46.45704653267479,13.390927219591958,-16.10150286530471,-29.976312622127004,-48.622225096254844,-68.84992782000198,-75.45672661602192,-86.97357758420188,-111.07032237392059,-124.43570783287193,-132.8344397227572,-158.4764119033521,-188.5545749555659,-213.79294593829124,-248.33043902220442,-276.55707223020653,-271.7107859613492,-249.6418132719615,-226.6067786096058,-190.1015126203722,-148.87346356840237,-121.62958535357339,-91.4835570496828,-49.34314746200747,-17.262980501208624,8.786678134201368,47.25326093985547,80.0591892702778,95.51210789242818,113.4965723706155,129.12235185352156,124.41592476045705,117.22328387654917,117.33973618560981,103.24745733021965,80.92407051345457,71.59723640467786,59.687557860408916,35.470848130551374,20.199782187896275,9.775971869144408,-13.852521765500006,-33.63383456954283,-39.56863194481474,-51.98546581911777,-65.00004237304546,-58.138173754410616,-47.372634434949745,-43.96221710641833,-28.624060779613785,-6.33475898147943,4.330607611466071,19.358770282157295,46.97537962926364,65.28285335327838,78.35755371893575,103.29884637489378,121.73858172212722,122.37911147931527,125.01935205353435,127.00446557913716,113.5522594773058,101.79424287000319,99.24511509750698,85.71457539229448,68.88159567353594,68.20127712860561,66.84793092303514,54.27739833270612,47.61985183875367,41.23276433690772,21.432018174036738,6.908926693745176,4.021162181467375,-9.913587812993269,-30.17220346605274,-39.14979444384201,-51.8256040801721,-73.12496062854768,-81.2304894221916,-82.23897841827451,-92.64822380593988,-95.1736340734298,-83.07499291565547,-76.79979290085832,-69.71034686911635,-44.9273499690769,-20.1735073430887,-4.9334757319900895,18.117564584511314,40.78842035421438,44.96432015881722,46.63859081568293,54.27423609556536,50.00853825916615,40.990626094883496,45.02341229653047,46.25945683573185,35.867090756738,32.73991786477664,31.90494060313078,16.53939237829792,2.5435277718585216,-1.333168083974732,-14.740453940735485,-33.135193507272625,-38.18471416777702,-44.0682205240668,-59.15674218541852,-63.559335882133716,-61.86965317758498,-73.04783096497502,-81.46931455470846,-75.41054876293991,-73.14562283122258,-69.72905158541317,-45.94590209350156,-18.12418050745135,1.5898361559161969,31.811549487400708,67.85014099370616,90.33309367533631,114.67680923661813,150.83716641924872,174.99601304487743,185.1138147450666,198.3077870158486,202.4424438722134,190.7859552231502,185.76791613882628,183.92901190662118,163.9960779579859,140.28761399384723,126.01252768211637,103.51712795090539,76.32401958971816,62.36317615585966,45.80008632454557,17.48901882658606,0.13329635985084787,-9.548219830937843,-32.70442596886481,-55.14160923704074,-65.18171813049051,-81.75193459064887,-100.73566998444761,-102.99601519653228,-104.94536461979531,-118.15289817930417,-120.34503080739663,-112.08208118858605,-112.14373668225784,-105.51756588721605,-80.8138665586971,-58.674359469597974,-37.21292124364881,0.7624077665574021,37.355801196409836,59.31098650347338,86.10992162394564,115.76896250389095,129.98575868466693,142.42923093890647,161.7517880348463,165.23627148776433,153.88302037109446,148.1262723456117,137.07563361050026,112.66959121919942,95.28480006844379,81.61103197625674,53.095411832588596,25.379892988736557,9.902769051065004,-12.942541529852802,-40.70058576401078,-55.31389863557361,-69.77623175053343,-91.02550520976143,-98.04710539194085,-95.33616284984564,-102.55156478722779,-105.73964203388746,-95.64302974603626,-92.4258089051531,-93.38315646742008,-81.98673723816907,-74.03086295621313,-77.57911422221434,-70.07021898943412,-53.10205376810262,-44.665285170878306,-33.48137340313802,-15.513273225538146,-13.098783060661296,-21.657779125226487,-20.887654393967146,-22.503687554981738,-33.66361585964074,-35.55974252158842,-33.45893475843186,-44.38646479333084,-52.63308648161523,-49.73487998161821,-54.722496760174444,-62.86554859829838,-58.937791928055674,-59.186795291902556,-69.33586972995523,-67.04026299210508,-55.40730987132801,-51.03761816926716,-41.361027470465835,-22.740983968507635,-15.861668758492177,-13.621073123613908,2.5318529782901518,15.999927331612263,16.635464601196254,22.889359714556143,30.416123504170624,24.148588434221253,20.225702184993402,24.16164671815715,13.655548238831965,-6.174689084430316,-15.58707744559734,-26.916408448346644,-46.75193800364944,-56.46417416810236,-61.99410620357632,-79.72815409950198,-94.04641861084642,-98.33301445908289,-112.76563932203786,-131.94467536485223,-138.46872314167908,-147.33063826075283,-166.31522649540148,-175.48145024482957,-176.86097275555386,-182.7884923949906,-175.71106354478755,-150.23094964586625,-129.97767294272148,-110.87330953905038,-73.60630913902405,-32.050056288883795,3.7615942539740406,47.12009516931288,86.56398266669153,103.7697603355151,116.91006064290659,136.29512397593464,144.01860588307846,145.3934491179731,155.6063869594604,158.63534789440115,147.21992849177386,138.89643819086174,127.1645797580484,98.23103903888651,71.32137952383013,55.59304912322236,32.53210752788988,6.75802634878924,-8.018150921123242,-28.008824361043054,-57.495143054498385,-75.4627167951735,-88.25810107436017,-112.15701239539446,-131.0504717779209,-137.885362943614,-150.24081749685743,-160.6762191959169,-152.87257796807762,-141.28064262517685,-131.2913567691264,-105.03831681823218,-70.03291150386426,-43.12183926570074,-11.26416127489308,29.52201428152531,60.333185702529065,86.71240986650332,122.05469364556198,149.67748671215892,162.8241366650834,178.72463151212438,191.2185562578497,186.84763104881716,181.9010735504516,181.64640444237182,166.95295673774564,144.45804771840727,131.1420513296261,113.35167861261155,85.38552000727347,65.5861025226357,48.21732172823818,17.967500474964858,-10.14647755621053,-29.806145303627954,-58.84437846318883,-89.48325089880859,-103.23194309415592,-113.79139081317987,-129.2203890458136,-133.59784685110168,-133.645104408314,-143.47251352119133,-144.80316166756253,-128.89746299493729,-114.30683133246214,-96.5300730423434,-61.67012421785323,-26.723950172177837,1.1361144336123932,40.334992102256905,83.24754911557895,111.26444436457588,137.42144894517367,166.18166837867324,177.0722002232361,176.6952728543941,183.2703888209466,181.74299468349903,164.65301987117573,152.40893970271577,141.44435199166097,115.89257557124517,91.9111693226877,78.44061984535156,55.99774030205593,28.66899087868498,14.126542534125191,-2.1149563236643707,-29.288695747695638,-48.39619911418444,-61.99902000565078,-85.35332211417038,-103.22260138872171,-107.50296182766041,-117.61259373683389,-128.89203758504746,-122.84605326109939,-112.46798221507048,-105.62462957737488,-84.1277688288507,-52.95420487652889,-29.462358850338198,-1.2187809921117498,36.34143484346467,61.89342800350972,78.88822855371374,104.26452495229256,124.92520001825854,133.16269334128856,146.02383200188058,157.84675384931182,151.67375773197014,141.750053756612,136.02217533678814,116.17082813221595,88.40758421733588,72.0989845816994,53.998873415437586,26.01198389801207,6.742073316251204,-8.905077014601156,-37.70975272128102,-62.87480188725203,-74.1639795360348,-91.08800997028365,-110.83408035325475,-116.97061389568186,-124.11414920683329,-139.62766463666978,-142.03468228147221,-133.66687920196574,-131.27772825620633,-120.3642446773971,-92.80625400105237,-69.17032775313766,-47.590446697756704,-12.844915146628203,18.325368062826144,34.54266144381205,53.77523463048719,73.2952879037161,76.82855786958794,79.0966630382091,88.8486363127346,84.86041252972038,69.42384610443973,63.02892610987148,54.83085687540853,35.39900302622554,22.42020731943585,12.535684626486422,-10.654134523275264,-30.24327367134032,-34.49802159961164,-45.127937369936475,-63.93152870620132,-74.43388790673532,-87.92329912733393,-109.88597162564749,-119.07565198545147,-120.36343250258201,-134.38691414112228,-147.6323159344023,-147.95704188472376,-150.1062107526262,-148.34979703114547,-126.04082740546555,-99.76147826529976,-80.99710615480254,-52.16041217261017,-17.255056437763727,5.939960641200302,30.574097653427426,64.54841372872961,88.69844922588658,105.81637678137281,130.6001357150102,146.77655306702772,145.0243803491025,144.3153274966893,142.05741744088044,123.204362440328,102.98175257134176,90.5156813008384,69.01243736482593,43.98508457943153,32.13728493227612,19.374215721784157,-2.0165431833077383,-13.118205691109898,-17.753717468387155,-33.46508710594512,-48.212681505896434,-54.90295673278373,-70.73633520455007,-88.80292285408899,-90.08608701065599,-87.32083053212052,-87.58514008988656,-72.82624321646813,-49.329362011231126,-35.327259186638365,-17.51573712079775,11.674308257436387,33.959795392234476,53.09177102796886,83.42345304118649,108.68510360056959,120.64744060169393,138.0516380214634,155.2327641036235,153.24573381829833,145.39917832086547,141.08230662398697,124.15898525055829,101.011406622991,89.2058420887099,73.89626368481285,46.25003030017295,26.442040092901685,12.655471552026837,-12.88510080657013,-37.13663847306964,-49.51573683837203,-68.42616919047472,-91.44222828045396,-99.88840214534045,-107.54472633247052,-125.04428214415047,-130.28671265803536,-121.35052413796072,-115.53993418066595,-101.61669646798772,-72.68141178353146,-49.84667167371305,-29.94012237366391,6.178368663366596,43.1768306925471,66.63707321620062,92.32406281572162,119.11526685813112,133.3261637882274,149.10890555319716,170.5964813665143,172.7489767032285,157.29753627904316,145.87211446148052,131.25513582419018,107.14394286047516,89.31573565679065,71.96145621068683,39.82949567379386,10.18118175309785,-5.55258508943435,-26.271432141099524,-53.59072184102232,-75.36868490493163,-103.84641284984626,-141.96107194033337,-165.53091875826328,-174.78486369652512,-188.06574453743536,-195.86798388370192,-190.69304178502418,-188.22347807414914,-183.2044924161186,-159.93022370568912,-134.33030143418603,-117.35329015007596,-91.55418120385953,-59.714779414069554,-39.31648113576948,-19.112815883288043,8.58064456346912,26.00588752575625,35.609253468123484,51.06870308943143,56.660594207634176,44.561500624053295,35.67179484196933,29.608988646579544,11.407130616010523,-6.382157344176475,-16.11742462219452,-33.68201048115007,-52.69600144643253,-56.56667848737205,-61.15303887100287,-77.2394140565763,-87.60423407035393,-95.05185680840279,-113.90930995836871,-127.96180167880064,-128.2229212512851,-134.55439689755403,-144.5664834123195,-141.44580172079637,-137.36647698630824,-137.58417352795422,-121.31251912019968,-92.80411102745745,-71.37468888336983,-46.366960348883055,-10.971011162577392,17.415433519478036,43.29657408159603,82.19692951124705,118.51578898886333,140.87582039961694,163.47719576988624,181.13100815933495,179.4682087936502,175.0093098883993,177.19063275777967,166.75622911363243,145.97163735451323,133.34766483309866,120.94379464019016,104.56698440037559,100.62406964193423,98.95077553167101,77.01403605193397,48.8211099058629,29.11138249288872,5.2176948702299715,-18.47185476695676,-27.268832080608355,-35.968016720142614,-52.32902556551076,-56.76543372643453,-51.72696211747691,-52.93238390704315,-45.746064178475066,-21.08059517692052,1.5558346538843448,22.19486462865355,53.92964950762505,82.43015651777738,100.79638290755007,127.7646541068315,157.89968350616059,171.3298050864699,178.9007172150997,188.9635837198776,185.21606500526303,171.90950081055925,165.36938518441926,152.87218223381447,126.55703245089033,104.73845697649523,85.25339497356,52.39969733920841,20.590419965922784,1.429085312395805,-21.573145073752812,-46.97211635495294,-60.528678827208225,-78.76174658349238,-113.42116395642316,-144.20146782144775,-168.0419028528633,-196.34318329233167,-211.74252706498916,-204.65607908242447,-198.50494642118142,-195.9126368147952,-179.2522563404128,-157.43918545982265,-137.81380396521837,-103.64531344562178,-61.03380720781594,-31.39291140072809,-3.2888856655482606,35.22992416824289,67.30695305946493,91.79414177433637,120.30573870821706,136.37699453257602,130.0162217392164,121.86068103916297,114.53116149880056,95.00120221234218,75.89947786755565,64.91482761803778,44.560343437604246,19.161053291162176,7.632557775263333,-1.9932793313927324,-21.520382254588977,-36.21976663040962,-47.44019502017021,-68.30706645664964,-84.30841824635436,-86.63686589072621,-94.97729242690365,-109.98646999513855,-116.07092541711914,-122.97629525510703,-136.21411597011837,-136.12212417095543,-123.18369093868796,-111.88397904897786,-90.50466766193205,-53.88415827061219,-22.30976309965181,5.387781201059922,44.1975436635382,81.93249870272834,110.14224212145969,143.37630269720867,175.40871981672032,188.1580247505105,192.76074405251666,197.43409451021446,186.44578351258554,164.22992452381902,148.45183620670986,129.15427356175556,99.52856802819298,77.33417942322956,60.587468158555055,33.901175083609125,9.60075803179957,-4.783143987908405,-27.76456026395363,-57.50540631693917,-77.89520102928176,-99.2094456317986,-126.97023215957717,-142.8788414078326,-150.35335526260587,-166.22317510175864,-178.3618534450491,-177.8957399448496,-180.2045288539039,-180.08009893038505,-161.38355111966524,-138.19020756440352,-119.92077050031739,-90.82150639327577,-55.62738286194579,-30.25275834694978,-1.6036702548591073,36.97888587034459,65.29218383206083,83.60003302395764,106.25238916912502,121.53819665835194,123.06132730773004,128.15900210017918,132.37704048642473,118.65055669234516,100.94744064253027,91.50983410546341,75.56008079283133,55.285234282306924,45.46528884257424,33.32316650230449,11.302183659498837,-0.5175344469773255,-3.896271661437294,-19.990922055380842,-39.851025164917814,-50.76994617312428,-67.11636795407235,-85.66935693865102,-85.81526780493877,-79.55241448717965,-80.98750943110501,-71.36851454796377,-49.527007449678166,-36.54120452356837,-23.74544326296921,0.22086974646666668,18.406162786167013,33.6573436475859,65.89604654338208,101.06426581949044,122.07808213728728,141.18607170607316,155.53374530039642,149.2752190725124,137.6629906462512,133.32796135494263,118.80488050164963,95.761298912091,83.06019952351326,70.40434694581495,48.09809094037378,32.60658567668665,20.99896812199102,-3.444360357816433,-25.791312131806407,-32.867793635086805,-42.1389693051906,-55.4408601417673,-60.12431776808631,-70.861661536835,-96.41506196250516,-114.9036222180801,-123.80928773292811,-138.35940850374118,-146.050978534929,-136.2814913784258,-125.4079528596659,-111.23003542181632,-78.40918352760283,-42.46932071154915,-16.289291257690625,16.3716149087249,54.41861351213021,81.3094686562343,106.6626938153475,137.1402503532014,154.59788312512237,160.83986998442197,171.81238974002224,174.15154984682766,156.85942211384506,137.66074373465628,118.94970806299446,89.60778135420355,63.5497300009094,48.41942768092384,24.883493133114186,-5.64385658394208,-24.67045233232231,-41.01948369268689,-63.468779763611025,-76.93097657724185,-84.52609788163178,-102.54267575387468,-119.32768608139071,-126.08607740249687,-139.45306572201127,-156.15626980715348,-157.81003622566402,-152.40824589828404,-144.8989266980322,-118.15017306082301,-77.70458448327776,-43.39520426564208,-7.13494976309478,36.94507508829938,71.9967231661149,100.46107061075239,134.83200778853896,158.65990022361228,161.6962697008563,162.34388001258296,161.78772424230743,147.71436058842673,133.01027535782197,124.83752371803199,105.62802668311292,78.4861704988546,59.193776086526015,35.26833558395824,-0.7310130645153539,-29.908181370074104,-52.58713802766402,-82.37516225242575,-106.807291678213,-119.2675735499827,-137.90573918283175,-160.27008661735158,-171.2372097735941,-183.58086924934497,-205.5999875672375,-219.5522693056097,-226.53867492476456,-239.651273982595,-241.3523897829985,-218.81994662158021,-190.28319366217107,-157.22448221967,-108.92111414667858,-63.412230047166005,-30.326248064567167,10.264616881930053,54.630763916554145,82.08515868856259,102.91122918749232,126.44605708801916,136.35699063186595,135.1099088602072,137.37734936142255,129.6402730711547,104.92623214132482,85.7556280587656,74.27208340166743,52.75478794195375,27.574073795327877,4.857496724708628,-29.591102093731344,-67.8694122552846,-88.15558355580177,-100.78844569748998,-119.22598172082134,-131.7353582494855,-141.8586357195282,-164.50759076224284,-184.77727640388872,-190.52692123427252,-198.32337502194622,-206.6398495572665,-197.80756266307876,-182.24244398929665,-169.89747691877764,-145.92520530353727,-114.52041117156284,-93.25502821296618,-68.808844781977,-28.850683675022804,10.062982555707343,46.99230850557615,94.56325275843483,136.40896669861002,158.2387008065674,174.33080638402112,183.87931153913155,174.63226818570732,163.4993253890308,163.28710247006612,157.138142612733,144.3452178392376,139.36300036554408,130.80431739519247,109.78422389757247,93.21891922976033,80.18966473151107,54.97374690844508,29.57346116105244,15.067254265529225,-4.237777316002097,-26.72874151271289,-34.76404622802854,-39.493404613532476,-52.886895795151325,-59.01243156893017,-58.355474304867776,-67.35403873885102,-73.30379934867406,-63.59946337588591,-53.31810792222016,-40.14476393876004,-7.44010023946455,30.616449974016184,59.67259763315148,93.80819940236304,131.47958010551662,156.27192789071924,178.63739643031863,205.9687582270425,218.6260091842029,216.8111217863611,218.40242716246257,215.24499501089645,200.83945524254898,192.64158262371572,187.3155834578147,166.3338396145506,140.45260830149988,120.84046640945238,94.31349503534102,64.45607083930373,46.230556119856644,26.162838862484275,-5.686397675856341,-31.51849938816619,-50.969498835983366,-78.8279736516259,-103.24596757810808,-114.71035412593642,-129.28436178320743,-144.416705147957,-143.32970568877766,-138.03694570330748,-138.9759224836804,-129.40842987781264,-110.135165310534,-96.04974229545647,-73.31833431909922,-32.213059883888135,6.711610796393506,39.76356076898112,78.14768930027702,106.86785269098768,117.50154499476972,130.69565759921198,146.33940407878424,146.1617777297242,139.57178566636782,136.36055333076527,122.53842188922945,103.05104462028034,95.06281027422051,83.78541367537574,55.47156463066587,27.58048038869653,4.717835641607381,-24.196022875080033,-46.676751135518344,-54.721478985125735,-68.7273871762172,-91.81175323670145,-108.99875289654932,-129.68691005374137,-161.40432097057052,-183.62020370273993,-191.6984163751918,-200.03464788916054,-200.36516772982472,-185.42966908626772,-172.41840705172967,-160.16400370748482,-131.662541746884,-98.47138973516789,-73.69156853538938,-43.58386709159402,-8.304389922138007,17.551003701652473,44.54775499286244,79.57477527435105,101.80930775392402,109.59131530945754,119.65323646187191,122.5664471257598,109.49273904450678,97.44944439914494,86.70748109335193,63.59657992587837,41.88697454883864,31.88007025583351,14.433186384878198,-12.018651292629196,-30.07163378649414,-48.24222299131347,-75.69230952869832,-95.87248982880685,-110.3886057986501,-136.83877997317217,-162.45242664217858,-173.74664225610786,-187.02618960871837,-202.85746271310677,-203.7474283077353,-198.5912120741707,-196.2013951366163,-178.15591908030953,-143.5493763692482,-109.83508351543102,-68.67269016044291,-12.67810684029719,37.920140614915944,79.85468813641656,127.16538806233008,167.58058237291127,188.91135683692343,205.9478093663131,218.57474985755385,212.39766263615925,200.89535587366254,196.55110053510782,182.9924410655177,159.79355146791576,143.46462306687187,123.60346057386448,90.72910619951696,63.57655019916452,43.83178473693669,15.875519101747354,-8.996860172569699,-20.461577245607337,-36.42574801743381,-57.97490409984952,-68.2770267786737,-77.16557566064157,-94.91366783284735,-103.93850702155373,-102.9097209880235,-107.82431775999328,-106.95806297256739,-88.84841335358621,-70.32035538371102,-48.97381197728481,-0.9922996811308469,71.2574931711895,157.76380486309796,261.1939207897588,357.38795235404564,408.85049727716853,420.8980446010299,415.8370015085766,393.03172898649245,358.7488334543659,326.20821016391994,281.4382974841121,216.59077791489557,155.6668198910249,103.6418775981918,41.79879878881775,-22.804343775952766,-76.93064468731357,-130.04665107847478,-177.1476640700076,-202.80180036238355,-224.2829800459131,-258.60350438714516,-289.01538663129537,-309.57542148100976,-332.0179068087191,-345.297452902878,-340.7072612630936,-337.6952982779909,-338.12156657786556,-323.51558663249244,-300.56325732507844,-275.2730564835341,-224.8371058151538,-146.47025181292892,-62.880453246351415,25.30158376469338,118.03015707016992,191.52598362602342,244.8206525205148,297.24347595386376,337.8492435374128,352.5632909550595,357.827663649866,358.1692265837483,339.61143506343507,310.5850346918349,277.91487380684333,220.5347904109036,137.1541220074911,52.92999472576521,-29.54051799440492,-112.9802377495292,-177.55908858927037,-222.99324633111405,-269.90428166773853,-310.61638272736843,-332.98229594956285,-353.8198944178983,-377.0778116166299,-387.8578043927292,-394.68610620784057,-405.4890268492802,-401.598616620839,-383.64710598439973,-372.9796776519492,-361.5901279708881,-332.7765416358732,-292.6899761911303,-235.27539459885412,-146.7802604845149,-50.21988280498933,27.857261062979397,95.0053478969652,153.0929641441275,193.26267544675574,231.49834933782543,275.9522132502599,300.46554954608035,294.3912377295783,270.17455106969646,222.78930930125097,152.30483050731834,86.1419836909908,33.1798913438642,-20.86218248172304,-68.96879034491431,-102.12951216784741,-135.3632419747704,-167.63175438547987,-181.69607239826288,-189.03529707096732,-204.5817421896143,-214.8756123397138,-217.93889831321633,-227.27996145334902,-231.02804514589036,-218.09334675081857,-206.68054060215735,-200.80619780601128,-185.58646591535611,-168.333243987308,-154.36900509046765,-122.18052607825678,-67.88671558992826,-8.5374483961488,60.90215205301255,144.99745070128478,221.6956354198199,283.9534238521934,342.1704613041808,382.9223299852085,394.94944177433314,396.3712500795664,389.734526403734,357.9149904443427,310.0809233925527,260.45000124903044,199.35692233230031,133.22069478591652,84.56149700536588,44.96282972435357,0.44823657416687723,-34.269712868773574,-56.98047542238709,-85.26105568955623,-113.01339818726007,-130.27407215322935,-151.2120980082364,-174.08810283085793,-179.43689855962668,-176.88585444119695,-181.1800979842702,-177.52263372927945,-162.25997345653505,-149.99200365464623,-131.60400113264112,-97.86319782453765,-66.68848784875674,-38.98787689921742,4.1320423883861,53.99337002500358,95.96994741804524,141.3415196923726,189.9621557917392,227.303103968405,263.5529609000637,305.3899540592667,327.3219998431185,319.2890693806523,297.43778139631,260.90018205510097,208.95718171938756,164.44985218399214,129.82203523052561,86.95241435648316,46.733889521128766,24.025903608368218,3.4593349272751612,-18.109031583872234,-25.883849564470054,-31.245371923121347,-46.94181072297033,-56.543046842576175,-57.27438200943308,-63.549489073925486,-62.37853303386025,-38.91171578850043,-8.399627033621007,25.404849234586305,75.99207441088362,130.75472373219668,173.53034928699475,215.98726951263112,256.7488917019879,276.378971407352,284.3298379683605,295.6751789375721,295.2533777828582,278.0861710557246,257.21987054637265,221.39459444513676,161.3813579476758,103.07776678767655,60.145130466765494,19.956665997898487,-13.090102895105828,-33.84901493763109,-61.52955833516379,-96.26400134347281,-115.83839482478663,-126.97820649566155,-146.00184963776545,-161.3628134138559,-170.2116768456449,-187.122095070218,-202.4697994846157,-204.1004110583817,-207.8885515911873,-214.80909927948596,-203.59452338644562,-179.84652200043868,-157.98833367549523,-125.32397064381662,-78.85902021748272,-32.53915214880429,24.41691853194612,102.64405418782489,179.9224182684973,244.08143417444228,302.81536480034964,342.19929066081806,349.29387519510465,342.1693073952874,326.40608490168154,286.2517031685364,228.9696625850538,168.50444274314185,98.07088597173347,26.318042050815052,-23.74321249443848,-61.4525885471871,-104.94488537868357,-144.05378541362703,-174.82314956983691,-208.56511013053287,-235.1953445111488,-244.90400057704235,-255.87749836167467,-271.8559976111607,-275.41906216196924,-274.10277439318975,-279.6248364267402,-274.4701310253388,-253.24045968408004,-231.26354625681057,-200.4072557434719,-151.5997727705002,-105.34815069009767,-65.30589714611153,-10.946117839466211,52.13472260757001,109.94460999035533,172.31303326284456,233.58650973002725,269.47456681361973,285.5095058169053,293.714502526906,277.69822990370585,236.41832335659404,193.52961289311568,149.7499748064394,99.30615416979438,58.71854986675544,26.003758677893046,-21.002654744562264,-72.63794687876978,-109.8171798941313,-144.12637962522444,-178.56804541937024,-197.52534245196156,-211.07611588453543,-232.93583866891672,-246.52416855417664,-247.44122338636527,-253.6016698483193,-259.36768020936995,-253.71867725486464,-251.86862532057307,-254.1844692544326,-239.17112192354818,-211.66032100880975,-185.1197954627989,-148.44397296348075,-103.06858356032447,-67.4801114147264,-32.756361589900585,14.034654611414513,55.227684333537,83.41105104466159,112.10322731802174,132.35702122095427,132.78119173335497,132.12334288572984,135.30793574016354,123.58226965047439,104.03805941272812,91.02213313806931,70.86599737703112,41.45682628374903,19.729588985136424,-3.300559741725688,-39.93352835021706,-70.9446358412666,-88.51214965774068,-108.70077215889654,-126.42330922454639,-132.45414650800095,-143.33191973096314,-159.2218700766014,-158.11597622269622,-144.95426732315696,-132.6683109234462,-108.0088492733276,-70.08566302517576,-37.485257933458534,-2.96376351993999,45.820711098312316,91.8348541224092,129.40515393002008,173.38257164049656,212.9035069052313,231.80825894199637,244.6770553598841,256.6778498079911,252.02727553940866,238.63459635512885,230.08720485548062,211.39796524271551,178.83260667488645,151.21903225452547,123.99378769849119,86.11090367833464,54.997717876720124,36.39053286477942,11.651175882413133,-15.508542178017343,-33.43334125499131,-56.14204100050266,-85.60819074219792,-103.31607726233635,-117.32118279546263,-145.65138557426621,-180.81744767302956,-216.36814343652492,-246.6321332097057,-246.28555444665557,-209.48280773824234,-160.5678169753259,-111.96688467239225,-68.09432812758877,-35.160939938770085,0.9735426966776384,50.01830756237782,90.18118158883377,112.35478220508678,132.07321573891207,144.00931782273926,136.9468417604155,126.194850599093,116.90961465026115,96.07937595192956,74.57417288299993,64.1360816277836,44.215826404644986,8.981695292336584,-18.82290377572876,-39.567665541121606,-65.29499279279497,-84.37581466887677,-95.82208433059304,-116.41243424882546,-136.5610796745429,-141.04004917121657,-144.51523024489796,-152.5249438920903,-149.56188278033923,-142.46918433041597,-143.21099362672547,-135.23676787820926,-112.90235188652272,-93.3908457550034,-71.49799812441942,-34.62044412333867,3.6717782271620845,39.238854283651115,86.12376950007085,132.68406720406816,159.97522952077756,178.78601409109527,193.96828906559463,191.92295173203027,182.0050945524909,178.4558296630214,166.5587844600602,141.5428394694487,119.64348249890455,93.53446923420063,50.869635274926075,9.957778488730701,-20.66530210484579,-55.69625429531828,-87.4348383191134,-102.95598805192287,-119.28813404147098,-141.79123415270507,-152.26360718628138,-157.36149721807274,-171.78303175766408,-181.45525888954904,-181.74387042812444,-188.21639539239277,-191.02832085357971,-173.70661294897747,-150.94481989734186,-130.38778274199436,-98.08038115743207,-61.605146204513474,-33.77709415142717,1.8243097218720674,53.80465291113621,104.33536122741438,139.63999688410766,157.18304742118949,158.28220153101205,147.07769293921012,134.98387498770788,134.8804540734986,134.3001338768162,111.2607232913762,78.46830942012934,55.705598529041076,32.65568212069224,7.090478015900942,-5.409505690049478,-15.216961658196887,-37.53441808851853,-56.50335848344651,-67.34686312596435,-88.44708227514722,-111.84976051723231,-119.35751331671734,-123.67239478548771,-132.4790219951659,-130.8134713668515,-123.50458848564566,-122.23453387949439,-110.63202574008083,-82.04019022457315,-54.631551447309434,-24.824428467243223,21.10157061403107,69.85775633869233,116.25404335531312,175.5830857812734,236.2809300498135,276.28198397017286,304.0638383127775,325.34131683587276,331.9024577907639,337.53862129029716,352.8055105359119,354.5353840435851,329.1146652312415,290.5795289843641,243.05796498773657,188.02181212122292,145.09636918166453,114.72038469943523,75.60736899777791,35.32481566874029,11.803350635529336,-8.522510041823482,-34.069458411964916,-50.98470765808352,-65.62982773784483,-89.28638993122964,-104.41599540264829,-105.56138524639127,-111.3880389702903,-115.42131630120946,-101.0761398887709,-79.36103845659117,-51.559299155559565,2.4456622389494402,75.85708136152907,147.80667224372277,220.50064124027494,288.1107033514741,330.0043957266632,355.37995067118356,382.44036559418146,398.26134863133564,396.75399662715506,394.23143838568853,384.35477485732133,350.56203349260795,302.1087395473222,242.3292518161183,158.9704139614766,67.35287651974292,-7.918695460192373,-73.85916324017093,-134.98333824173133,-177.01504776071906,-208.42098370210408,-245.57626320375235,-276.49644543924535,-296.56848558185857,-321.631554632327,-343.1508486897918,-344.22244124467517,-337.63523437297016,-327.5269386685505,-294.7464873906292,-245.8939305183136,-200.60434453297117,-151.1886292351164,-97.94776728523556,-62.35874212592178,-38.14770709417597,-7.071717185771703,19.134013406836136,35.8921534272836,61.71028222724544,90.9834989381149,106.94429708115821,120.48940111045397,135.59363913213716,135.40079880262667,126.86097917663808,125.74340914965586,117.7423226098276,95.2846712245782,75.75999190511739,56.98796938124768,27.50895970037314,1.6742784407658329,-16.86284265166361,-48.643234905991896,-90.7144257966659,-128.154267252854,-170.71716801940812,-218.3194719931984,-248.5239718070306,-263.53170828072376,-278.8387152057929,-284.66729364842666,-278.14859269376365,-277.688751727419,-279.14183925756254,-269.11589436821896,-262.5172738876311,-265.5892868113141,-259.1767301373244,-245.33689568032557,-236.022873088209,-215.48455548652603,-177.60779121272674,-142.1838065053293,-108.4350632576177,-66.78445919894725,-34.24581532829633,-17.032480015888495,2.5487620731458094,18.54799592474364,15.152756404896095,6.811767961529631,2.8616317384091774,-9.671494731366778,-22.566162130867735,-21.00694108025349,-21.592465916867535,-33.83193971363502,-42.09845755679329,-51.2451078701523,-75.25285382681412,-98.3472627246865,-110.58294569852129,-127.54047689522496,-145.54551993081552,-150.56402496297966,-157.2539568735964,-174.14887702003884,-183.0602549575031,-185.93095517269523,-198.46209659140683,-208.46510191230135,-207.07675554249096,-208.03194975188435,-203.2126518678757,-173.8592172808216,-131.62970289073874,-84.37267394537542,-18.48073517491526,54.47843304243519,109.53962996867494,151.5897713864289,185.14099233571073,198.14415092721532,202.50968937624364,216.58914458939964,225.01440032179275,217.51354295186542,210.50967342936335,201.45775216682318,177.12029403351625,152.14692979288185,134.02121009645148,102.38889755075213,52.64125030782246,-7.398339954143111,-85.37520495434308,-169.5594152335968,-220.64252098093846,-230.22835982955218,-221.61867068788473,-204.37497043141423,-187.44793713698013,-187.08141753519288,-190.09760337997903,-175.55607286716346,-157.49815908751756,-146.687584798547,-127.11093748909987,-100.49173097805921,-79.8884314001761,-53.22971716724486,-16.49234274292614,11.199309625641998,34.91005966864162,71.61227648300326,106.22539636257989,126.73338849890204,147.16569115859252,163.27579160121772,162.43842892291454,162.4113283129871,172.3404134791591,172.13518313096918,162.02738992113785,157.00953816609578,147.39558958801854,129.4918459178873,121.46421670186533,117.69537565522948,99.7321505470767,79.63859283266329,67.40597717211556,48.54036268910578,27.144235589926666,17.917003461613575,7.500471129447519,-11.651822924174144,-21.245185785831723,-22.412541586595243,-28.68546393683483,-26.806632931594656,-9.23022187742971,6.849475549851249,24.19985133269567,56.22715552894528,86.6377815348764,104.56915253636313,127.27905653013809,153.88480047182264,170.053069609126,187.35527820319686,210.43813539326277,218.89628369276306,216.5727779971426,222.39132697264694,224.48188914473644,212.59548408953955,202.2987268254086,191.75355051196925,168.2666758357027,147.00871953694013,137.06509951552857,120.63680114722413,100.05328328266627,91.06950063947687,80.20675955769914,57.748880390869644,40.541418480254734,26.800695233523633,3.0169711465647824,-16.439514003490615,-23.26860698712872,-34.43955898222175,-45.262265640376036,-38.41511469411938,-26.1469216612312,-16.9749918214737,5.266658295386279,36.114036416875535,58.32286879537493,82.27885407631452,113.91361413857693,135.97546826543095,152.97303016378942,181.16130868602676,206.43778350306303,219.2917247898439,237.3022426697077,257.10941672888174,261.0265845705641,259.04453278783996,255.94172145573776,234.00691723520106,200.98866893184294,175.8445112288494,141.2276758516775,83.35104130115263,23.419840009057836,-29.450448456167287,-78.10607033091576,-103.4622920300742,-103.76167458602598,-110.59464392290987,-128.9031363913382,-139.83718228474405,-150.8371384256344,-168.9529107954443,-176.9851384885068,-176.25133150196245,-180.39767191147152,-175.5939018109624,-153.65423145303944,-132.45956293254596,-108.63736513559903,-64.88401989960819,-15.501439275781024,22.92761451783859,58.78299054205313,88.42583606473801,101.5065138052664,115.1463542592542,137.919025827293,148.83000790039725,146.63931348303188,147.23606787809422,141.28102534926052,122.2345339773886,107.27664088041918,95.06390249520474,73.41269421786126,58.23605367494213,58.230303880036644,51.583897730122445,34.24177573682788,19.100523523714557,-4.035805298840943,-38.49241727049903,-61.338556345779516,-72.90138981936846,-92.01690268261123,-110.69709834055429,-122.17462420562663,-141.18221260619623,-160.55697910800512,-160.80874356626083,-152.7908292607829,-147.15989351516615,-130.76536948341953,-106.64051400950513,-88.24274743122048,-62.718235027329385,-24.114807472718304,6.692142369164227,28.861381502012367,55.99344252032533,75.4380983649431,79.23674954242128,84.73224825749588,90.4707624580072,81.95512078380706,71.16835041983066,65.66177636051371,48.079586045455756,21.375087471897928,2.5781006187835906,-19.31039456066053,-51.82686717498076,-78.46265698052409,-107.20316366001956,-160.61670468023235,-224.43661300247095,-278.12600801186613,-323.2448181244558,-346.3431067699572,-335.2939956925835,-319.7246857827519,-321.5139742879957,-321.45775618403025,-312.7450136985418,-307.04923927828463,-294.29490995798795,-268.3261461029496,-244.7283641129299,-216.94609581454318,-167.50036899637968,-113.23213307365741,-70.75356718478173,-27.603404152566274,15.039717098573247,43.54677589115462,68.94441029339791,97.45270346493913,111.44168186175264,114.78935820177168,127.34010430463181,141.46717477430096,149.98355107673066,167.43749843037222,185.9425441993144,183.54927064990022,169.1024121203141,149.2973795986759,103.66125176319531,35.30494077572801,-28.812010849050772,-85.00293906774802,-129.66484911401866,-143.52599828334053,-140.71350865015896,-152.8990499699637,-171.7290905252052,-180.73400267767363,-189.36874447676416,-193.09965043082045,-178.3379932901026,-161.88406018843506,-154.36927743640464,-135.94425254790437,-105.97811882322284,-80.00256993270112,-46.83644537079679,-0.6356362260576613,37.32437464526717,66.76440270731297,102.6396224143263,132.078050415382,145.93469764292286,160.99690681579688,175.18753163998636,173.08208144861982,167.53889193441998,170.2093481077646,168.68171917586497,167.90314148303702,181.9835988886545,191.73276982437704,178.8868440150132,156.69096000620146,129.9382629836563,94.16625802817414,67.60433100507531,57.05935909808473,39.125378046484286,11.668009218217275,-7.884839487245282,-26.881829335658082,-51.46370677806481,-65.80341150144447,-73.9470506606609,-91.42733281973614,-103.95182327662661,-100.01482749753627,-95.50107732718955,-89.77811201824828,-68.77215697609734,-45.22528119190167,-29.19664885195563,-5.7619099713246005,22.540338277244295,40.87312902392588,61.371547439923646,92.12318300591855,114.26702986423467,126.95443110329359,145.1907741937952,157.9643851969201,156.19889806013998,155.81016344215692,155.1360062855129,140.2054041900075,124.79741121034903,118.11679657681677,101.44134527901983,74.80723027995796,55.39924634481666,34.95236733984901,7.196806998173691,-9.201528558978234,-14.631899508623976,-24.061202392915956,-25.045738191804983,-10.638393945249845,-3.451682183528728,-5.631973312044663,-0.23914240776651763,3.717791257035567,-1.1449637912054706,1.998946839549122,9.959120890395013,5.467789894584012,0.5615099499727312,5.529800356560386,2.561869490087395,-9.481894185397262,-14.64502359524063,-21.43705430292764,-37.21392118294292,-45.56929604896515,-48.425628777334275,-61.75287704550806,-73.66073409113815,-73.83451352523443,-79.0354588491018,-89.9674826098542,-92.1518090214562,-95.48801209239124,-106.10652196466391,-104.63319753824615,-91.66234332336957,-84.78172413179924,-74.43052557976625,-52.35370627367935,-36.404603122075606,-25.476320873426776,-3.3087266073475146,17.719145996944405,26.554967666689578,38.23506457094231,49.73655773222069,44.151528767758094,33.70821468139812,30.351587013724878,20.763497497094637,8.184935183747763,7.420441712477486,3.715155760805778,-15.338071939587724,-33.00962969926884,-47.45442019043856,-71.34723772793342,-91.56466459617808,-98.60530552825729,-110.20769782462494,-125.3029349131825,-126.68705242700281,-126.36166329144278,-137.0651138374849,-144.16179858617855,-148.41270810783425,-164.26608201348196,-176.6215299355459,-171.165988944999,-162.99903197309214,-151.92292298072837,-122.33950233206275,-86.60163096963493,-56.25031512896413,-15.932889469867154,30.81688888450934,63.535025618979226,90.32898866347574,120.13155404946774,136.81793749535922,142.74757274733437,155.0880981970842,161.64018341867273,151.07724373346045,140.7168582450944,132.2103107474955,111.57606834789715,90.48697358156947,77.65348641046242,55.28954063726102,25.479150400770294,7.965376954142953,-6.364674543071848,-29.504283872397504,-47.91129906178311,-62.55113264249436,-86.82381398916428,-104.84852638150747,-103.80708523479575,-103.77222222204651,-110.09848772389147,-109.78856706328892,-114.19894173606386,-130.0103751919736,-134.72418517094889,-125.52815034146283,-118.08884600012203,-101.11564456514365,-64.9895861666826,-27.8393304031911,8.634320350919136,56.72809415595249,100.28328225266907,126.04601307532116,151.1497439176797,176.95884155514202,188.32170371338486,196.38689510535454,209.89469268452484,209.8762394934455,195.4983053438254,183.39305988712147,165.09226305702643,134.54246342893242,111.60518975672242,96.91815219517228,72.67390766685773,46.57822984353521,27.94120163095483,2.9130229007406463,-25.580632068169244,-40.85074669776106,-54.13958316776838,-75.806822834515,-88.73136576094987,-92.22030201047248,-102.2924206539792,-108.75744481473428,-101.11689688367042,-93.59320910493068,-82.70614193903691,-51.562980880134276,-15.679863538821508,7.959199111935928,33.4367134338342,62.77976213464118,82.96578694205522,106.1735377792194,140.03223022670315,161.4924494497099,165.83977450102503,170.53567401452173,168.64118030691154,151.83301414250883,137.4874562651816,125.63149089495928,100.42713113726259,75.85531255247726,66.05308131264786,53.81523771071957,34.72473927390919,21.63790324832437,3.7523749030789944,-26.89121825860202,-49.8101666260914,-62.30248570965272,-81.41722744944136,-98.34365095963571,-103.38237893592297,-113.3271253190139,-127.49516946235025,-127.4008039469177,-121.32006702515608,-118.22263682415782,-101.10151502855565,-70.79763945386276,-46.36046527634432,-20.130136345673343,16.883890965614505,47.04477513516794,69.3498912448403,100.25257861579271,128.34403256805606,140.51884756078442,151.9622035485448,163.32740677220784,157.6168571102104,143.9285011891226,133.74983617385416,113.51281255006467,86.27102810412367,71.57876512687385,59.36021338441345,35.478629885601606,14.190689365068458,-2.4254208165899427,-28.7148544573473,-53.59967469881228,-66.87545147606063,-86.8910715685924,-114.0139811470965,-128.67972685149607,-139.34822389118682,-157.54717883510892,-168.2984739935835,-172.14729639214028,-184.0145697721894,-188.80405875778663,-171.54081255837298,-148.71742934130447,-124.5140904227126,-87.31085950307015,-50.71983708939218,-25.713248637047172,5.977752080279664,45.477978366848504,74.05733181530559,98.4301213815936,126.7881106367117,141.43477054286774,141.3948947015625,143.6541417696846,139.44618437421892,119.70836053111167,102.50526543553755,89.31407354681991,63.83509228044791,36.98962282658056,21.677705938536747,3.364162980442834,-19.26823525475278,-32.50878781666697,-48.718111881984946,-78.46875706805321,-101.79926545394824,-113.87663502771468,-130.49718690579311,-144.0453376163443,-146.7517788843167,-156.89718453394286,-173.64813015695162,-176.27525286312186,-171.74291513217102,-169.98497568235172,-154.4197636989253,-125.13536171644108,-100.11777277158103,-69.80513789789363,-23.976734170736904,18.31372797781102,52.58309765629972,91.68758835299755,123.14159950465252,136.1269184461772,148.947295501724,163.63345809604567,163.1554605544078,156.40576529201854,153.98640842273258,140.20141020801938,115.99859436132036,100.16828311913864,84.14130408364402,58.30200178530008,40.55054746003883,30.22020703238436,6.890670975847261,-20.600858540639035,-39.00988674713287,-61.408531634834496,-85.60287174797962,-94.87359459535882,-102.77209416229933,-123.57531497546404,-140.50377513492847,-149.77744126740276,-164.54743748962593,-172.37842661824476,-161.88126463526737,-150.1538114095581,-138.5118009702625,-110.52329096142435,-76.12028876601599,-47.31446067175911,-10.751779838327966,31.27182573589052,60.59919838560004,86.19226654974213,118.25200716063958,139.9225401302418,149.05362054042297,160.79473147035458,165.81873722285252,154.82641206824476,145.33302614254967,139.46786615825914,121.71247113992594,102.07498518774321,91.38951684284478,72.90158374106899,45.68441633817425,27.816838251435584,10.898803036101139,-15.942777747896304,-36.41765644455118,-49.78237435051112,-73.23947579891546,-96.3340150864725,-105.9397119998333,-117.72375516485765,-133.75421531619529,-137.59227315021263,-138.3150148252793,-146.04815500941547,-142.45463858855217,-124.8960556263668,-109.95402367352843,-87.85960263530569,-48.011423888439055,-9.565867622180988,22.399043822949984,60.552949058313466,91.5308639198226,103.54694406958711,115.87935060553745,132.05475482403867,135.41854263685605,134.9140830030404,141.204400700887,138.06670908146785,125.34451287336978,121.1611306896015,116.02646188758237,96.70281132416535,77.83425661040276,61.835679441565745,34.804770224447935,8.982527757384773,-2.4716984249066694,-16.182607371380605,-35.7828350438928,-45.51873542617531,-54.40572759851172,-74.59003018316272,-90.84281029979593,-101.68675414394379,-123.00129669764601,-141.52697772974966,-140.20735964875766,-133.41718108817983,-125.40269364608656,-102.53058136505351,-75.10975139754078,-54.35872058661393,-24.538988138913183,13.650711698735577,38.79127998260967,56.578432239957166,80.40245760714822,98.15820662251943,108.61490101315513,125.63359033936844,137.25989514022748,131.82765682474673,127.81412319435752,128.54300509388673,115.94515479670673,97.39989162985259,84.93582894955425,65.35527258276332,40.57992289595907,28.775343521556827,19.34446985075525,-1.1588039456379136,-17.360328050757776,-27.246465667208913,-47.149719363679615,-66.91375802858602,-73.31566359529421,-82.25494691973779,-97.12182465747219,-102.45713390191132,-106.89657636108785,-119.72448928636993,-122.03293876050165,-110.44553292149001,-102.05830361242917,-88.8147656293564,-59.5692842112299,-31.067401110971247,-7.473660964281986,24.813285162267363,54.494134339204976,69.31798582765163,86.31979538312817,107.8377139590711,115.33085048213533,115.98619621928702,121.1497439153461,115.67602925906328,99.68610439925166,91.89085747728689,83.62465793744506,62.568862511178814,44.52570579683551,31.709813538827667,7.472411681734092,-18.54806368978037,-33.0756123453147,-50.92824378095869,-73.41220299737056,-83.07654203576782,-89.05387232054075,-104.42855680240848,-114.23796088251203,-116.11416015372932,-125.86095784275076,-133.348814311706,-125.18152385139845,-116.6493745979536,-111.02835100320411,-92.55532186921607,-69.67023383676467,-54.30735413354476,-31.55337314626003,0.3875996086872906,23.578548928855337,44.31650119808168,73.0459262022045,92.81159764487315,99.55745859455166,109.46707361740991,114.74049905665875,104.57615467994123,96.18957087046672,93.38246081051179,80.01603263190276,64.53428237418174,58.51300920571541,45.94498333345962,24.951418774408417,13.715650652735956,4.077643063082467,-17.718422688722313,-36.99525751390739,-49.97487753647161,-71.41712770087325,-90.4452405411857,-93.0296280334783,-95.95433697850117,-104.59454917803072,-102.8318781134205,-97.95807610895768,-101.41406694806193,-96.60994974072356,-79.50541115489568,-66.50912628154708,-49.606798070513484,-17.311072043938257,12.740177764530145,34.99117536978409,63.783985740834034,89.13711429592544,98.17172540758828,106.71328810897836,117.61428968492388,114.22178321149417,106.01454032513519,106.5155656387551,101.48822469478749,90.46526631354654,90.45387610089976,89.79566423758789,73.04646507182109,55.059286999770706,40.06553516917823,15.212660810367987,-7.186322661704496,-14.957861835671434,-27.075546340959185,-48.36679122956878,-60.92507700220412,-70.89629711678768,-89.18300821474782,-99.20522134550903,-98.11539460090805,-103.78340177812278,-107.62840340750292,-95.19377752332618,-81.16505223082977,-69.78188537420574,-45.71210106463531,-18.570319748300907,-2.416605680410534,18.729074971358713,49.085910185999985,69.95432761459125,85.47966010331092,104.89722872700935,111.78047332233265,105.15946401906285,105.16995591874522,105.05076195139122,90.9585209426344,77.16283881741492,67.77894395945617,48.36777494144195,28.75831353677144,20.659979457489037,5.69790390508439,-20.455235459424227,-38.3240271994579,-52.04049526066904,-72.22004430162515,-83.86279828011305,-85.9248774729381,-96.9953927754911,-108.67801555051282,-107.69624039157728,-109.74610027410843,-117.3191135334906,-111.21149424211049,-96.91609215280451,-86.148189410828,-64.99022465552676,-33.261043444438364,-10.635663764673378,9.274310232734512,37.701959983202,57.175303310559116,63.91816232191424,76.4050673931472,88.26335951603951,88.00433428960355,91.72815129329793,101.34568425655392,97.20782750879758,86.06473405793662,81.42665018601035,69.10622594491397,47.98322352737044,37.797584285837104,31.04226814885986,12.410636389579354,-4.393653674478814,-14.815503592278427,-34.495960757860445,-55.00564678051032,-61.9158092252616,-70.34401155321636,-85.70031671593853,-91.48480966631811,-94.97946776001002,-109.29427947304838,-117.94272105505091,-115.35250703302634,-117.21111843461014,-114.429758237204,-93.36572587227332,-69.99803634138404,-48.66649137091841,-14.03192486502402,23.00623915777443,47.070326223052405,72.54226003267713,101.89636478458948,117.02315317676694,125.26117416400201,139.14298505486445,142.77326675169678,132.95641327701588,128.1537304429587,122.2690096564205,103.28027202833377,86.9606979913064,77.55097544655186,58.14342434087948,35.27117040602488,21.259858918215656,1.6234478257509792,-26.004379051654634,-42.98738334964243,-55.363750327096426,-76.15242762038913,-91.28339709036494,-97.56215070616511,-111.31647767822948,-123.8673421003604,-121.32910063900684,-119.17746827604964,-122.24329342928522,-113.92801533004686,-101.41837424270454,-97.02685828571488,-83.66693757873722,-56.01626442408583,-31.886398252361744,-6.092439784473385,31.81223393854669,63.73252318759794,83.38193709532936,106.68331782997683,126.21700803097349,128.94369746906213,130.68005915834263,136.83732034968904,131.00728856185128,120.25766933598652,117.74889250229167,107.76887418771602,85.30806389442783,67.90015938956017,50.365267728864396,21.664660529667145,-1.4729937193324192,-14.67189518942925,-36.172239002578486,-59.32274101618963,-69.38884338503013,-79.87729738252509,-95.55936672551536,-101.70346644196778,-106.99113097504436,-123.98055219247277,-134.7708080717032,-131.99585632371026,-131.71173802552582,-127.62143572579296,-106.61294375744703,-83.9013901918279,-65.69789642304134,-37.40118009753674,-7.031098764085296,12.198239131871572,35.6226949442664,66.90163617100725,86.51303912057632,98.82547522211811,116.71004869688728,126.44712082753068,124.48562719989653,127.25575987984855,127.03724769261831,110.94978730593157,95.52993152721696,86.07188454708191,65.91309228677798,43.653753394831156,34.69247597692268,24.500723859553194,7.427935242020335,-2.194852940287336,-13.942169827434391,-41.34401047384851,-66.50504134677429,-81.01116139401645,-99.58965043485127,-115.5621779773467,-116.80555648622187,-119.5505180413134,-128.9776978507967,-127.25352539761029,-119.92065391311539,-119.69600610976397,-110.25762794555021,-85.5393098496479,-62.23080845520765,-34.521087448341504,7.328807919474517,42.62857851886929,63.20592516677919,86.73236034246757,108.95009773887612,118.08471980543433,129.46133231453632,146.00306001463125,147.3339220287756,138.55760857398542,134.80631327637846,124.10190785884636,103.32350070574338,89.47952884495726,75.68226921998841,48.39716720683401,24.027603613464727,10.232600240846637,-9.373791591969034,-30.225525127562694,-40.64840741707233,-55.654311378073594,-77.8906420567448,-87.55365701587866,-91.26097412665851,-105.49931636425603,-117.2185065836485,-120.24701963195834,-129.04899911465793,-134.53865535728553,-121.60737569353819,-106.38072750779195,-95.76905480342597,-72.23596076459192,-41.173421822207274,-17.4723616861088,10.541916940070749,44.75922291598541,67.02131114431155,84.15237403506676,109.66279500513667,127.82675031258223,132.34285810011528,139.32213255187145,142.9962489009652,131.509562743043,120.85717830835898,115.74463845506648,98.6980417241633,77.02355906622607,65.78975047112931,50.64119392046594,26.07576040395135,8.321236132560342,-10.190663466225413,-42.980477481456354,-71.65931378982197,-86.484622696062,-102.61571489203973,-115.59425930326434,-116.0659689191353,-122.11990720344252,-138.01326046944453,-142.68540658233925,-138.8384405155499,-139.00928660800798,-129.02435313004545,-104.3321443469481,-81.82494771540009,-56.26281878291533,-18.00427264489513,13.459374020216341,31.16476726145084,53.55645798690419,76.78483746108515,88.47103339593168,102.84867475164862,123.41281642313328,132.0204713568161,134.76566252331952,143.96444791863888,142.0870512105018,123.67249183107013,109.07995400684979,95.3364841756395,69.95067482907763,47.48731577622456,32.38863874786515,7.814092438212359,-17.817176824495643,-28.171897117468262,-38.34103032998461,-57.045683492569914,-69.41021048719541,-80.72762917942535,-103.58679190246576,-122.31163482609541,-130.3934164914372,-144.72104623954172,-158.3178650172741,-153.862946829215,-143.34769660756692,-133.16145750403774,-109.16795706761157,-80.0141256750773,-60.657300061244925,-35.82959656329511,0.1152297011355028,28.33413593237176,52.59957848292476,85.31969138366105,110.7721757117439,122.21124899167496,134.9177406633133,142.11150088514907,131.5288177656654,120.78658574113544,118.4351116860756,109.35019028058113,98.8511688760752,98.47015733424293,91.0978454764408,68.99914335705435,48.66807335451732,26.66005005910401,-6.500183719532753,-32.38535695512288,-44.4939277483211,-61.72197753404716,-79.83863414949947,-85.06485540225982,-92.00755338746306,-106.05972057529574,-109.93622061374644,-110.92295178621376,-124.1332859469241,-133.01539401285623,-128.7965880398491,-126.19059039396129,-116.66602985512972,-84.43500629597028,-46.26533561763597,-13.391176035135025,25.772535003825357,62.2656842409651,81.68574113569382,99.96478885542614,123.67002871825066,134.50189021157314,136.31450325869653,143.20305874571426,142.82578636548794,131.02274157910657,124.55135937814688,117.30881024339786,95.85759583791861,75.79261510911266,64.00956466261584,43.48465167775214,19.375714485255273,6.3643898094285465,-9.356430183153297,-34.45102754852633,-53.40178337585448,-72.10662660885924,-102.27733459351433,-126.24422111502818,-136.9997322640076,-152.64469042842293,-168.9817280893088,-171.47856115241697,-171.87907524720038,-174.11775379551784,-161.78802383376953,-141.26654303873792,-125.68159713956783,-99.49601237972348,-57.71869422570073,-21.460679519670457,8.84460684945634,43.58983205063842,68.89498537503187,81.15822721780998,99.3872180637263,118.25132239323366,120.82168060379837,118.19848626382097,116.17293139291243,100.146444965538,79.33802743522173,71.98546948578141,65.41495936792658,51.747215062161544,45.07216871776343,38.4305723257651,17.59496072297893,-2.4123305920564713,-14.297125715095865,-34.23109117877115,-56.56135194051416,-66.1622280719109,-75.9681313457039,-91.65858404452706,-96.51660721899503,-96.71634197302838,-107.35869165734744,-112.90649813120402,-104.58426355831736,-98.42963005016824,-88.89297077417301,-61.16556515644933,-30.143547513628086,-3.6056788304490794,33.72005681259277,73.35544549976613,96.92461438400031,116.83865594734259,140.05889328447094,150.3275743156073,153.6602405060741,165.59896364591606,171.3511992180151,162.19408971571931,153.95861319277822,142.13930768751004,114.30349797751475,88.36313821375371,74.18238289099762,54.32405086275374,31.465909150385063,19.445114247171087,4.34406934272761,-20.41283310556938,-36.887775851028266,-48.85868899993419,-70.41651733900368,-86.98142344644201,-91.46377329262046,-101.90651452707853,-114.6661184522395,-114.59614480585856,-113.78994742047897,-116.59030738263985,-103.61685298425617,-78.6660665241724,-57.83864309689089,-31.157105464337633,3.499393687463307,26.75908420017234,44.286385602553224,73.14601995175494,100.84853053232813,118.62329014588126,138.58758553943636,152.46391615098526,145.77446180782925,134.76411117501763,129.634069023176,116.34113747129625,99.69963037708352,92.78597942935596,80.63391020816637,55.77417500721327,36.73463519774177,21.85588494146304,-3.3931723948573644,-26.869840477921656,-41.8009522825568,-64.19828895406421,-87.57268084303333,-94.73702393800855,-99.22885581040711,-110.27319308991622,-112.71668328994244,-111.46937696266332,-121.38937009778002,-128.5358197774568,-123.96699522028581,-121.06346895459146,-112.47986325743716,-83.82816250296727,-52.61359601804363,-30.81511381635138,-3.908293599087946,25.24644073258103,44.09856875940485,65.83937429103993,94.47635836806144,108.96584950268226,111.4050664539925,118.11754325517289,118.83268425096512,108.37277059329676,104.0113542186979,101.02786468767576,83.81191878243372,65.7744844707383,54.627721227614046,33.83735529978373,8.032661182200387,-7.309305872919605,-24.761249859092167,-50.48052192120371,-66.94090909168119,-78.206343583228,-98.89939881870595,-114.93474382532037,-118.86774069428023,-128.60077282701704,-141.00833147135384,-140.94487661192971,-140.6135766897179,-145.5547227148394,-137.0892567731153,-118.62306722175326,-105.6108757036545,-85.88554288271332,-53.83856545734994,-28.228934883484676,-6.748828650881103,23.75791662880179,48.6240207344989,60.44267104603624,76.96515641126958,95.41628543041696,101.92201019022708,108.35667867062031,117.9282008060549,111.0418915225014,93.10753415121758,83.68738348498731,74.6657926455849,60.862871469178515,57.24583096126009,55.77340283524279,38.13231080998656,18.345672232731175,8.372015510122276,-4.284674557487082,-13.360565022511171,-4.584530475653734,5.3002533795465965,5.72704182452714,12.269589022295625,20.536548658898678,15.35109199811119,10.006079499282531,12.069555871573916,5.197189191947411,-5.491200106101859,-4.229594398962618,-4.796045525427913,-15.05972692085942,-17.73742159717454,-17.254519342951046,-29.612293446008536,-41.25257619395907,-44.106178437764406,-54.630388474943274,-67.68878724410035,-67.30153865275358,-67.52825542022543,-77.50140925073755,-80.57317901465234,-79.53279943251852,-88.66217402461145,-93.95860364325029,-87.74887367157741,-88.55031455581342,-92.50205748258921,-81.0949349238213,-64.56769879420436,-50.32002765616588,-23.41655119790765,8.4205795032302,25.805359727508055,40.09900171051336,58.900936215462835,65.24230451698885,63.85728306877759,72.2063758492876,78.24967347439744,73.33303714787607,73.35133345343908,74.01613867091478,59.590885553544794,44.10686207291468,36.21279058008646,17.704867831464085,-8.08725522331547,-23.03916132851564,-37.155748655593335,-57.14637012990179,-66.56380515448699,-71.03700914923698,-88.21847970040022,-104.7093405113727,-109.61082901956448,-117.99683894410867,-127.57859760364951,-124.83315224382622,-123.25969732458435,-130.00618390119897,-125.69041799480105,-111.61656709444615,-103.17358153848001,-87.50679015978085,-55.83089515394913,-25.108247273149132,5.9386480008481595,48.82986016145006,86.74928431673978,109.47864022491689,134.03799054726505,157.8299556286688,164.85716089641133,167.6657665371556,175.43695875940838,172.39819016423903,163.11672256668714,163.88679040374527,160.16376920158345,140.71097550484114,120.81606873512598,97.760178387786,59.389526979939816,24.810929931441443,7.111917219684532,-11.191571530440141,-31.10014262206871,-41.08072443242676,-55.70798343023753,-81.4150168526852,-96.87636401611796,-102.83307716359741,-116.13685879767769,-125.79747315095632,-124.22899567585274,-128.45445183449743,-133.94903298486608,-122.34312828367436,-104.50015989426035,-88.69304464102431,-58.97792829316754,-20.158659352128286,10.052359201586185,42.7231472065544,84.14849387578272,114.13746413970946,132.8241960048444,155.32579570443303,171.54968029710338,175.81415023030536,183.64906814007645,187.8548858745872,170.74181786034922,148.16451699324347,135.13864869101724,118.80623533104495,100.19807690971919,89.7870238569209,71.56886625509671,38.810152634171175,14.025199658986391,-1.895679096715496,-25.909821638253433,-48.50787946393153,-62.50422751071858,-84.13204632881245,-107.55098873626379,-113.23505987665136,-114.11116429999606,-122.93590390426009,-125.52729808799293,-124.91174450352463,-134.66404949661265,-137.31001952681288,-120.65094708535814,-102.51561545131057,-82.95365890709554,-48.18213038768383,-11.809629316743367,16.754838338015475,52.85258812922193,90.77454337434841,111.91773161681685,128.0817055642025,149.44571860167514,161.07889033852393,165.04555863145376,173.48431890022988,171.28057224399325,150.2434035721249,130.0484628594803,112.38579563805993,84.79765560321303,59.564908820554365,43.735282480818796,19.97791332080839,-8.553030736510458,-24.504017270390218,-38.2444920416956,-58.79705301784604,-71.86826566535544,-81.882745332641,-104.45059909299968,-125.15543630586177,-132.71075688371255,-143.42325144204676,-156.10064369646642,-155.43367670101625,-151.72890903282413,-150.41401421090265,-133.23636098982053,-104.63013113556735,-83.32351661148962,-58.331637170699715,-20.892532300559434,11.476841949605165,38.93598653569334,74.21301904372564,102.95829763602582,116.37345663085851,132.34349145195785,148.15929495719035,146.24051856177925,137.99428721332083,133.71586262782813,119.15483347457565,98.00541912784331,86.29557028733122,72.8953073957081,50.18951050383607,35.2976482696925,25.622430205121198,3.3581069259813656,-22.60906649330708,-43.87988598586491,-73.59806343898447,-104.53301909887809,-117.20917165865978,-123.54135470800999,-136.39027130319496,-143.60966058456478,-148.48838505891396,-163.74732222372933,-171.90791525154265,-159.94264083893114,-144.985831469796,-127.92136722039248,-95.21926516143975,-60.456583413484935,-33.96477540122741,0.2987622424761991,38.96459940941977,63.86742748370841,85.41111312438525,112.11176672141372,127.18842018396354,133.1825180286035,146.12229931241916,152.89787903089115,142.67911381708467,131.42613650652743,118.63293526270917,92.08190629432539,67.22099320873787,54.21270300235053,35.49463242482539,12.086697373688125,-0.9990672144664257,-16.183319824549738,-42.00150119886235,-60.808581833081035,-73.79176806727591,-96.19495833416934,-115.80294681339399,-123.2889598617944,-135.49645596055225,-150.59037288430798,-151.54586679672872,-148.86521787139642,-151.39833037308938,-141.97092311238367,-121.59628801790089,-106.23499632753689,-84.52171565149244,-47.82580705944204,-14.856597202782197,13.003348221110599,49.35441575812806,81.65787294206962,100.40997607348909,121.70210664082552,142.35814471878462,144.4102986242403,138.98275255258847,137.28733432437605,125.9600480159753,109.13655437540736,102.67207374730496,93.34996883402245,70.7479892840336,51.71256620783723,36.7756185515706,12.56036158394555,-8.950842917122774,-19.681524705638825,-37.17081999248203,-59.88008562979734,-70.38442897609453,-77.87498093795409,-91.09963329551957,-95.41774586563879,-95.06603128457338,-107.26811347881548,-118.93196109488022,-117.39601233315112,-116.77371457124146,-114.96232809089061,-97.2894632609244,-76.62655834565486,-61.62677700064976,-34.742048928400344,0.9973047724813782,26.575773769942497,50.94462432668614,81.88131026109069,102.16882100738869,113.02574902771681,128.94850119932926,136.96377227884375,129.25292336751974,125.72384271962105,126.26605175519146,113.70951182775829,97.52401227658021,86.39255673408844,65.42134604546536,39.22311818967087,25.795481056078835,12.640622108348744,-12.049651771363406,-32.17604118332851,-47.792464466236204,-73.5179309707158,-96.19996912512286,-104.385918468303,-114.20519811429398,-125.0410618428609,-121.67001373317036,-117.19495827706753,-123.06607830956399,-121.86376663444547,-111.27006548255086,-104.15309840059598,-88.30158699895057,-55.642091660844706,-25.881006583255676,-1.0647933944885049,33.001733658030716,64.46144782371036,82.92700445057045,103.54488358906679,124.2206279420443,129.1613946496978,130.70068582851133,139.53589080572732,139.36373526375723,130.23047076297416,126.56348655175925,116.49741673593245,91.52754744220258,70.8085674858998,55.912878302919374,31.598794278865935,8.211570585944221,-5.631857129170184,-26.723602531348018,-52.26748582650221,-63.76070638700162,-72.54016356268298,-90.0990337061672,-100.64762113855002,-104.76420984199078,-116.88096448993706,-122.6140466776538,-109.73521692772277,-95.56167020155993,-80.92328058809008,-50.73966184611689,-18.784724630055596,2.4277741682440013,29.177536220055764,59.860535252418,76.42717591118091,89.20579017046018,107.8224096443115,115.32196019295662,112.52399412897803,115.65554978987535,113.47014182859787,96.55425686131804,83.70088392175674,77.11399995416261,61.61050777405151,46.58183272724951,39.247213077928116,21.056561218713682,-6.8869847982047085,-25.444850481843,-42.4486382455222,-66.51178374863332,-81.46740295295555,-89.57589403960097,-108.68413907555023,-127.31969095842175,-133.29185831373013,-141.78059941246661,-151.81535635412018,-147.466390605721,-141.23411020142584,-143.67254921253488,-135.33910489438958,-113.42050597926601,-93.56874807649439,-66.67629723814326,-26.00311385997653,8.163689483002754,34.21253375782094,67.82295022885454,96.84122279193615,108.96400134257757,119.96381020346018,130.932228235295,128.0542086659958,124.00368330977113,129.03683282982,124.85306519924761,110.45080574255815,103.08635142688082,93.14372210220854,69.91516387670114,49.725135882883194,32.72892465278199,3.0812326485348924,-26.309433686975893,-42.76613958060726,-63.227719264700305,-88.13735894132338,-99.60737791183898,-107.2280995179947,-122.04185824737168,-128.89761731401168,-129.81653233368954,-141.6343174870401,-150.12827107527932,-139.74138872650312,-124.43508588745046,-104.9678928096958,-68.49115198724908,-30.004690142112636,-2.4752704648917647,30.215626827243774,67.88003941592699,93.00515631665714,114.51362422744621,141.3156360273821,155.83420518184326,158.14690895832686,165.95230821866465,169.81969572182425,159.06617509253877,149.7933107570903,142.44960184417826,120.94440589420017,96.68953668023477,82.25347619261387,61.98412924902652,35.0307645994043,17.982294313139782,0.9820257216450541,-26.85115504605004,-48.73753652871908,-63.583564565057756,-87.50504025161459,-109.21659820164058,-116.99650196001542,-127.59857161954714,-142.1112007814575,-143.69609917655197,-141.10335101032095,-143.43713508775141,-133.80799750075903,-112.75371232321422,-98.09122202876779,-79.99340968901646,-46.53856502302246,-12.157527545527117,22.400610014045277,69.27445530042863,112.50215394379765,137.06345232992356,157.52244793402662,175.42190261332308,176.91869808001275,174.08288468394028,178.0480088287727,172.38490169769173,157.02628106535184,148.10485849664337,134.5486792415042,106.12381475799663,80.4184721206918,58.70117356608912,25.272167952991722,-8.682793715713391,-30.598625878255746,-54.57761211160155,-79.80910456382352,-90.5427885506179,-99.63084223091451,-119.75406752708898,-133.56177535562256,-138.34082445000192,-149.0307445978304,-155.46431407484192,-148.10627165745484,-143.8762125705365,-142.27920294299716,-125.14304582062357,-101.51818476752268,-82.22082083106775,-51.73401128499597,-11.459533799903529,19.00869539241606,46.73114719327075,80.90080568674243,105.6524309174465,122.09068764245113,146.8461804518022,166.91870501529513,167.548119162223,163.22139359330188,156.09361816474006,133.73981833694265,110.47968554500608,99.34691639059487,83.48386799241169,60.76937713197739,47.02782245818999,31.482447237314453,2.9189588307803884,-20.616628403229672,-36.65343334044963,-61.31202116506382,-84.09246471294227,-93.74159036486984,-107.70029469534464,-128.29270595654657,-139.30933175564593,-149.50743976883976,-167.41033928003213,-173.38925584867985,-164.3677371268885,-157.53442871095314,-145.19107590596244,-118.09302331077348,-93.08242439857872,-70.39256088779743,-33.5543475467848,5.2402968289156675,31.876716796444658,60.35143979395524,89.84940822916528,103.24410483974373,111.35852114873748,125.55234567522874,129.19748445250377,122.8893066674615,124.96512598625992,124.4337210132963,108.02031086705637,91.83060256089777,77.71409637499065,50.514841327323396,23.10339160459528,8.33470127633012,-11.575952207960173,-38.074862594713935,-52.3392817060044,-63.36483033793726,-84.01285302486065,-99.14186313183072,-107.71457151418099,-126.32363496233384,-143.55048962796144,-145.3224473186742,-147.12965250346068,-150.78785868987782,-139.14761636646963,-120.9815134694187,-107.4548281695434,-82.50965372281536,-45.80846653445807,-16.37404720475957,11.782906281235697,46.625882908337566,71.20186210975292,85.94813116623499,109.38511423861716,131.69771565012996,138.49538025743075,142.73786310633193,145.51937582227072,133.23673551484984,119.52191143554825,117.28344978538196,107.80881016372396,86.69871536420032,71.01964484276931,53.5782296080869,24.89116590640166,2.8784689988324126,-10.50570258499278,-32.79993212594686,-54.62389180251063,-64.09477040186435,-77.87508715303198,-97.74753479108209,-106.12533144021225,-112.3836225077361,-129.5071440054605,-141.3033927785749,-143.40368925456917,-148.85700597996663,-145.26137673657743,-120.67197781759323,-94.30181838971221,-71.66034961811701,-38.52710363618552,-5.083053618695795,17.14966802903592,43.78010300083214,75.50666755675643,94.71920151025616,109.19743724171897,128.8892659400975,137.61814907413785,135.11404112444347,139.39019534122548,141.40957895044932,128.82776816146864,117.33722814033177,109.46757316836405,89.09944696094604,65.55331788214738,51.129571998219234,30.840891062798924,4.419511602828749,-9.382822439207215,-19.322914390293626,-39.547851397079654,-56.55775314333745,-68.45002617575162,-90.22648128789902,-110.60969759384268,-115.95346040421606,-122.14034263153117,-132.8092485511812,-132.57248149563304,-129.83896677336372,-133.1576893913935,-122.74938627857827,-95.75493259915265,-71.21201129770168,-44.298000369982574,-7.44258554957884,22.180177301972613,43.562422678210616,73.53723525967825,102.25246540802812,116.94370040759205,132.08176331295917,147.69753502834232,145.5951922719185,135.06067402040784,129.9752821765708,117.42552229460566,97.91430619930884,88.37082369697704,78.23271135701927,55.032256967642226,36.04222485594165,24.915557145803398,5.040080026212552,-15.714719391894903,-26.722417498740647,-44.204025196087336,-68.76475980392419,-81.15483376045535,-89.10977492225683,-105.15827673871192,-114.3167370450738,-115.26202105188861,-125.55090770484483,-135.42053016208789,-130.0313742300415,-122.92102786950075,-115.48268285892105,-91.10838405147999,-60.31352806172407,-36.84582460723526,-5.560235520997706,34.13372765430435,62.590168008639374,85.60244671350631,112.67974640715826,127.68850719230218,129.94052510472287,137.74130062961328,143.32801256693915,135.09041484074754,128.49170260161367,125.02263897724615,107.38477938400091,84.94722091727259,71.3766792236503,52.75904547525498,28.376681695492117,15.996389418294935,6.7893578826567005,-12.862120224073868,-29.08273124025751,-40.32162923330819,-62.65733248647677,-84.60204545470259,-90.85472844738288,-96.98835583752157,-107.52498580008745,-107.28664309092242,-105.66080626875507,-114.46923558584614,-115.95131866584677,-105.36044872318678,-98.4318453712116,-85.76796601536493,-55.15090829655246,-24.538855815822366,0.35454333637289626,33.935026841303525,66.7057873808607,86.6445892276736,108.7723598185421,133.78548473690776,143.04733084284513,143.46264103239596,146.81980089461007,139.23215398939357,121.04027543260581,111.32992818383119,102.26495766611717,81.19371981965963,62.81574657758969,48.25139119051932,20.70325609420838,-8.604280278026746,-24.4113747171856,-41.12113452831404,-61.941806827262624,-71.86542456316201,-80.76380538265194,-100.22913373133504,-111.8228084555987,-111.09001447984407,-116.1625255901984,-119.95717773468087,-109.19804694972848,-97.52183006855762,-86.21459418322485,-59.338074981116485,-28.678385070716857,-9.54057695974834,12.85900623594364,41.19959923834801,57.87769859456594,69.89901408649357,88.81472157487526,99.44328992415328,99.72458994752732,105.92173915043388,107.8307696414207,91.88818317281036,74.85841326885998,62.28685362920609,39.871980545498076,17.990458429667896,9.956418796842275,-0.9652779365538438,-19.421059747584643,-29.39302521507298,-39.102593875062425,-60.33593393406803,-76.72629669814044,-85.49001908673492,-104.22774286599599,-123.65076598351114,-128.05593613138566,-130.88124794870916,-136.28417997674666,-130.53223212317585,-124.17287370732363,-128.7180450871702,-124.17151412877942,-104.00417889795062,-86.16487907747589,-66.1153526729601,-34.07850338982771,-6.619830777287698,13.170561173911603,41.75882008386973,69.54979649222263,82.3060881561358,95.15238788386951,111.57941494340116,113.61122273648229,107.82829806130759,107.54566892838614,99.52212950107912,82.55590390882386,74.25466242978581,66.08194624224815,45.223878246162975,28.6551925278589,21.188966539279505,5.302920834244746,-12.798848852038873,-21.529278140594634,-36.226732928909875,-58.23404869815427,-68.55043161983397,-75.279813089923,-92.14861304248221,-103.97368705141409,-107.50742213963272,-119.1128953566168,-128.62533368297395,-120.44081337117221,-108.47200266311427,-95.95374035176485,-67.20067727835313,-32.73182829510429,-7.447584773789201,22.902491402402156,60.277960378595914,86.07047589843364,106.61370956093864,133.5011869599376,150.91369496191325,155.9101406677251,165.24354126819793,169.82143089871602,156.6178259244033,141.84824464123415,130.53798819900896,108.88958517496664,86.74007700702315,75.88597304559434,59.72035710957229,34.77016474440346,18.160032208222727,3.0324246470827356,-21.80454394797933,-39.984696548293165,-47.99746698829172,-63.29083857725871,-78.91596330511933,-83.42822930630531,-93.29489158260895,-111.39729354028138,-118.91695670241579,-121.85571003144936,-131.72227476320387,-132.06727858114454,-118.73334503510796,-108.07537491480159,-91.9028473515376,-57.989619644261616,-23.270485155247364,6.3291061704070595,44.53729821822999,81.13742150563864,102.78428082096353,124.75799873622192,149.34275062930638,158.27264922797798,158.85149591330827,164.41458366256234,161.29435139395247,147.73754665753623,140.3521075848,129.5171781232719,102.1980569310332,76.28541001905536,58.44826913889438,33.74825766275012,10.227340043903489,-0.7729580571674175,-16.620755251387344,-41.17106351071127,-55.89509648631903,-67.170597330656,-88.33816771577989,-105.11733129032103,-114.00849604087882,-131.26055933908071,-147.10998749639825,-145.31609306905003,-140.2924405745078,-138.26513226982527,-124.20448873745428,-105.4706467588878,-94.528737741837,-75.42006222090268,-43.70639210196036,-17.332821930473372,8.29027406625342,43.58861203705183,72.97120381660547,92.566668623938,117.92097586612678,139.93671350036047,143.68441381647753,143.00878665083764,143.6934422014413,133.41582783731258,122.60738172663955,122.67349336666219,113.86876746920794,89.67909333928846,68.16286886847062,45.04617704512097,11.53371002181521,-13.903103692879574,-27.93820057480517,-49.9098275255305,-72.87808750311675,-83.2185939761978,-96.42044856069174,-115.68377514756367,-122.31125962634303,-124.04819174129786,-135.73927691777493,-142.36592071207502,-138.89505596162462,-141.68072650979676,-142.43431315825302,-125.99141185990024,-106.1489192811458,-87.22397592719142,-53.52310885787327,-14.797030083303712,11.919039436908049,38.27995584141074,67.29124066606548,82.96577345903385,93.57971373912899,112.15622090994287,122.64090823684816,120.1861864026181,122.0180643977273,122.37747220861462,109.34640761150695,97.89012784588742,90.73075711844032,69.47324641351808,42.65528753796529,27.47798863871396,11.28997207175244,-10.593364532802035,-23.0330595844867,-35.229508381373776,-60.73113673086504,-81.51922184168947,-89.88853759916763,-102.68594278408595,-114.86598174033456,-114.19988050708966,-116.18933127895869,-124.98977443220431,-122.03049821389612,-113.55600953497373,-113.38385701341075,-105.46488108642657,-83.15147368831953,-62.86739291311437,-39.431611565620514,-2.7340717106864414,28.39849215270626,47.41350319549842,72.08282963253558,96.7222934261499,107.85203201087575,119.48537498914249,134.3232461681801,133.811897966018,124.68654349902809,121.19232065883105,110.35270745128143,89.79650872896393,76.96007632902169,64.79533206680054,40.138313049934325,18.213749312128897,4.190073029955336,-18.271122469654394,-42.51316943146088,-55.02075065098117,-69.37009396784703,-88.43441106152551,-94.53406421446151,-95.92446009135543,-108.54324347112865,-117.63329513023058,-116.45917234913246,-120.12148802704999,-120.89399588728351,-105.86004971988854,-91.6457544881672,-83.10649640093672,-61.51604192172591,-32.68133749465221,-11.659714101017801,13.137223867835726,43.68157532696973,62.75889182829361,78.08798305852679,102.9970415306765,121.0193189988661,125.50676811130107,132.18698881263794,134.91719771655113,122.37284659776216,111.15397891334683,106.0431044225301,89.66079648073617,68.82831231912178,57.331265433277814,40.643958844602594,15.006218991768929,-1.4681493692122771,-15.255084077780506,-40.13660622997138,-60.96864990281796,-72.99780235343516,-93.2331618816302,-113.1130508527171,-116.6396274868046,-118.61916158228868,-125.34428368316614,-121.30120891139828,-114.22601782058945,-116.71349788499654,-111.43759428340181,-93.04881494524547,-79.08100884232681,-62.30305842447946,-29.040992237632185,4.514851103699636,30.89672484505304,62.63026091642066,89.55840051663563,98.95156379126047,109.04486924320803,126.26652688203947,132.40718576369989,131.67194279093857,135.85144180345858,130.86850117730955,114.7867103789813,106.02029038994672,96.87583961228323,72.68456425652286,49.16329169211791,33.90463250908887,12.230635228404473,-9.757108569400742,-20.893067771423,-37.385358251093656,-62.92056670986756,-77.88430501853702,-86.86006186026788,-103.45684432125526,-114.05778862842928,-114.49634173517256,-122.11948215487404,-130.62352081432135,-125.52699239495064,-119.98918390122428,-117.48841878261742,-99.99148616467826,-74.12154158999596,-54.80821882119534,-28.432086527273448,8.737631614613269,37.76851410235358,63.5109175319101,98.64607633124567,126.91754268899588,141.89286446044298,159.60530650442797,172.17658033191077,165.4629749563642,156.2572092454762,152.1024907211465,136.87190174800833,116.69558801994876,104.97453949300561,86.74542790715185,57.246427795208206,35.34023896200111,16.822869454758507,-11.610379807853409,-35.17660515992769,-47.826820190988386,-66.16862562752166,-84.11769600445444,-88.03203073765587,-93.26351023193004,-105.99276764893507,-109.3884844885626,-109.33903011483093,-118.92263243902924,-121.88143436514471,-111.50605001637135,-104.12960851511377,-93.43409228051873,-66.58305500818989,-39.565313213892246,-18.264396506012833,13.421480815784587,47.420652235759846,67.97855418379642,88.35413961230933,112.52876183314608,122.36117578296287,124.0031666364328,132.27602202631044,133.8271244336928,124.83890529415686,123.00802808049926,120.78295360689648,102.13226684744096,81.58857748065104,66.87507521363744,43.18530214580692,17.339393016473785,3.106206482596089,-14.814640469552886,-41.59098326102032,-58.13606253805736,-69.27216976934852,-89.79690053359528,-106.14522176927065,-112.82276337367955,-126.02799534743983,-138.54919512225683,-135.79777961943705,-132.75589012282816,-134.851527583137,-123.91659154903053,-105.19434220441413,-92.44295522819924,-71.18152019230898,-37.061049864444016,-9.57941853256112,14.459612220047994,47.13079818792427,73.15631098777546,87.22401664999602,106.48745923862529,123.50798807602166,122.64120802766007,119.05724733492482,120.19092826640393,110.95007577019153,98.97234498123657,97.91697430401705,91.20358134906044,71.74600319339399,56.274111502015955,40.225323737271914,12.748514143440458,-8.671313510853423,-18.398017430239918,-36.13066787838142,-58.0220219782439,-69.33578661958309,-82.43956807722968,-101.71393373012884,-109.99353161233958,-113.42530755909598,-126.40658180138703,-134.1110109715747,-130.1550993159143,-131.3170620125894,-130.87243448188835,-112.4082997217948,-88.84331831059738,-67.64883566935876,-36.03003328209528,-2.987347950058828,17.26686337195131,40.181294673632955,70.93664713728144,90.54702651146549,102.50382264277562,119.54285222983839,128.36182756348808,125.20881186414304,126.84078715559428,126.16913600085985,109.29216825490792,91.87615923862528,80.91526188635392,60.48470304250367,37.13977146826974,25.648716541588904,11.903465060096138,-10.051280283412648,-23.718815451506394,-35.796649750222024,-60.20577543007041,-79.91294307336082,-86.91077156274639,-98.49379291149539,-110.13407645644962,-109.11447716964574,-111.20007774847876,-121.73793886510438,-121.3004896744448,-113.0901815457581,-109.56004467456806,-95.4663729713493,-66.12050661170414,-42.01061098976149,-20.67442286906039,11.186337062294854,40.00645819894875,60.29479312357287,87.73087916147988,114.16989297875199,122.85011662511354,127.42776678193088,135.54819864762655,131.50230311544294,120.7833303873847,117.70685866589204,108.81520275172288,89.36441447861485,76.90002872944427,65.15423375688239,39.13566319266755,13.90710875350738,-2.446538211867842,-24.974884095873303,-47.62178667450238,-57.28621049226042,-69.29782633622281,-88.85629709739479,-97.35191248620058,-99.74997780630812,-110.07098637700581,-112.65001256302045,-99.96141168273562,-88.58896882568261,-73.98043738237917,-45.14405493721317,-20.36157184652177,-6.5674601331138005,15.226149191101502,40.9930394335103,55.88714216314617,71.65343687187607,91.10953228549482,95.55224862205517,91.1130541249857,93.72937948398311,90.33339085370805,75.62236507232736,