134.56916355104434,138.42085949673088,132.57440567123493,145.85852181093824,154.9263922368125,137.22990697811488,124.59062689145833,121.54085269886504,102.41652356380735,90.56924778633997,106.42840957111997,115.45830156830573,110.48332325959355,116.7420216278872,114.75248751138224,90.49946130520617,82.5565851274492,93.9485207531413,89.57189880208756,84.7125989448578,97.59827519025428,95.74078732070828,79.1662463414048,81.08860736406788,82.65075137097135,65.77312079095208,66.73891999150146,87.2278594189623,89.01333447345748,84.36408991983095,92.93949566643283,86.08073650259826,65.87559821246406,68.32174211109471,75.60404148831057,61.41693338242993,51.84471040440775,50.22115337878682,29.557855855932367,11.692942548621113,17.63584885558453,11.759036163787815,-12.549990601295102,-22.568243134717342,-30.59502988482457,-51.26150744710384,-53.143162694817576,-39.58160082857919,-44.15245922992894,-44.974896558325845,-19.370733215996317,-0.1147153951549309,6.995477014265999,25.85459174415729,31.791071123636655,7.1325298106470045,-9.082349540094802,-9.246355644395523,-20.865204872533766,-26.24206275532978,-12.927074327386562,-18.210115856165327,-40.869324807048734,-43.67468347294265,-42.07538223799418,-55.28829578518669,-54.49306167469189,-43.89190593499377,-56.10234212462113,-68.07368963570525,-56.999111019595254,-52.828040957113046,-55.319062082046315,-36.476378923036876,-20.614107680064443,-29.462845339117386,-32.078505818506585,-26.084904951186658,-38.82013910878854,-50.329532198965794,-42.29659812979218,-45.648633859513566,-59.717361254015195,-50.83121247616735,-34.35756330906152,-29.086367838704227,-7.940085200198487,23.509394128916743,29.55908657295071,28.994376919905022,45.8587362953597,55.093228894397456,59.33042569503692,86.40397598091454,109.43545814566436,103.93644681344612,102.41777092666734,110.74664239004987,103.63768784350233,100.86204508225019,116.63948338319632,115.70511526774746,98.3071456012805,98.76183547705945,100.9977212079442,85.5924860995125,81.77818338477412,90.10704157998126,80.14495356417493,70.65019124496189,81.64325570614375,80.54022441003906,63.52773555882764,62.555329395981445,62.226539092132285,43.43765375185255,34.90552323027289,35.874510986449906,15.72308594197121,-5.777869829181788,-5.96286144182299,-9.74934247911482,-16.905978134169356,-5.065459498590084,-0.9998585236140178,-24.27676481538599,-40.5851831983617,-44.612274563036976,-62.03200198729334,-74.73644102332382,-69.16903865493649,-76.44562036124982,-91.9698173214969,-83.33626681727259,-71.1781267796234,-76.99372782838303,-72.47838994362468,-57.36433952738753,-60.1584936439276,-61.8254676976034,-45.093106271243315,-40.70594562288548,-48.15444931187369,-37.034941166647286,-24.621063867890733,-28.065857156614058,-19.482538644567384,-3.209143800709298,-11.240670480486953,-24.466280377221572,-22.311223099910382,-31.031678093495742,-49.27781615384957,-50.488170331675384,-53.30012915936021,-69.83352045149175,-67.23434897059073,-49.481746974698936,-51.11489375867485,-56.94710619085444,-48.87555775622948,-50.77365350790926,-55.04943856388353,-32.036786135042554,-7.437882462952617,-6.2319416087833535,-2.903628968416024,0.6768855717768456,-20.387176328786364,-38.7897520837898,-31.853776113190122,-30.86061027236334,-39.6859430252921,-32.63625087942387,-28.341230962146433,-40.881733451292384,-38.43635086435731,-23.459337541896573,-26.801498505994246,-29.430882209655685,-14.128980159713285,-10.307469641450329,-15.83650955301358,-2.6188466681603204,8.82059347598132,0.6117660468313719,0.1489243491469554,4.689276905213985,-12.139621126123568,-25.106531781232007,-10.978010462876748,0.07511080286048322,2.756693990969482,20.188768450013463,31.28595676209707,22.080540881462838,26.98263728450548,44.87707885889415,44.34870667959461,43.49331624011159,60.70599561313814,70.15811839987244,73.44332733053476,91.18221091372502,96.40497815505239,73.96069482039067,61.43511700018962,63.193285589334295,49.82099808907175,36.429403500447194,38.80913920707097,32.69654917088819,27.01459137881756,49.500714042904754,70.50900940541665,65.69805210671002,66.14201736237393,75.00038106393691,66.66871879094678,60.452692871408075,69.57240215732821,61.96422671607246,43.73967913450726,49.61741827464686,59.38065144713137,51.851011766924486,52.3708477348256,53.95501459954697,26.996575500191074,-2.4468074075954274,-9.921042889878168,-20.91667197786091,-34.33553274284682,-26.418056834955202,-20.817425898566384,-36.6719025035245,-46.00610896583797,-45.48301536623356,-54.11161393261435,-51.83989387707615,-30.461789594226907,-26.592653926616798,-42.63896788181624,-50.48738916097387,-61.451529886607,-83.67736979970273,-88.99157473870528,-82.52995965056738,-90.88373280210081,-93.71507736089569,-77.80612785332613,-75.21435457833685,-83.66544340496145,-73.71009155332477,-63.35224615791741,-68.98442602274905,-64.70527528887247,-53.98435628197183,-61.24930801208857,-63.62738575633743,-44.199423601833885,-32.4011967008411,-28.991158591610102,-11.39336725353605,-2.343377849187105,-18.72438514115502,-30.956789307105204,-35.69556788986261,-52.14661123397249,-58.81179232839063,-44.843764685012815,-44.37013846957365,-58.23609708173824,-57.9770272536113,-56.421956086069684,-63.896378194044416,-51.61675350333594,-23.141434856531355,-8.174824244646247,6.690398200098786,30.770128532746416,34.2117989416749,23.55118497398157,30.992447533921247,41.38819573715972,41.665954810391824,57.44185001193893,81.29047373318663,85.2194797057539,88.31944875660048,104.21152548875554,105.54258405186297,96.91249404248988,103.52132454585302,103.73621517600742,84.19663042903618,77.81421908239034,85.25121548235322,78.42906889447582,70.38710706573846,72.6382543675999,62.08068035482418,47.1051378138971,52.22097304819937,51.63559892534099,25.225055121997492,1.874280766293758,-11.83236560457634,-32.76208166382642,-43.317023393071175,-36.47230328026743,-41.90317262345074,-54.0513371906046,-46.51759187257478,-39.53157858349209,-47.75031513169049,-44.62189383693353,-34.162937732130196,-41.544421145028174,-48.90619262948289,-44.54750850169723,-54.42459866106407,-70.93595061043956,-65.86613142738526,-59.41885238736164,-69.49399691500663,-70.68951974920655,-62.95068738511442,-67.20939616391735,-64.05101410571278,-43.77837220085167,-38.22222864004515,-44.67139015254516,-34.93028482652754,-24.150863129729423,-23.544107217124115,-8.324976448293981,12.265126884182504,10.649860706380567,7.490842689138757,15.855877983026748,6.511884950565478,-15.010422852348663,-18.892853859603072,-21.56504877756088,-36.26312123787003,-36.700205039622716,-28.673222498823012,-38.61222643921549,-43.59658448394913,-24.952768359480253,-11.070805948597531,-4.85717535339728,13.491395630365144,23.376086627040927,13.551742224821911,15.200425922039443,25.701915449792555,15.868987002934965,1.4128434475852538,-1.7112193962708462,-15.177423585844585,-30.293381502848383,-19.54328734325809,-6.6533134455087835,-12.300212070235787,-9.852102125887473,-0.2440897888879041,-9.172755785794221,-16.517325117295048,-5.270142880580808,-2.890696733303534,-6.512697217888692,10.792342570601322,27.345649715391698,24.306133885784785,27.780731319512896,34.68586299700526,19.81314727469565,5.785571954051573,10.922873662709085,8.84618866000878,3.3372693368456874,20.940679319998267,40.11282118995823,42.758217457449454,53.94230311036591,68.9428075439446,62.958525503089945,59.674862358363924,76.64305051474906,84.51544088527416,82.30139481126278,93.55714127990458,99.83401487880685,88.52389909242073,86.6842311305238,89.21066469118234,71.55528335460535,58.19251161200176,66.94286120800706,68.04102241771744,60.338753418121335,67.72971690389448,71.41901448800337,60.42065354851131,66.53178998555998,83.62468826950563,78.45701088226822,70.44099292882224,78.35177040149021,74.09723595761643,59.894373932978425,63.25459847664117,64.18311398118587,46.98568006245556,39.56313790950361,36.88719574315555,12.749728571934828,-8.145447332296559,-7.019508050214541,-11.765665786777785,-21.992565666136446,-17.25861060110409,-20.04925159907225,-40.45643716185558,-46.471174788342,-42.023681945809784,-52.84410568448051,-58.60269974316495,-47.78145642527264,-50.58885883968141,-63.15059262341268,-59.963388513666445,-60.891202897385334,-78.16581287524792,-83.67211095240349,-82.08688261216066,-96.36622109079256,-102.052764301283,-83.66266220272442,-70.647380879959,-64.27924551029017,-45.00489998665033,-33.55702775599818,-40.102528650232095,-34.23196853660422,-20.322744517284374,-26.06453640266932,-32.53801283161185,-24.297608749840823,-25.876923269050067,-32.04523356823869,-20.81097432880638,-15.83654128423403,-28.064853935287154,-25.27996939755613,-12.050903875428396,-16.7203248703995,-21.97292167542968,-15.252661929104551,-20.882958936893147,-30.107559709671747,-17.831241520496704,-8.580182447037252,-18.344571680464913,-17.08604087948829,-6.560314955693963,-12.681789991976293,-16.297439218782596,-4.575109536305986,-5.815114494019409,-14.849471739549891,-4.026518052563518,8.335140671761689,7.663855653050596,18.658466982154962,34.70396505773727,28.89169935600598,21.893920012900654,32.21346205184017,37.630441207201336,41.127647846737396,61.519562030995914,73.831150434901,63.04566157486525,58.10407066700651,59.37751603312506,46.113109304267596,38.09705793407817,46.07643198379702,41.62301130039214,28.924655719314806,32.116855022605336,30.590368021752706,12.423432643159442,6.9543851263869065,9.640345253682954,-6.1695451128209235,-20.864395640672704,-18.89064973241183,-22.681101295177022,-23.049834148174963,4.153714425808756,30.339305736079588,32.96032542023316,38.214352395303365,47.47323160984709,40.818847256758076,38.53029926026188,50.41670302098163,46.74991406733609,34.9421170341887,45.36554211179448,57.90409909271344,52.88744386746811,50.651553204530174,45.03073044274,18.342218497243458,-0.46022632844972167,1.834344924594673,-7.833248433816287,-29.889931803172736,-40.69260750605318,-56.179224734271656,-84.47693068903371,-98.10232173263985,-105.56420171620087,-133.49245672588955,-156.56462586824722,-156.11398986978196,-160.74225771604733,-169.46190387037973,-159.40380202262486,-151.81178087162488,-156.84009609697216,-141.883692847848,-113.8284449500854,-105.98282930274638,-100.72160189690715,-81.83210472693423,-74.56051381399914,-71.70791442495637,-47.21522152860861,-25.856698529189153,-24.95050509983488,-16.076451754131103,-2.1054113060814066,-7.1067223443910414,-8.82218712926382,7.332455468961801,13.114703342661866,10.597049926490484,21.816771548322624,25.82396237369772,11.656094375987687,10.420370205444414,18.759155306885763,8.039240710946789,-3.6523379689814996,0.5468027988483293,-1.9837383534833373,-4.562042892021306,15.666558229102172,32.236176093650975,26.54963588624583,27.093389976840097,33.5649913348722,21.719356628119552,11.8571144901236,20.255382122478267,22.81083457181505,26.346825710105257,54.442075373619076,80.16480586404573,84.25738609106457,93.33402008170711,105.47548093159364,98.58981042925605,93.80929941286101,104.13400050526872,102.39497544347313,92.62173742436372,99.43341070280219,104.26773789348044,94.28064095125643,95.32525236712024,102.62960543227226,90.5067362239712,76.91158694965229,76.18526224284925,65.8810074184905,53.04858177225336,60.36222235665173,63.97535969246062,47.96393963832503,39.15895376186812,34.82378442574435,12.32979218795255,-6.7052986420648075,-10.524870350286658,-28.25830244878548,-51.53099782782517,-50.09578197173765,-43.14652835891981,-45.0933134084372,-31.10339240861633,-9.563912496535014,-6.2103031873462555,2.412342897863991,30.17298056660045,45.30877094465975,49.25746723099036,66.75193378685317,76.44324742924816,64.47490202865569,59.515574619627074,58.194434378953616,38.60568959179596,25.764611416287636,32.89693176206708,26.825773832951434,7.830486701590886,1.9776714949137633,-7.215780728452684,-28.84845434402307,-32.76945394524968,-25.56021800939582,-37.15459126158985,-49.14623258084598,-47.286480247803915,-58.340684441056126,-75.85195794061171,-72.29568113009734,-69.64858532820642,-86.25741650844958,-96.11122563056463,-98.77697752151012,-112.0936647508527,-111.02488698137012,-81.96454117871154,-57.841090432981474,-42.174582685992206,-13.365112151802222,9.280001740042259,12.466948547281923,23.19031093241905,37.44349081337495,31.04766479088549,25.900459597666412,35.6110766333932,30.33128170880795,14.005734028330032,15.33709503908564,18.12483204330062,9.947912293801341,15.222091155028789,22.873435036213163,3.695586010328441,-17.036600056828682,-17.113106657276667,-20.8558119223325,-26.397816661726917,-13.458763904838845,-6.5749407363833985,-18.8979732228275,-19.570429529167956,-12.959870025502209,-27.48654444251647,-45.09670186218774,-51.996577348653354,-71.95963488470277,-93.27243687827229,-85.23257251171697,-68.62810983605222,-61.269760929276295,-41.52509488847557,-18.617136801754715,-16.34476997816787,-9.178292201190233,17.96053518952241,35.02953783863781,43.12066370238338,64.12219816606625,76.63427102357134,68.95038510528249,69.60809011720302,74.05920126391332,59.50472155868039,49.6324622685982,58.15758281336604,55.303365009387875,42.43909325625759,41.74910636122136,33.92127303128804,11.083258060009301,4.960762857360978,9.647614289976127,-3.791168937056084,-16.496129769145824,-13.860974351853152,-20.023842938155415,-27.311349541836325,-13.423180885180571,-6.067958883132023,-22.502789322718964,-34.231392213787885,-43.16124561261278,-69.53913021399983,-87.73953422685977,-82.60064841695005,-81.58846589594845,-80.99389637560229,-59.88386422653686,-42.64284343114205,-42.79975947740125,-32.68597973775444,-16.970810217895128,-17.842456609235636,-13.87192254800134,4.100537015671804,6.59656717310097,0.07101388627077121,10.23977485703741,18.691120765538606,15.213974183675962,24.69994333601114,36.87542317872724,26.379675260539337,16.86450565621024,22.441587289763014,14.793693731108114,-1.0806280785994824,1.2096352029120592,2.8580996321515126,-7.295132915614359,-0.3552275056932981,16.500618076498355,13.72197291232817,9.044557102129168,13.742670593764322,0.2779900244466429,-22.613652061787647,-26.533234623812007,-32.65770226093531,-55.98065156188871,-67.9331700375893,-68.05705051168198,-74.33199762593557,-64.40930493643383,-32.89733695073576,-17.32337903871911,-15.301727951099355,2.308743332080465,20.132116643132022,25.620374739653265,39.41347514742898,49.361254873624375,31.179970282676827,12.631426514949313,14.514615040624868,12.957323406506589,10.345569424773629,25.227258726332135,32.74129467358335,20.48710884307764,19.52868811408108,28.322751595522718,22.21460812622935,19.46523127769234,31.69160097319124,31.2760078453532,23.91126464538956,35.73767244321258,45.88714320641039,40.191582029420395,47.02602656660207,62.7965533000941,59.85834153153877,52.581718274855156,49.35566215700247,22.614723020768803,-17.005115983124185,-34.21866812221533,-40.75798031573988,-49.42359661786106,-39.504773917008976,-21.761353759751913,-23.42116075278072,-24.63255813711919,-10.487624434566722,-4.784712526703106,-2.262184172773003,18.814951918949518,35.94906728878015,33.99157288407654,36.80698271425511,40.45209449874962,25.767376440353672,16.29405054849238,24.737427254687752,23.42583533560118,15.626583228582746,22.781439471090945,23.505141396689087,6.989599582871881,2.7103611710898794,7.504775975143576,-2.481364864061865,-8.673252696156219,-0.20563262388693904,-3.1186241878200787,-10.512926119379072,1.0536533075904542,7.790602086417606,-5.574674356040822,-12.047577965730344,-14.676033000212966,-35.454456731613725,-54.3116500537933,-61.15197688963634,-80.99240613693206,-101.56331522738296,-94.58120343287538,-80.9609568402146,-75.54047839311866,-57.140961391920875,-35.871664087119406,-34.55354224767301,-30.305690335493004,-10.999374312552728,-3.09116703968563,-1.2354835287307366,15.734719785074773,26.635662119395167,22.213458875685973,30.4045143396492,44.84953627402576,40.68513304350843,36.15293995400857,42.41196805439159,36.105478797445656,26.06860367000662,34.82853572690903,39.16370249838521,27.10883562218426,27.042815219612717,34.584227091999345,26.300725504274208,21.796385051906604,32.600815760918415,34.10069233967488,33.002135948727826,48.352577537850266,51.74616524416959,26.852027542727186,3.133797422789596,-15.344571122697092,-42.54901559369199,-57.08668298268654,-52.45462585688938,-58.21480553892112,-67.85631390613246,-54.624796447343094,-35.268815377133485,-23.650553777658537,-2.4601674018316215,15.675103036651082,8.00113072464088,-0.8424352916825744,6.543225363963958,9.626072704469673,13.39522912753544,33.312456857185595,42.47479579542747,28.726125925977193,23.161616814953348,27.157255201037064,21.013443938216227,21.4260015740562,33.03831700824194,27.991164991980867,17.47277725096268,28.86213331443719,39.911811250497166,34.560539352633086,35.46541537532155,37.13116149854204,21.697132586372966,14.218800275705295,24.767156530077933,21.756271982191812,6.521984476134881,1.138412395694071,-12.885292104470025,-43.78418885623264,-61.44126107667402,-68.8542710946928,-88.16111947461204,-97.27036172191596,-82.76744707416435,-72.59655095386093,-65.88605502327354,-43.73346826468454,-27.70652431394258,-27.8673221189324,-16.61425520634571,0.0253147331261534,-2.0919086283276207,-3.51258671674127,7.669754866510219,7.7045471492132105,3.5189520245944546,15.14580983540203,19.40875797346392,7.239950540160083,8.998045064171942,19.911021074668906,15.592037973901004,13.937695924462377,23.895214642376413,20.520566571782716,13.825774645926858,27.915516718552155,38.92265432759251,32.20786015109304,34.1849972830596,41.54094433883871,32.689908110296436,25.818015933319582,28.65972297221852,13.7778033425341,-11.25571705644031,-19.61561158272933,-27.857983038362395,-45.96898552514658,-48.74324684162549,-42.6609081235996,-48.809430187241105,-44.849747734342756,-20.933473835815946,-7.483020542380192,-3.834491435275832,9.979096993133574,16.890511231564332,12.243831701261932,24.318051093911887,43.50798407578474,41.807286879466204,37.037938859620226,41.955761441738034,34.23634574471975,23.526761172734126,34.80143937165427,45.91046189328127,41.21828986799511,44.47366842116107,50.86614172984736,40.464737683325005,36.67786029049826,50.316976159084426,50.05694303714942,37.84479176805364,38.56494683638212,35.883217804080104,19.71894019465617,13.999365897732403,10.086078920433104,-14.0205633728004,-33.82654429081924,-35.80667031395411,-46.50966725759323,-60.56185713769577,-55.736534104016826,-51.77976991579396,-56.93227815252925,-44.980152470848935,-25.66609492068215,-23.927025516254165,-19.36751809884355,-0.8356418361460802,6.7117396872797075,9.692403524962916,27.20621903028248,34.77800624083428,22.08245027759838,19.270990867601068,24.36456991461543,16.81674167230448,15.421506162723068,26.307533235326726,20.479743355360092,6.31506447579442,10.562128103952457,14.420838617246552,5.499242913198481,6.858948750731282,10.293118319890047,-6.546919332621506,-20.51016379625391,-18.08495732406535,-25.80413307679649,-38.663225594025356,-33.80311807235437,-32.49466259050304,-47.14975801998703,-52.553334104749,-55.19260186076983,-76.39012256199098,-91.99837489308055,-87.36046477290049,-87.85794675704969,-89.54123630508036,-71.97130749581902,-56.43565113751813,-53.273246706621684,-35.58414680381907,-11.09320401097599,-6.070078473998441,-2.2828667922630888,10.942887391779335,8.760016836055847,0.8308341956729293,13.509232411369924,26.15577739503487,25.0984548036557,33.97570165347035,43.52367628837101,30.194346456820682,19.46734094505498,26.94229142529708,26.284156859535834,22.254396873007487,36.78663213749367,48.06718233595609,43.50642590120131,47.980689029998636,53.91547229139658,38.41411673211833,25.65127665420105,30.093499438183656,23.897108910568726,8.180063660458975,2.2761180418383224,-12.478894581763893,-40.26166295031622,-48.59015771877198,-43.47480998078813,-51.92893383300281,-55.992467832842905,-43.9315594224163,-39.02408250162736,-33.56335502176012,-9.000524519818905,7.216789055146858,2.1967228440258166,6.318650469195758,18.463145406221432,17.28110945899137,20.699459800818854,35.88065299057231,34.98652058360685,25.881002152686577,34.12286463626964,39.56198516580443,29.576938439574125,29.848209238218942,36.06296046296596,27.54489808241325,24.616090205470197,36.089299055419005,33.52390259736846,22.730034250130476,28.450325841432406,31.12797858115381,18.62085262448101,15.831570822957389,15.260374597085965,-6.614908449229781,-27.01525882873196,-30.751971057721697,-41.12320039337193,-50.8596484344683,-37.60137890761565,-25.401567537501368,-29.877553886827073,-25.466580771089276,-15.432289730532386,-20.50693595974999,-19.95358438752933,-3.223689659368228,3.371567986729274,5.305047216371872,23.1345654860681,34.02336741969006,25.961124004427077,25.67897104636874,29.19978219330764,16.214295740698372,8.13109188987234,15.456995619086094,11.9512960801237,3.7484652758518475,12.015747252982923,14.354123465932945,0.23298383456288096,-2.188178505738848,1.924215070863314,-10.232161521637412,-17.57602719262103,-8.592779898206029,-9.805575567586775,-15.916871353111233,-6.80209908812267,-6.555257640627773,-26.367505607824786,-37.17916779000957,-43.10734024829004,-66.01716829366806,-83.57329441318129,-82.87894523961455,-89.34226338546556,-96.80767661577084,-83.86409216423148,-72.69457111553851,-72.73662269996625,-54.71553911379545,-26.02277598061403,-14.769795901188822,-4.458798965134164,15.03410460018251,19.432894393930432,18.275686792686372,35.20631797880054,47.1057753728847,41.43350365288118,45.69377015545966,55.263920038617364,47.83086271519946,44.00138849209268,54.87866454782748,54.67288791585516,48.856630154812684,58.05690572908618,60.92257071488906,48.12990112596463,48.14954948335921,55.69409310231939,46.31785483264133,37.73479443376933,40.05960006656968,28.589229270653547,10.16817347168676,6.163977545139351,-5.489166091578067,-35.52113143134516,-54.78474368258295,-64.68999088065516,-85.32430644908895,-97.56518989465914,-91.99691720377203,-92.85297894965277,-91.6902361411291,-66.38557930649597,-40.17858267842067,-29.42239649939172,-14.224413497359953,-0.5421552997309074,-4.693770948251677,-2.2399752215489612,17.227089213697557,25.498387215389968,25.270286560689243,37.426181545392645,44.02995682430455,36.40980952219697,39.435921294124164,45.600968745101916,33.39420358299857,26.27877475943176,37.316749015423106,39.30348100740217,35.0268847432738,44.709588295591765,47.47142037400466,33.581516943313815,31.216430011290377,34.945362874410236,21.432846447336793,12.150922899554075,18.282840154531566,9.374380750794623,-12.66272525807154,-24.011816043133056,-41.633737560309086,-72.69330858259438,-85.62323131712265,-83.90603987400074,-93.62139519434241,-96.89613797366493,-82.21008718070168,-76.02495717710093,-71.76143192901819,-44.972059996867685,-18.594618955974262,-9.448773022831597,6.068757906967294,24.074438670482508,25.454694846428524,33.04105880131441,56.72648281206154,65.59363235476425,61.65050873271265,68.42579878334607,69.33887991894822,56.40684779237262,57.005302724274934,65.06635199225094,56.51653382392038,51.019608265649495,60.54493944130489,58.797839317539825,50.47084029528461,57.995210765656395,60.42155741042039,46.455942826838964,43.8447071995977,46.98120139108254,30.434551846676538,12.669043786919724,5.29208624957344,-16.293801371647117,-43.01295264068795,-48.36623976239243,-52.43186101149447,-69.06716613496977,-73.39515543642749,-69.66004465482891,-78.4673862311423,-78.51739898794047,-59.77912235601143,-51.99665850700898,-52.59802267648381,-38.30136685053488,-26.33069285988377,-25.18264491292204,-9.078304847399794,12.305910258992226,12.978769991999718,13.67643777275947,27.301572457655972,28.917329344166276,24.823684979419358,37.27240109272974,45.96975252248741,41.431377822292696,50.52955502718384,64.8389731865403,57.82999042027451,50.46588846219203,59.49749002953412,62.39127862692624,62.05028694512954,74.20144777665033,72.58217174565806,47.147364617808556,32.772260801608255,30.99987517777029,17.33212986147733,4.9212381908586735,0.23151494999557576,-21.84818195697569,-50.798549385109744,-59.3585028716741,-65.52432913714436,-80.11528021556182,-77.65801088219682,-64.47231431099576,-64.79187918431103,-61.98122542955245,-46.92053074462795,-42.70520114709455,-40.03919937379577,-17.296281437147808,0.9489923577646087,0.017329525927487932,5.62365922204085,14.490373028497233,6.853550441099187,4.3306924163393195,17.110425727788165,17.91703492806601,13.569761329661258,27.55802853833586,37.134047766777016,28.733787144653665,29.90577876810381,38.315181848535815,32.87996841366313,32.6667622439551,45.755442773541404,43.088206317771906,30.343220302183198,32.89320283133368,31.581155692875235,14.141142367670469,6.34914120690809,3.291013909047057,-16.77795132994511,-33.29683675110915,-35.60521422597446,-49.86414765286187,-69.40416429748919,-68.90130374971562,-65.05184294006354,-68.22900100698666,-55.07773899860264,-34.797138317328105,-33.26525464020766,-31.67726468386143,-16.580304799026614,-9.510901775251703,-2.0939811256750698,25.85328532972157,47.39840158200998,46.095192785780846,47.867388859227034,50.30879560962089,35.013468110124194,25.962214053990472,34.777280752914024,32.73762112640145,24.54337236198823,34.00920011325944,39.30609462316228,26.392027881267836,22.618735294207667,25.039971698635217,10.944856777340174,0.42278971788144215,4.448351292868371,-5.597617293479502,-24.43329993376385,-25.192091789911693,-26.078949312274048,-41.30214526881041,-47.98238976746545,-52.94414192711724,-77.23582818808123,-94.9321483847176,-90.32843647094842,-90.9682228049554,-94.25958277654246,-77.62290863754,-60.160365561609716,-53.48676904964509,-34.47817025715166,-13.508323944299521,-15.733449660640252,-17.08080417899712,0.46031258011718723,12.30435703985977,18.727687760888035,36.733415350296625,44.231907577386366,31.47122617775902,28.7727830608368,34.61137133579315,26.13152210569135,21.739410396534062,32.2838390831558,29.839573125850087,18.142943164474808,21.952428883845432,24.272479015191934,16.436983531952773,26.78994343624135,48.020321837003685,51.86896025370278,55.23786429064149,69.36002035173867,68.41362405375878,59.217264878128034,66.0440126644669,67.23666177243226,50.11645388994198,43.1381019205836,42.96969835723887,26.77279264119121,14.918496122724909,18.971427994146445,12.82864053215572,3.134585052400492,12.808731285380052,19.828770504832033,11.965321995689596,15.79611562869155,26.099301355227638,19.2155439152448,12.664915409160358,15.747978988306944,4.6930600841239185,-9.491051268023872,-0.9525555151888367,8.45167209331041,2.672929677084023,2.9311415806345824,2.7647916186154813,-17.252048281128417,-33.18133302677312,-31.363942722766673,-37.31605769117552,-46.30677738390042,-36.46921170495864,-29.716489143561923,-40.69388746319285,-45.7996426981577,-49.83377680390529,-71.83749987248335,-87.05370873286826,-82.71846619406257,-88.35178762660439,-101.5737143631053,-98.13311487487181,-95.68440018661816,-104.72795784543294,-98.18827123205844,-81.78075213642782,-80.77808642348404,-75.79357896747526,-54.39666411721184,-44.03063599568418,-40.839098445560275,-19.923157359529554,-0.29523131621599497,2.5081085262348575,10.435866907991015,18.030154022897257,4.743686463876094,-4.900734766011255,6.004484417916981,12.564434608707732,16.12690393126075,34.66582480765581,43.711015850407854,29.903400886885542,24.327156349607126,28.427399698818796,19.40788691616693,12.9396561500543,17.089072738689048,4.901573336061367,-14.189233665604474,-10.71918164602915,-5.50471537481787,-18.26747703067083,-27.12951051220923,-34.85339727056039,-59.99524599961195,-77.43192113868017,-72.5245238753332,-73.6248059810178,-78.66054863066219,-64.53824467701799,-51.00202422795229,-51.633167873513315,-40.27657659192834,-19.87629682234756,-14.805828808793581,-8.29372386986928,10.960136712769827,16.17976015467155,12.090591867801011,25.601376399122298,39.384769976228064,38.118572271118175,43.78525846800562,50.73710138003566,37.74376523186095,28.39289474682308,38.7129068011175,43.876256323725514,46.32951601414484,65.78578084118348,79.78335124528292,74.18745822077703,73.78656475,74.36668876188901,56.200325687836454,43.14816996054515,47.84451531725742,40.98124693372835,23.614745484244736,17.303982101754144,4.6260406401795615,-21.07995865008507,-30.462657559392717,-29.9710565174736,-46.11892493996744,-58.95491779462744,-51.25781999049344,-44.16444371992476,-33.6319737926427,-2.6776421732075484,21.249659877337375,22.367724779778985,30.264134981610145,46.8069971925301,51.38243940335061,60.69153777800077,81.96107744115737,85.43837738086721,74.66788194017086,75.44529233411184,73.02798130644578,58.00276032091803,56.304944017684164,62.81346786055438,52.02940817862364,40.30830968211323,40.32271867728137,28.35963624604983,9.484634723409211,7.087819389249854,1.2889098742686436,-21.33598510304358,-33.447723407783066,-36.358961779485725,-52.53961647741169,-63.57831711294223,-59.006059286706396,-67.24797944825886,-83.24697954527915,-80.28896935583978,-77.46873751686458,-89.90896015632381,-91.66515212646944,-83.69582195298432,-86.7417848465067,-81.19275900717264,-56.58699013851274,-43.041376495412194,-39.04637085488931,-18.584556473645574,3.0733865729015815,11.523333979574499,27.3902283925389,45.140911485226304,43.566488419999644,44.356782326750434,62.04462745711886,70.3436412894619,70.5877334422353,84.53827968014595,93.3047619964208,83.88721688728232,81.8642860829891,85.07109985019983,72.51399905180247,64.93657909247243,74.89916269491876,73.25209801541908,61.15782698560954,63.483228856745505,62.975940243020354,46.260169068772626,39.00811780692934,37.54214777855093,16.98666912158359,-3.6571445352266245,-8.411513806103828,-20.515699103702378,-36.26511711039375,-33.563951670212774,-32.54949657775727,-45.62141012937264,-44.76695172358179,-31.719773476433176,-30.445739920566613,-26.061812117442773,-10.02828522941469,-7.3846892873012715,-9.56888940490013,9.365124001446336,28.648601154504526,32.803902453514056,45.67046795054266,61.27939781748548,56.04320222511228,51.94125205430995,63.55573796684029,64.69795615962599,59.41646498871437,69.93314266335362,73.85782982118727,58.41326193714617,54.08264158117151,60.04579646005287,51.88935050369274,47.13915008904498,56.34195234485759,50.41181049027044,33.409193255442304,31.301480808237653,25.100356194002565,1.794895119186048,-11.052384042093664,-16.596615164145675,-38.998566131767674,-58.64812253677561,-61.048577257323984,-70.70715578528613,-82.11867417231487,-70.8495658659846,-58.31365818116705,-60.56397392372496,-52.26379459279809,-36.43803902204729,-35.51144648123989,-29.103459311097637,-5.238219487493441,6.157677200680032,5.3305385382782156,15.462386648998091,18.326284680684452,2.66048357177249,-1.1077113337867392,7.178098524795103,3.56841536695285,4.832908020746115,21.164889215149188,22.746549853173526,11.277330217009451,13.363290229465166,14.465256176469472,2.2434097018588406,1.8094953466580046,9.184811432527596,-2.3930429682418435,-16.100304335133117,-15.204322470709174,-22.123197030750248,-34.31340226359804,-30.448249996400435,-32.102918248680815,-54.59251381941861,-69.12084889100004,-72.74576644075493,-85.50570969926623,-88.24167906515511,-69.02469379774683,-56.06739086926098,-48.09819050534702,-23.90975535267364,-5.594474734763049,-7.253923180734073,-0.002632734098784617,15.837473598434888,16.213205903412053,16.578373061293508,26.40753921993283,19.39528894583574,3.1234043257896693,6.551274564615305,13.226574736665865,7.5804035478617315,11.258220723073547,19.388665082213816,8.288372896063523,-3.024010197209159,0.799836245643168,-4.723497491934522,-16.750148140253867,-11.128909338429025,-7.33896569402134,-22.40972563631863,-31.527431603109676,-34.849403110411856,-54.54034659400373,-71.42684279158246,-70.286857857218,-77.15413603375995,-90.30254785656986,-85.05739025890915,-79.86190419857346,-90.18685813869345,-90.1044692346122,-79.36183878081931,-78.919268629243,-70.42867988233752,-42.23246174441514,-22.56295209929223,-11.670701931421855,12.195800992556874,30.238260709291758,28.48473975560905,32.84426861744121,41.9208019104264,33.529949262816885,27.834237276081332,39.985539855757295,43.36402684056223,37.91098691597597,44.93870746212302,45.08005390318626,26.341961901743854,18.041742746715684,18.879263434547337,3.480621425408456,-10.310053355927808,-6.884965359583741,-10.855415751180063,-20.47620940032452,-13.846329968123577,-12.064784691799751,-30.91079510446806,-42.04975574838191,-42.195579447848644,-52.11082764553568,-53.73069506128405,-34.68216292125359,-24.805468505215142,-25.901571533432396,-13.711336775545371,-3.100156640007042,-6.965388007474469,-1.154928201632925,10.789893322662099,4.657931777565645,-0.3932171146158907,11.789522828254704,15.713627201425021,12.398385437903197,25.015485192041375,33.94396314520461,23.44321792695292,19.718316443952407,22.082511959758747,8.068566631315313,-2.051396860118885,6.529331728198166,5.544243155715712,-4.650914474960112,1.6290010692651125,7.943510407197767,-1.571125252068188,-3.9581085993589493,-3.074219368639198,-23.042093656211797,-42.687751126132234,-43.69600137111814,-50.624781741541696,-61.71480543455908,-52.79975458407347,-41.57727122695228,-42.459741592494225,-30.93828488411229,-10.662567734170413,-7.394773036840186,-3.941920191189384,15.332386777659753,25.14303066926626,26.017880674647465,41.67814536187734,54.31116805937311,48.63220467384812,50.45727333442312,59.93553641824357,54.34115255130423,51.09870096244593,64.07164416289065,66.55205435338658,57.612665363137445,60.237088390657725,59.68027732766379,45.049205857849415,43.42464135943617,52.469001215661294,44.66300631018551,33.99603657586014,34.911196374559495,24.10125912966685,5.175484430041719,2.7799085677137083,-2.7288391873008213,-28.274178904307334,-46.515825994254016,-53.52026682404282,-68.6729552749189,-72.59618869852835,-52.29850061775353,-38.34574739217468,-33.0615672726003,-10.996902495532641,12.394767323835021,20.28275364685484,33.9854240620549,49.86584443595901,44.865364003935,40.27613029991534,54.45587509718477,62.150930091170814,61.89813974492636,74.76938054336196,81.8694405232965,67.92563397165634,58.573117600677406,54.60880875721591,34.6458695257224,17.537412854305096,18.58632682744185,11.526606124492062,-2.9952060545031784,0.762410843595521,5.603844745945703,-5.608119235401757,-7.92810507820694,-1.8161485983699235,-12.00539222987064,-21.93326187044023,-17.63869545200592,-26.96557487669839,-50.12580715960035,-59.284560163362805,-65.43825965752825,-79.9778548645521,-77.3043413158938,-61.3166727140105,-61.97130284456787,-65.51012976062309,-53.30875006670975,-44.37999478020714,-35.873383439084265,-7.360951041531696,17.794743583150197,20.23650089010952,25.782038869544927,37.05011739909186,32.306687920311454,28.292669574221097,39.380414025151644,41.576962366064805,37.00132205681384,48.64583244735134,57.13296102782743,46.09042471595613,41.460379339133254,44.60824487067861,33.181803541517496,24.248423924733828,32.35442144606094,32.622517845299754,26.386594486070898,36.745981992470945,43.90646023710892,29.74018990858888,18.49908963801678,10.842020229371236,-15.619504312903933,-41.78561480029,-49.71169465306371,-63.16483997235741,-79.85097607457415,-73.3513590493916,-62.10434553569539,-65.38526751151524,-59.57594686994389,-45.11939025643662,-44.760376302933295,-38.44913217332578,-10.3766113389747,10.293251632329302,19.909809007403858,40.53006656209152,54.47006479137643,46.70647975947137,43.871102988494826,47.37738276617368,34.93911837554064,25.520855525410795,35.202128145475164,36.275734736359,26.884701168323403,31.919854023453745,35.062928810847914,19.98876287242698,12.548634609753742,13.78037902092321,-0.5407043829697402,-12.279936280872835,-3.7615086448250565,-1.7628596220605313,-8.466419939768839,0.8576926997676404,8.09094941896881,-7.0771936426536,-21.16193929039587,-31.73405437889541,-59.03076942495681,-80.49026851931362,-75.62787799497026,-70.91893337416329,-70.18258978696501,-50.30827779364711,-28.91815985701492,-24.02901007433172,-12.103945740397146,4.638768516517866,0.7018730932496138,-3.571885100227387,12.21055548419505,22.900757300971645,24.861921533137217,37.91569133774321,43.126184076058216,27.01262786044799,19.800127927111706,25.69788138705188,21.852844861559575,23.277328615229816,42.345397139177294,50.1207942153943,43.46689540334332,46.46406040383714,46.12795370852317,31.133444138143126,28.42130500581589,36.45661532645094,27.507730622173046,15.312972264642,15.199312946740548,3.818338367662979,-16.953668837825,-22.40795788646174,-29.661637068175338,-55.02883005341595,-72.25780917407232,-77.63501684234144,-92.16241518433219,-98.77914348435866,-83.51828592003832,-74.15683322412069,-71.51013326669295,-50.12595448155212,-27.365715223836176,-22.64473945718366,-14.133263555854189,-1.65832015853855,-5.20664801789108,-3.6472151571493816,18.21686516712344,30.0984383179437,27.98676953602669,36.93692790020151,43.84257317432425,35.1179920576527,35.930298082853064,45.799424609299784,40.029398846334075,35.78325378364389,49.7242328469751,54.11498694533441,45.10663849129571,48.043472272665454,49.784306230026814,36.176798742876606,32.876918238763494,38.59725284341682,25.49184575568554,8.096659714803835,4.296551403225013,-7.474069320903332,-25.740364387002654,-26.93045790405899,-30.51914277674506,-55.540292325630745,-74.70649374457109,-79.85036056329282,-89.38690261738644,-87.95039456749912,-64.44266377075402,-49.13341488964711,-45.84246676940133,-28.895514207700806,-11.60172022034897,-11.42103574141219,-5.825323200617445,6.967978116979561,4.039682347993164,1.007464077122234,14.286750135808386,18.51311652858262,10.796223933958451,16.5936567654764,24.31977434567746,19.851097647817106,27.069786354266537,43.98998548952722,41.61533629700208,33.05504496622314,37.60038627992225,35.41256985149736,26.540483851622923,32.787108305452755,35.67386516372791,18.27629401784117,7.409936941996741,6.048230334443759,-10.942539731458123,-29.823078803427364,-34.21715858177229,-46.61525409372663,-66.7400372686604,-70.46695268988057,-71.93369360187398,-84.3349514340091,-80.35153321598125,-57.99173963790217,-45.81322111510604,-35.868040801045915,-14.917904158622232,-5.138936926754298,-4.9460332414743755,10.417264299858058,24.685621366868098,21.227182407756214,25.60338404914016,40.09917951701253,39.54732794890036,37.017522269450154,47.40771356268705,46.99287698997197,37.79889020739066,46.63058129914034,56.34680279053815,47.253787030660035,43.75569604636976,48.75745066128254,38.297633144505305,27.955491881547886,34.28483259146507,31.751363569632836,19.431493881977076,23.5892875602582,27.695610837979114,11.228747916696832,-2.0913475683795477,-8.568377280798947,-31.206584239120208,-53.519733667259494,-57.947057702768575,-70.14632098264849,-91.4064772950126,-92.41582764436774,-84.31091465627685,-85.76817157147104,-75.81220849727958,-55.00749268789502,-51.29845894794275,-51.143876263119886,-34.122657657198104,-21.503793919862474,-15.615267985955597,6.663526251405033,28.024286325077544,28.006754106622502,30.167302434096964,38.76930580219826,31.45462742838837,25.241666930226035,39.396551728719444,48.54989391453418,47.28505383958553,57.965025923395885,64.21855557475718,49.661977781100006,44.216571207655385,53.617205796626905,49.472585063749214,41.60570351242077,45.36712444646756,35.84571355954467,13.03858256864381,6.56981292201512,4.194351648611435,-12.369420139772934,-19.871923678045704,-18.143599704200653,-35.81519926203882,-59.4784810532645,-68.05081804279416,-79.99875070629535,-92.65660324748113,-79.45910531882947,-58.499114861014576,-54.315565057558224,-47.48948785344584,-34.819038698161926,-37.04753540995119,-36.03887089617917,-13.164576991900969,4.612761769865356,9.898789747762894,25.290198517354273,38.31008556965505,33.80423524654381,37.10655638648697,51.77849304921008,52.81750329561876,52.43341746807648,65.92311565200757,68.5572294618672,59.05797222103536,63.57158026084948,67.72876454415454,54.12865263809852,48.91629421449949,56.36482599659779,50.441909083963154,41.761808305318276,43.38500703872253,29.638771044330166,4.0499418972453896,0.3408451937339043,4.184517103205519,-10.264455591751144,-24.375503859852945,-34.70629012032809,-60.7154328019175,-80.31985829659997,-72.12614527785813,-63.81705149148671,-63.46215610919207,-48.69620947985343,-33.9019504645732,-36.58383058568608,-32.317695979758604,-17.049874156813708,-14.690438121800954,-11.990983949115224,7.383491356600239,18.495021318559296,17.913464316970526,30.77206391395071,43.4557423781758,37.61619581576406,36.81052930249841,44.327376600016514,36.18425207282088,28.67888550192643,41.66952198043784,49.15505130041768,44.04054598456141,49.61209469903461,52.03491907848357,33.57200381579188,20.732687277432674,20.45401047420841,7.958986259246261,-4.615972208782135,1.1266078348254291,0.5511744495471862,-12.34076605659391,-13.550847650889086,-17.23649442378388,-42.891974154788606,-64.3922699611876,-71.66242345394714,-84.23294902933995,-87.59204616291858,-67.01905125710496,-52.60641822827128,-52.319578066376515,-40.672690587759774,-29.08717340473993,-34.547979341617065,-30.6391511266744,-11.247709535961558,-1.9812467546533288,7.847458790109212,32.127474236248105,42.31987805135772,34.954135295787395,41.51001331595585,54.13498010541627,53.64329059843209,59.93386968795688,73.53136830141474,66.85311611123073,53.646462798529434,56.284552613449094,53.3821240514203,40.379926327003226,42.2854882096503,45.800222852540294,30.508061962398408,19.863032448621716,19.455989323841646,3.751853950923833,-14.752651853716928,-16.006065140628415,-22.384567615471898,-37.64836369815572,-37.86641640965899,-39.43635899206469,-62.743403467620524,-80.58933495938061,-82.24874593857149,-88.52405481675612,-87.08469359751328,-63.888423921214084,-48.17905615987314,-46.740405526592966,-32.08097329167267,-14.708649438520915,-15.173107445800927,-11.417093232570535,2.6874125286876884,3.491877442519411,4.498449699315245,25.018945695758077,38.9826259026369,37.70274215376274,45.55192713875738,51.320383414370525,36.08895851028265,23.74675718273931,21.273882749584743,5.441217676589215,-9.977633007698913,-5.375791961694619,-6.346757087246401,-20.63624716160001,-21.754565116147226,-18.596770536481703,-29.211577525169975,-30.458844469947884,-19.125657704092617,-25.473789829118388,-39.98396950797596,-41.059990070356484,-50.46463705580143,-72.69953633366536,-78.3560549416269,-75.35382103902879,-82.48953064598719,-77.35047038813408,-56.878667684766924,-50.56716749841209,-48.26903310139739,-28.58332962999782,-13.532589797881904,-9.853862569756489,6.686331928941415,24.04457279336113,22.718240360363893,26.411510837308718,41.50424198776263,43.050223681658096,42.76744483067857,59.48125984017566,68.09098510682948,61.35931940352763,65.458859393719,70.29862998058542,56.716271295765466,48.31749647772456,51.63337271034328,41.91142050116078,32.59183985678642,44.36808821510647,50.410000663251665,40.04060936036706,38.561595616993756,36.93152140125059,17.022915884124863,3.8234611883904943,4.143729480109971,-9.67686772482328,-27.22013761549186,-26.315543829029707,-29.212258973868263,-43.76224468314366,-44.440359328793704,-40.296101249981945,-48.988022119028116,-45.409361016641256,-23.181154449395656,-11.99544238109665,-6.3462474665918425,12.085439695185084,23.117303996293018,23.68178532646772,40.49825775440908,60.818176622627774,60.657646992032454,60.48474658291919,68.06651147504009,60.2298601232816,49.60841668534463,57.892244675854805,62.41622942161513,55.09578332707832,60.03582883311543,65.14808390582823,49.21436423743744,36.22256549607801,35.73474036360001,23.580722801737394,10.210341759846093,15.11714371371439,13.793998222856766,-2.3080905130314404,-7.6231095157239706,-11.768044173534761,-34.22868975231082,-50.69191596522211,-52.040115830090805,-64.2271311324477,-78.94954911740535,-74.89952566286271,-71.52103313201017,-74.44674542426424,-58.19357813980471,-35.187010112247485,-30.389587754273997,-23.63417533619871,-6.310763144565511,-1.8436549803258768,1.0916914545479328,22.18924171748565,36.803459103691694,36.41628547179988,46.731440929241096,57.95407604795121,49.722912080016684,45.24140877214124,52.57234906242642,46.02400492135845,36.46540401870499,45.75971134678197,50.15498929734261,40.220163836625645,41.93634253240711,46.10972505231559,32.043409936706354,22.328079798032956,24.114545546715853,10.928025073197022,-6.520135410061258,-5.906012069290149,-10.01246434604675,-28.66932458535021,-37.74573929637807,-46.210960624333424,-72.4572986726895,-91.7451315754466,-93.91634032512302,-102.8130081099216,-108.63140287119843,-91.37822519435333,-75.47194136128351,-72.91487258902595,-60.525630151403966,-45.66156057325932,-45.557693976087485,-36.356440239884115,-11.4395042513082,-0.7092687936248954,1.931677268943329,17.922948762603415,26.802794529781686,20.87850931821275,25.669049799090406,31.97310752049567,19.59212013969221,13.36759810938366,23.475458633175716,21.20680784691802,11.980254978674083,17.339686732139533,17.19827252054981,5.538156380569753,10.873033756941306,22.664107464181413,14.319829965475378,5.8684405556681645,7.98419442600985,-3.0563959450404825,-17.09153673837787,-13.08080505421756,-16.326155258707416,-38.674548206746564,-52.42283056671028,-60.954546533619606,-80.92722607254684,-87.26362621516301,-71.00991579413127,-61.35108717954344,-53.56347526194497,-29.08940051215658,-11.288310354813134,-8.677632666158695,4.70780955161254,19.43982913422884,14.412968257045573,12.831253227518232,25.479617006448397,28.36073787620422,28.972825437608318,45.35168752187841,52.831111536894106,41.52094138576925,39.80648260114055,43.792966891800106,33.216801553698055,26.8943879782131,31.254154656478384,20.64567560316222,5.917814941531859,12.183801137959113,18.334034912628056,11.187972306852565,12.816203745177841,14.81418134208916,-2.0701260429960557,-13.725849316391699,-11.338869724925846,-24.21212067295272,-45.86451581509926,-51.80720431126612,-59.77931470104372,-76.68407764192975,-76.34196680946914,-69.00882253704685,-77.40977683840768,-77.58048479454243,-58.030468793090165,-46.30995271692252,-39.34304764568883,-19.25147110611806,-7.63008017925957,-11.642604800767938,-2.0010396098337977,14.990048257253658,15.66247826398849,20.47822375223014,40.20020268574362,48.63436536743026,51.13088263413344,67.53186118571244,75.62458201150638,65.94627931589544,66.49488470095721,72.39066983118865,62.30690403330257,57.068701566030015,66.88667957741349,65.4040062994837,58.13876168227554,66.04988936012944,68.43278213464549,55.650071044679194,53.773602488047985,55.756486460302355,37.976163065323995,19.820705989741217,12.444469445398251,-7.838259892663966,-31.52693012552313,-34.07788570768528,-36.2957887646871,-49.103746609295804,-45.66651205161467,-32.56313178739533,-33.06643290243581,-27.186144743383085,-7.230050204777518,-3.3918816323390883,-9.106911304880432,1.272338422226091,7.488067451015973,-2.596356184782409,-3.353532472496738,-0.4578632995027503,-13.945941694676092,-20.454500162932263,-8.610429404678086,-5.753626651435699,-7.046908996209609,9.622416202759414,21.75626168495066,14.752407644760432,13.385869409847963,12.914912251982766,-5.671362854837623,-16.26941852689319,-6.674129097497561,-7.977949663182725,-18.057920481980215,-14.30453235177068,-16.693294137849026,-35.99544335482815,-45.06792936816201,-49.76048970131892,-73.08912378288889,-91.0045348055416,-87.08736097238969,-86.73150008163228,-86.48912197393562,-65.39232612005564,-44.75135729542524,-36.1760369699227,-15.110071763526165,9.21328664157199,11.718978526791323,14.637310080334542,33.49027034962131,42.14666411765569,41.35814390334868,51.446351313805025,54.18773489334029,42.13415634653407,45.51265868756302,58.19557541120805,51.981729755017895,45.87185211027863,54.79360780841653,53.36797391836568,44.560631343617224,49.17355951127606,47.578628066917794,31.7197984250374,30.89070762581195,37.73165213167047,22.769856173831734,3.1357936919365126,-4.868268051864369,-21.23625989492471,-39.254620456700195,-39.1839219837763,-46.1665989221921,-73.54980759713611,-89.39878366886909,-91.04076347087288,-100.21749731651403,-100.45416087964297,-82.4086761123709,-73.78399517647526,-69.79615510601438,-45.01800843392749,-19.535820238020005,-10.17824822481582,5.82805305773065,23.730971792466658,22.24324613960241,25.52773852291254,47.96265137220607,59.205471742588095,58.137483206193046,66.08827553836346,65.69418456799218,49.789182357724215,49.58451429328605,61.39882889760153,58.19049149575272,56.49324080936783,67.47284778394322,63.26750925296059,48.55894524343377,50.38915035099757,51.451776410362086,38.663415461179525,37.20829098714982,41.10303133446455,25.00914557230588,8.917833520311685,6.076778630595447,-11.414078319346588,-39.547003946595844,-51.50444903847582,-63.220890956233276,-85.18224444144421,-91.03419408823973,-86.72972375816919,-96.72917577293208,-99.16275522510765,-78.01994044374067,-60.188907724221636,-46.54149041217034,-19.060368971879672,-0.14246426952401947,-0.9472856655223318,9.02161940414963,28.573086244290728,33.93866365233796,41.71621436763005,60.616719250706986,62.017864543990285,51.71052916575796,57.82334544809343,63.898472495732314,56.40945959013207,58.226522713129654,61.943876293270606,43.90919714154657,28.235962260332748,32.82263508841478,31.9473127607029,27.20939373586802,39.8529807766056,47.422320473630705,34.606527568608115,27.7723499403742,24.28588779353019,2.262100067594945,-15.650761415166723,-14.24750798296575,-21.783769473402735,-37.631636748523306,-38.40204653702848,-42.02990658778242,-59.22063688821846,-60.31766638562969,-47.463317467920824,-46.8304669199581,-43.44879042160696,-26.41168793998416,-21.227044220936822,-22.94387862390694,-6.372662485177491,10.024667739205855,10.571490350616703,18.408856684235406,30.53926050068716,24.80710333195333,20.915600419047177,33.12558555547653,35.22393441389281,28.759489056021234,37.51407427769111,43.84636918344925,33.261446413023364,30.873240953362213,34.925566187527075,22.148912354921844,12.2961542526521,21.124729793336293,21.062420911401958,11.347778464993889,15.127251953489464,14.080382525664039,-5.531193831257203,-16.832950710795647,-23.228764934191297,-50.922089899163154,-78.9242253984111,-87.0027775220487,-98.11138672999033,-108.67757643936204,-94.28567383852422,-76.58609200648392,-72.31951556741254,-54.47128504452788,-25.56427892745355,-13.678714169627813,-4.162780306113386,17.583491619678174,27.248523819428517,27.569412498515497,44.322025356646634,59.468851330109025,55.1377422112811,55.36141906813927,59.873943225235266,47.04222301522064,37.8545292490977,48.37492100968401,50.91095556732146,45.089100443437154,54.453005209058986,60.17487526516271,47.7310264201545,43.267143612530575,42.81035720709305,21.161140374724525,-0.04795312823179998,-1.9014879533936844,-9.055837830237062,-21.359306998218607,-17.7104900787791,-19.791903166442715,-44.61888283094602,-64.93973784220496,-77.66638286931527,-103.05530065463418,-121.50346612752752,-117.0633380756597,-115.67165127413688,-117.05814306161395,-96.87572972958952,-73.52553076969909,-65.4958615341343,-50.869535559057155,-32.396627106058034,-33.342799010792774,-32.821068827148,-12.117894251456713,4.205501404246011,14.84306748894628,40.00626955464789,59.10652771341077,55.799157093382505,56.021699296659605,60.68511918302765,48.20177692230166,38.269542761229275,47.070096224656766,48.32256932363737,41.67100890260196,50.13645852436608,54.990270292621005,41.972791076757176,39.277942206252334,45.897391190037254,35.39291349312724,24.39505838481868,28.354820468802075,22.273349648371067,8.76103970808119,13.619109526339292,18.580987697997955,6.872927580041502,4.399458878971679,10.73098815818146,0.7775415923241464,-8.635778156157436,-2.215589623315347,-5.419552760912083,-17.10009100099788,-12.15354383941004,-7.686443673537991,-19.923542225811353,-23.70552549289402,-19.51634364321743,-31.432995730341695,-40.071694514807575,-27.12653373622309,-18.835642425389402,-18.565357960972698,-5.465354767844101,1.7853311081646308,-10.386173161795979,-11.626069130522405,-0.45277023260502425,-3.773510227025695,-6.124502104731181,8.007024678924369,12.046106092768655,5.527961545500121,12.714924528954633,15.359642140846358,-2.683308924675898,-12.812646260471432,-11.762362062191407,-23.19820883822181,-29.057489364098203,-12.954658692237494,-3.8091007225957147,-5.020640458154476,8.18316765896615,20.62112447384512,17.542564863929282,23.87431798426486,36.27849141926247,27.310315662538972,16.103225901832612,23.496366977943985,25.258329882390072,19.048101867381618,26.71749509090328,29.798430635508733,13.761876208678625,7.867748408386526,12.80028444681023,0.31623444868399186,-14.27787372758194,-11.93039438735471,-15.234681219688623,-23.770893867982664,-13.70352147404881,-3.913082752376574,-12.57451716394022,-14.474761071175877,-9.628214567029199,-23.657521262507387,-38.57108523796049,-34.93621120628634,-36.45973479155657,-43.48327948374454,-32.39526902615058,-21.985568579056185,-28.926341045384873,-25.133752821446116,-9.383058208376942,-9.396406415887753,-10.124463624105896,6.727777495212669,17.507323759174707,21.4433316097158,41.6408516300995,58.79659371320821,54.09189394660012,54.242813536186304,63.57077276050792,57.886968907948585,51.46939405519868,59.92349679967295,58.064796914047264,46.49800055630318,52.463432077741786,59.201609435190406,46.92402602284534,39.73008785849071,39.64887464929221,23.338834283593357,8.658955705031705,13.192246513045966,10.267729372235861,-2.801568885348124,-1.1668829989327953,-1.8668613204820796,-23.993362523297648,-42.61843261261944,-54.832860398505915,-83.31133558204363,-108.90997131989147,-111.40986237672702,-115.26874977815095,-123.33170657727626,-111.84842508273118,-97.22118442815524,-96.3331724855143,-82.41346463935477,-53.93400883280664,-40.23736290758686,-30.724907356987835,-9.646591614901592,0.7892248002901163,3.9193699892720466,26.463069278887396,48.115437182635816,45.16317738158344,40.70471133487294,40.19389471646307,24.76077319402311,13.745028332752458,23.684929209616,26.05130026019239,16.458463083289853,21.27989023465186,28.257453573979646,20.465757465611645,21.484469484862927,32.5907097772117,27.68702423670102,21.351096491867384,31.65901161055409,32.31380550486745,17.6646916833032,12.189392475098542,3.387127791466204,-23.872407312734747,-42.773353572157255,-49.1926439347306,-66.79214733597115,-79.85805412055099,-71.83596429653426,-69.60193519895219,-76.88555711101931,-68.11354406000822,-55.40895501292748,-53.87095783607651,-40.098140404288465,-16.264635268480887,-10.837558476432802,-8.253248082184028,11.791372892439586,25.21163682589883,27.92150577847879,43.22709788216049,54.90103207649232,45.25728444369718,41.709767078208316,49.49755323513505,44.33239457754861,41.89797215510562,59.774470175019985,69.84068027692732,65.4331125874858,69.69184399034611,68.44170889076004,47.319741824974415,35.10127125222888,35.06896251252656,19.887091130644542,3.113070772709545,3.4997729235053945,-2.2533417711320602,-16.657442515227903,-16.477154073330794,-19.69953166616166,-44.9077512373031,-63.054844274324054,-65.88333261863558,-75.21182399213019,-75.4002996704982,-50.56885361386658,-29.23742008898503,-18.32976228144335,3.451563714194199,19.527702102458434,12.349566619938102,9.090298210830824,16.819820494052504,13.752351590938435,15.048664197781587,36.27569995741493,48.14027596279853,43.68992809366243,48.06220220544614,50.690590878939354,38.10039784619865,36.83739125454397,47.699177003166675,41.312874405361235,30.661422863131634,34.972133777526054,30.099083858420066,13.651991846075429,13.033245740267176,15.224523696024123,2.063688324887459,-1.6461177834570724,6.170048495631512,-3.6134333468352358,-19.096567138887174,-20.839109100290404,-33.05773489782762,-59.65616465742314,-72.11833183383786,-79.86738910764741,-99.95400774266196,-107.97345799598318,-99.89182400263036,-101.6117414740676,-99.44855900241832,-73.9765770749477,-51.54746235600226,-41.4613125277313,-22.110416653602524,-6.032444141670759,-7.572773026249308,1.0547239162928777,23.033091269211926,28.347559047484673,26.6031986371911,36.51443915534832,36.82313602038094,26.99122435367289,34.559585499159404,45.150627875262174,37.57012340340563,35.409069069156416,42.481366959670446,31.78385891725943,17.108396280408485,19.30272151696853,14.777393330957278,0.11598647794239358,2.751413716993465,9.03335859657416,-2.4482154800534524,-8.449638854273374,-4.8499470433286165,-18.756106036133477,-37.312770361449225,-39.571891396039774,-48.855314913349694,-69.70075366151445,-73.99575354122987,-71.85576921175038,-81.79897807264659,-79.19337624182965,-59.33198340937433,-50.8560200741365,-44.351644157986314,-21.360750174920575,-5.2503538393205655,-0.4181810704754201,18.844101288818248,39.08273143397247,40.58336772060473,48.62253528505521,68.97059708866661,73.79670410034832,71.94054272357606,80.7173506270951,78.3125900390423,65.26655578891868,71.80987527329718,84.34044167637597,78.69633779400776,76.1437080182758,81.86740555216257,70.08750370141365,53.77316915502995,54.76371614125989,51.94585561926191,42.08151490469766,50.29911915205798,58.64295387041978,41.15027644146612,21.828461511705612,11.299978002832585,-12.895630418794322,-38.64555620253733,-47.35648437165424,-62.12221115741559,-83.94472796864437,-81.89398224692634,-68.35423238114198,-68.0660276101885,-61.41667853427043,-44.14066032109004,-41.8839442674321,-41.37144700795101,-21.41094417030426,-5.1712154165754045,1.517602892295098,22.612434029382605,42.68378588195279,40.21332883957057,40.27981805821944,51.80692224340682,51.03590635072804,48.30711411588884,61.026284653015026,65.6862553673421,58.480890245199404,67.23468183865671,79.82415284331208,73.40419856844824,69.59003902291724,75.0641041730207,65.27192242376569,52.06370801235144,54.886907505957566,50.000774160815546,31.94576689424605,28.23994848768971,28.690099535186633,11.965295395565388,-1.2277542006679298,-6.172359668477619,-28.520595577191838,-55.171283053908496,-62.633524914142534,-69.69839023014072,-79.45818313483001,-67.37474463828124,-49.39019209275655,-49.59678089733123,-46.35236191392051,-32.62538775135345,-31.819612549488102,-31.68537820774544,-14.197857852439906,-4.021444808454197,-5.6545504803720315,8.470492695189275,26.676291380202855,27.441513081268816,32.30849745664814,46.25213320668489,43.70755329381794,37.482531676590796,48.37428008202845,51.79962169447819,40.06345511467366,39.20150334343845,38.72620535172935,19.65946648387049,7.544555823810193,9.476286939495548,-1.6663665907539453,-13.838607876948446,-5.265120854352499,-1.1786466936523508,-12.129527651053033,-15.97963950427689,-25.35256309026733,-56.99652132857056,-80.62873005647634,-84.64876881680479,-93.856787074665,-97.74178119903524,-77.54012449717294,-59.87227872806446,-55.66651188117042,-42.5198869978478,-32.13400645428999,-41.78384750207118,-44.11953110740925,-30.80510588765199,-28.610657622698337,-27.76520947516328,-8.799277066476886,3.6901936617755724,1.1360690808600227,7.982359270259563,13.545623118073857,0.3540928087382067,-4.397851861131182,7.940233445904023,9.592584784137973,7.508147563349626,19.42360167048067,21.762144853313984,8.78189874274773,9.14870117032443,14.367682887757198,3.0572961355529107,-3.1049942183035593,2.896267193738309,-5.3649951307057995,-17.59233998043276,-12.864102762458268,-16.118369652682222,-38.33522913303696,-54.18513097707934,-70.2846210195281,-102.07193223367838,-120.12917378189124,-112.42998224308418,-107.70130090803781,-102.11825916944056,-79.07419439379316,-63.81776399835119,-63.64684749310902,-49.213950699842755,-28.618870993319902,-23.67881814600497,-12.987528159409017,9.210962494582848,14.581106745570592,12.695030696536447,25.69431719830446,31.179383167473596,21.07791384657512,22.332508506846278,26.487992282482814,14.010420952982248,10.941899278835422,27.604943294059208,34.953255772038375,37.046747453098554,51.33209631633667,53.916971357887945,37.7868789163021,32.733725146158534,33.23243118807531,19.659772855355286,13.829881362168345,21.663958330691052,13.54873455559608,-3.9763104275835524,-9.29456509192391,-21.02067760510876,-42.96251970107655,-46.7412289780207,-41.4589596263945,-48.51016177286383,-45.32346216832502,-25.037032811158323,-17.45859149039503,-15.120293869173656,6.160216824807071,27.722362280810632,41.405465735860986,69.24965735976336,95.65540752788061,96.00990928952068,95.46870427875962,106.67166042857471,104.65808263610242,97.21978844239968,104.62965246280174,105.45854716547244,92.45562233756988,91.15935902663392,91.3250298172098,72.36964898471925,59.75335530210229,64.37634200269282,58.814024738092556,48.913803562286596,54.21104469148598,52.36015182637304,36.33106807327231,34.56836319169667,37.739811338446536,20.63408435321668,2.7692230961429725,-6.455170133580941,-29.76045274026782,-53.30772588009603,-51.8693604810768,-48.08927415530795,-54.31233048533153,-46.70075475850872,-33.39748388816952,-35.70790924501275,-33.03225309057457,-18.10156509800571,-18.23412206277247,-24.660151427452995,-13.698583655481329,-5.735386127707317,-10.211037806095565,-2.2944650091220957,9.097162110004117,2.4453724976285818,-0.9821015424760582,6.575966701995132,-0.725817233656854,-11.707382517839273,-2.122371829707353,5.886556394010687,0.7946759163034374,5.769884213305753,11.043448011966266,-2.780046609840025,-9.344460154716026,1.4519507970421257,-0.4193642879118755,-9.853324693992963,-4.993350392091765,-6.5772154835683505,-22.653664381517615,-26.728316375888475,-28.82189859323998,-52.56539664606197,-73.96481726049807,-77.16777286180526,-83.18824500417693,-84.82554553431343,-64.94943500871972,-50.9224046318801,-55.92574485222448,-51.655999219896856,-40.80828390617139,-43.589178143738934,-40.43073599517443,-24.537572925457333,-22.742338783404932,-24.67899390805283,-6.091122131905464,10.715982502414382,13.375717301286484,24.381723178164776,33.53842769217497,19.687575905237658,7.839259333379979,11.73852910128026,7.28567218604765,1.1088792602192399,12.632094279690085,17.81942072395096,6.08778089843782,5.333190528838093,9.903083475846005,-1.6984404669080693,-7.336735553996453,2.832187857167373,0.4493595020593122,-9.76607192460186,-7.898555313864483,-15.937561123420297,-40.53987986868621,-50.07682672988722,-48.738413308914815,-58.70326092431473,-60.08255091450574,-44.44970786846318,-39.08027840956896,-37.511978642636734,-18.93614935136125,-6.40808614837831,-10.819092641291366,-4.946942625921919,7.065444169430901,5.9116721647401755,12.508052856619901,34.071687304336,41.219109373526784,38.662697812587425,48.05592843313901,49.45943665013578,34.4883637720849,31.264939384382053,35.31207466142935,26.269374444971,24.64286446032726,37.50627684542047,34.87690046713118,22.667890706958566,25.70014137779797,25.75544349196643,13.405978753629547,13.627701787538019,17.39347517105733,1.0613197750486867,-13.978253744765743,-16.238268129076147,-31.03041276600515,-50.63534993758576,-51.4622999406657,-53.500658979733686,-66.39849085812246,-63.17196816389516,-50.43916698364605,-52.173052349495116,-49.74218647653765,-33.63042761112707,-29.381084104295034,-28.952080819702793,-9.11424467965968,7.790172819611691,9.09076114426135,20.81152355686798,36.99090510054953,34.716451485925525,33.834693681014755,44.630101735929294,42.059482594045456,34.564229805786816,45.415416784071766,51.946490853351314,41.00733962366348,39.59973253417773,44.70184997800066,36.045358779237674,34.37017162905155,47.989705288485744,46.746626451838665,35.36750873819663,38.9671056401924,39.63042167737258,26.79186558962264,25.289897619765984,26.05920535043477,4.128320797295499,-18.07658378426912,-24.751920225805236,-37.5273488493737,-48.11505686180161,-34.84931273716441,-21.361174894867013,-22.56505844576955,-15.492979740024186,-4.908500463102703,-7.777873695988615,0.7873291650213807,31.33969210771065,52.53449279205506,62.77394313358156,80.3418240356143,86.68533284320942,75.68355862091938,76.20886262927687,81.49230839898817,67.69310783024152,56.603631560729056,61.71290309220656,57.357144986020586,48.09621136361613,55.28969896884343,57.116447137234985,41.8377278382633,37.363721049209175,39.06860979425487,22.253521227753915,6.294697835398272,4.959035243704305,-5.53251294236563,-18.62614290022382,-11.670166575008807,-8.951349737386284,-27.663245966963444,-42.36672689587186,-53.80954305595005,-78.87725381837645,-92.1954251870305,-80.14361391231654,-71.43354805430548,-65.56359618851344,-43.98849992080075,-29.473165982491004,-33.56052381150074,-27.712941760184606,-15.07901791978868,-18.66810147817311,-19.239293172988184,-5.239804794778836,-2.5474169823021695,-6.225399853498698,5.652580137753222,12.140160224711508,1.6403522348829194,2.0939762694272614,10.808087467477382,5.2848380950745915,4.27473421193415,18.08785723972559,19.161936182426604,12.001570264555404,20.383322601121538,24.769989548504935,12.666339920548312,9.619177961413486,10.371624845676607,-7.5160522890908945,-21.147917249310925,-16.034814576901606,-20.814309497007034,-35.6672877718979,-39.10126359607853,-48.977948008150555,-73.94839009379282,-83.55099876475305,-80.01774491963053,-87.75076782372548,-88.62495540834516,-71.08529818416457,-62.65665855934661,-60.96314642911721,-44.72785548655339,-33.76616168640483,-39.016756362637736,-33.81041338025677,-22.11203440964284,-25.378316426110473,-22.61721609811365,-1.6813789841257334,10.648116469722433,17.327611103933545,38.03668500829353,49.50332008755234,39.11268271596097,35.89327850958702,39.06177018005435,27.655849832647224,20.95351184002871,29.150288175691433,24.885970998760826,14.28336271020196,23.300070951975435,31.335756591058278,22.03219654907856,19.806405696407317,21.80241573308734,6.965830375766865,-3.623911062036574,1.1788569438771828,-8.893015622339874,-31.678971770739054,-40.793410758819306,-49.950281729494975,-66.95040083448814,-64.64192924927316,-50.31540733324265,-51.6804877187494,-50.62206298880276,-32.519422803024625,-21.318044828956637,-13.393890577382155,10.413956937925864,25.50056143110956,18.66128600710171,20.22325597259114,30.36871414075004,27.927174788376636,32.15161949112507,52.709684850496565,59.5341079868179,54.471883033636175,61.897374747987634,65.12379127664518,53.56430361848699,54.29837340646952,62.40766110333854,51.9647091595437,41.4510204264848,45.37781016469898,39.19830800700266,26.492620766322563,30.254015850254522,31.197691134565083,15.702416078101239,8.930109065829447,6.891904913880797,-13.93892483361892,-33.83376935339173,-38.75721551602079,-54.59315075933645,-77.76721306074761,-82.1357778299668,-82.30082118092457,-88.85928053121802,-77.18082727563481,-55.735221947474706,-54.10987381299794,-55.19596851097381,-42.05710536401036,-35.939083501943514,-32.570686449975874,-11.461917734007862,4.72811305638607,1.0540286472859148,4.694581507557405,15.982123391099307,13.983108971214097,17.120477529243075,36.041716826357835,41.300964104829596,34.296945944272224,39.98068071340098,42.06446363126423,29.757946940661434,30.662300391026818,40.36675736474542,32.9606072266953,28.261627628388084,42.622809799845314,50.574724258998195,53.55889588833312,73.59886650790938,89.03510302497067,83.07186139719786,82.0782572120441,85.79649458311265,70.9016421460071,56.25862844646051,56.945830479629876,45.973704135554314,24.60918500252498,19.003825315839837,12.933256654968076,-8.180738031185026,-19.408912531845594,-23.97445785506745,-46.09515033929628,-64.76413510572043,-62.87579335943627,-66.76497798869609,-75.83867375109355,-67.2930003127038,-60.737200734364684,-69.93133935947674,-67.53895965021599,-56.58338687016597,-61.98878571002825,-64.33985789343048,-48.8979452315062,-41.05635657960116,-36.985715426382704,-12.103443541366516,14.266036697406983,25.148523448909884,43.03726619845286,64.05651472530884,63.79906098149108,60.87270894799917,70.07298174242125,65.18663496412213,48.84273986451754,48.149247551048575,47.96379532845744,33.86840795168553,29.347474471350466,30.63270513851186,13.612666561922502,-1.7497643315073756,1.7974820899647277,-1.202084255774659,-11.800312392699414,-8.390995051558727,-9.260370533716701,-27.886226897543658,-35.96464710653319,-32.42408798755758,-41.827984601448996,-49.84313997759644,-45.265572181066055,-56.05725392111944,-80.60762559514457,-90.37769400653828,-96.37846963123378,-109.15149458499553,-103.28890705064893,-83.54794284815944,-78.07162109981817,-70.86248566458255,-45.390737132421975,-25.23082435522369,-10.268797897077752,19.649095375009743,43.526641651292834,46.37922424204185,56.381273445881064,73.6967592508196,72.80371140738937,70.01557258099989,80.16259873207007,77.49646937620705,63.93168657871941,65.12909673844571,63.128244208935925,41.51751480522525,27.101771637864946,21.712846987298185,2.767148801994443,-11.447915517564436,-6.3353305818270975,-11.386842721149034,-28.826625655928602,-31.32589743149139,-30.9688556584286,-41.29945270667746,-38.91056190505172,-30.70176285291766,-47.460625201377745,-71.21974530396099,-80.38481885958302,-95.65190453508382,-112.92285462892758,-104.6843888636072,-88.2657154873904,-82.23411085724534,-63.581740549571336,-35.03138950437422,-23.804890498805708,-13.307178500339576,13.52092578173079,30.528938859006573,36.12856394351988,54.549725373701385,69.1036473203706,63.82450496899708,65.21734314479275,75.1736618331482,70.05408853052634,66.5009632639519,79.37463863158547,81.01064138872268,69.41942246758006,69.03492927855042,64.39306106898849,41.46079557815217,28.20032698779722,26.349701101399766,10.50854763670828,-4.075811405074434,-2.1321979667118347,-9.840453107707075,-27.207277717383267,-28.536755962359145,-30.87259100162752,-50.78468541834963,-61.07729909234264,-60.72864179995982,-75.85237464432286,-89.23069038638354,-82.35651420709593,-79.73312471797061,-81.55250964838078,-64.12701419116445,-46.99512338316735,-48.012910635313354,-39.61214652748474,-18.42840771263445,-9.531313082531026,0.609728654304762,25.739290459150844,39.47387818555599,41.646539949181076,57.33468570424088,69.56088753619589,62.11786865060357,62.3973042789583,73.0577507445715,69.49929702783939,66.78009181687516,79.30948337589064,80.19391534448937,69.44072077968505,73.30557406932408,75.21433751447132,58.60277877114645,51.130826372697975,55.13806393828477,43.82070455339201,30.86723679678699,31.79196935644779,20.8402186144045,-1.4050000203080995,-7.93148644773003,-16.443687709876926,-46.61884490474884,-71.13205354139431,-82.38852006357176,-100.24332166292535,-107.76939810046697,-90.03619726098943,-75.36394423322757,-66.67884616112838,-37.82648821041448,-5.123972937078679,9.023277267371762,24.9708682260952,44.579354377172834,46.05207084301931,48.02708321225626,67.70788307266115,76.60511463183556,71.19963835636021,78.69993003866318,86.13146670755133,77.24984077712878,76.68468692824922,84.2394119227443,73.42200765595578,60.4506743373194,63.284329380004635,55.65152666368552,35.00415244107606,29.062392773661262,26.873683025994715,13.54759847502405,13.594043474803417,25.138569852915477,16.098505472466005,-2.4989518944396414,-11.035419722459737,-30.291711322810606,-59.67595136324429,-72.68973722512087,-83.32129136494811,-106.45889893341422,-114.49968738130636,-105.11682885467934,-104.87462849684417,-100.72090343870016,-77.39965264927062,-59.735953672225556,-48.603275531189176,-21.128800381512605,3.164544287374623,5.692713484620928,13.144959967905246,28.9284934725483,28.83914254891414,28.387509454580368,43.36978652273961,47.39344450727951,39.78307360637759,48.4985281227231,59.56828472153246,53.92818034454623,53.948837208091426,59.78073736182543,45.203408234666725,26.859050556095184,25.71204259739106,18.876407302091685,4.4044398549347274,7.111582418252244,10.778534542178424,-3.7859580354005553,-12.72506057997779,-14.914541500863418,-37.15251607762776,-63.941034441031704,-74.84185469433028,-92.38468898123072,-116.57297866275366,-119.55153677441271,-115.90740079024509,-123.59886022856467,-116.40366196998157,-92.65105031770312,-81.25440970447112,-70.27774272997632,-44.40320598816043,-30.61392185911197,-30.82813557718751,-16.86010237122104,-1.2743060161512272,-2.2468216194052424,2.7907303941318506,14.228017871119857,6.215823255708143,-3.6316087878856136,7.105444726194478,14.648761160924547,13.560348812325978,26.559899095196975,37.495315292391886,28.378523067197747,26.352244296114268,35.7141422492586,29.442861618821077,21.222351262300474,29.964202084072777,30.0566125597689,17.616189454168783,19.61197400165255,22.1327256349299,4.995996849642931,-7.742578179677006,-11.959444107508727,-32.94574038293661,-55.173844915975955,-57.57552028880583,-64.32650664289888,-78.92037195906458,-73.0502749903972,-58.318162298089284,-53.78069177522841,-38.03211623399784,-12.982403275897514,-7.892363575635056,-7.669125747366788,8.952841457239895,19.218492835668446,20.074091671271834,36.083192517872185,52.845926585114015,52.6523195458812,58.95550842590393,72.30171270300856,66.42822983194868,57.84572101375582,68.37083579528786,75.37864940011937,74.39680242304492,87.40719478619499,97.25595420918758,85.32953739808595,78.15164558153833,80.6145939151775,67.57980501236993,53.911660403778235,58.969708970073555,57.80292755958928,45.65660057438339,45.9808853209598,41.658016893837456,12.073984465138325,-16.608479776510325,-35.14476520888567,-62.69953993752327,-82.11313513471987,-74.63644383264038,-67.03104755483574,-67.5672981570228,-53.61334565453003,-37.81379955337876,-37.35021351685844,-28.64055036379212,-9.35326061527921,-6.180571134116431,-7.025789503517595,6.600701119098501,13.533578793692557,12.537321586079669,28.047545863511058,44.329600212854785,40.687814530892084,39.83088570012512,47.0342714692664,40.34114815924548,35.25884064508843,49.461157943655586,56.490843567819304,51.3847120699849,60.33815486720387,71.74669446682485,67.72406014437357,70.05122806322191,79.18567867128372,67.94123799435008,50.135438819681696,45.94203883165864,32.04768122757845,4.699320596593868,-9.736747505720091,-23.31886878684893,-53.07957555361143,-72.43149840204481,-75.01682190961009,-84.62550483795482,-87.12113864901394,-65.68123158124756,-49.387232483183254,-46.93040642000197,-34.5016459694515,-24.20628056511062,-31.232058550346647,-28.605435874692695,-13.314998474423328,-12.988804466726325,-14.40109549832152,1.5764432047329775,10.346903613095458,6.905712743552617,15.897938755173714,23.71904108505541,12.331904280807432,8.087722937471225,16.789586331771194,11.755054426727298,5.002877093917585,16.372868650832544,21.994083827653117,16.292043030916965,24.09615849775088,30.849977415541137,15.48774975452086,2.8489264069777405,-0.14153953561747978,-18.382087237494844,-38.87128532855819,-42.39131203519009,-54.273241826958824,-79.62590004643074,-89.90110063372177,-94.50604648264496,-110.11076563487413,-110.30495316122648,-91.17232088144516,-83.24281571391184,-78.1526605759157,-58.76086125583518,-49.08863580383077,-51.744402610466445,-38.86059577065768,-23.437537315277005,-25.73436104336102,-21.061785364102303,-4.599137259602218,-4.757966473403978,-10.069202943885665,0.9452643537347871,6.31511185596486,2.5673495074634025,16.46229029369143,32.18890360722304,25.655323032833273,21.52625427858408,27.925120698415647,19.29819711519893,9.035083476335974,19.206263920465137,25.40276762619321,19.807225926287558,26.246843139806195,28.953962891884196,6.159698723755739,-13.896211717567223,-19.956101821357656,-36.70212089354,-52.47727948492641,-48.99730397718103,-53.068981905042804,-69.37006877684172,-66.84474214976893,-55.103346879132744,-56.20093819810421,-49.60781286712608,-31.60242683603612,-28.22593635954423,-25.18061716306277,-0.9080692181426784,17.189985747464682,17.323348443830287,24.437297152713366,31.057007667811963,21.572906126864872,20.54969907386884,31.006648419559504,23.185524919579834,9.510132748685582,15.201768862483874,19.795517136330623,15.690707684329293,25.919467377986386,37.0218887401285,29.21649280647563,28.64466763842791,42.22284434961431,40.20687338999937,30.944788364012297,36.22122652568658,34.57973559444334,19.22785132716463,15.35717220951367,10.265229129946098,-17.019032140284033,-39.304164783228906,-44.777529793607684,-56.7120255032655,-62.69557292084423,-43.34194888971517,-26.456184305657352,-23.105842975196147,-9.352437694076041,3.5826109806414217,-2.0629186062662903,1.007298711911541,19.572996490135623,24.116135639371265,24.06408585690696,40.07380625702647,48.21667707563722,41.47227254173332,46.40400831653442,52.54302226924078,40.65133903934503,36.47819216891799,47.63565705999645,45.112222489411074,37.4978227075767,46.03505570646166,47.662948648773686,36.019593072654175,39.28665796923249,46.446040570103555,34.813199841337834,27.324285979803598,30.579811679843417,16.959042742110693,-1.1167722115414485,0.1943920863767783,-3.2134677075257074,-19.93515584350346,-22.64803548486771,-21.49729595670025,-36.0943780710189,-39.5002690634433,-23.091321775945318,-15.78196869158796,-9.649244149038951,14.68224769224674,31.874489902774037,33.415413069216626,46.015690340387934,58.162803449804954,48.053134060374205,41.49192360602448,48.716552857219384,44.03635948397341,37.38527817871232,47.59132689731151,48.88189595421718,34.359302061735164,33.59862655327029,38.13754841590287,26.20850607702464,19.275185460264776,23.346197842394766,11.961511443800145,-2.4249162755527105,3.359261452100065,5.949024717404412,-3.3459176634574574,0.7526139046267968,5.793322122017369,-11.371541569795454,-26.56886995410088,-27.049202485800883,-33.74062831651767,-35.27430735027477,-13.101093409826086,4.534982460457259,6.001887788649626,22.10807952770351,50.629860231920034,70.34127404876656,96.59031796436722,128.25997264104862,133.33457900401714,122.4475445692853,122.17088348575152,114.35211619903772,92.21809742391653,80.36948774490624,67.71835136372283,35.66081563815846,12.599477800498216,10.003430346287397,0.5701365169667167,-9.389453998923765,-2.81471983709579,-5.64476964473503,-24.726994683580713,-29.91330516966937,-30.213321633762465,-49.03316485936601,-63.38722182082892,-63.13984663527387,-74.28415197827961,-87.15792914587246,-79.87965195390001,-77.21122451118643,-91.13151430190543,-96.92624014740478,-103.15289729152975,-128.83221659230958,-147.52504358454826,-147.63419728164382,-154.77591575651297,-159.67115094473056,-140.95619698940197,-122.84244937418424,-115.96119467871304,-96.8508980742684,-78.64507946321014,-83.02543659742702,-82.52479921724947,-64.94911538501157,-56.944576424461154,-50.62947258627224,-26.73793842886622,-10.99831933411048,-12.462991027497473,-2.9448734727502486,8.945618019530153,2.120761817810888,1.1252865341844798,14.845439102519569,14.88591569353172,8.339123884838251,14.669148289764214,11.466479764123825,-5.353456562800159,-5.490723867258158,0.8785867450571221,-10.416413912540872,-17.77204239093826,-13.176623480679524,-22.448311677596525,-34.66890747847449,-29.56324689086565,-32.96799624271767,-53.27317972804425,-60.97740548734851,-62.73252218059518,-78.10573205307301,-82.10215586331111,-64.99933888671954,-54.687678543392394,-45.675992963000084,-21.326439072046472,-7.6187931448260855,-12.141076740654015,-4.137160400116143,10.985351891163655,11.908068458654505,18.57406301891689,36.79692300036912,38.81931570098631,33.851015928312904,44.39761363589192,48.43159073075185,37.61057503294565,39.85213072582214,47.94042609296166,40.74898070884518,40.30489526116947,53.92819625973617,52.239696238655256,42.335439326546535,47.72807069944284,48.585627303470375,37.16897772172087,40.45463802131275,48.32103175864483,35.785757306852055,23.841902968265217,22.170860687687224,5.061739236572784,-16.932643436358553,-20.09214092790374,-26.67191295627413,-44.22333342679164,-43.25946442887166,-31.331371386594817,-30.493792989805335,-20.975203108186776,0.4043382463971854,3.8309741120840024,0.0025399279683404608,14.445801458229802,26.408810117735968,24.80290732171472,33.561725405759624,44.59876524419532,38.48357511309878,39.5611952944435,56.7771244898841,60.53282502870023,56.36268359726558,66.6154126504234,71.35593653589652,62.187393261275666,64.82411636904698,70.08684488535377,55.96840032241214,45.85344636383944,51.17740590107944,46.59892256343508,40.1552496893444,52.35715049486538,57.14038020689595,41.06898048497481,30.59182120077827,20.096674401481316,-9.216150046803563,-31.048061962764486,-34.470940359502876,-49.52360117801059,-70.15128534682026,-70.85772557198824,-68.81534587177646,-71.22453724418541,-53.57540664981648,-29.920892681103354,-27.58327540302507,-24.24908926295644,-6.562336369418676,0.6359317995681727,2.8335999794642546,18.196944782886646,24.95622103852508,18.715622160811364,29.280702552558544,46.703807370936836,45.58823024466317,45.72057838495661,56.15618930108674,52.78796740410182,45.97764093047131,56.58398574317113,61.19553535838489,51.81400507747046,56.54788157566677,66.36939277908776,56.640917236164654,47.88138255188555,50.62120223404725,40.667164793271816,28.959642065027715,39.43610409532586,46.89537240886903,35.64265605264125,29.113375659955068,18.967423806933827,-15.13441627726012,-45.494630264016976,-56.62515406583978,-72.86894192590998,-84.85857574434169,-69.26037435314237,-51.0130389265875,-45.99468220248581,-32.650219237594364,-20.276485114001545,-28.307634678607997,-29.82653396331208,-12.419375393912372,-4.618039711147488,-2.492777115040723,14.70418577009962,27.208316405803707,27.283333781985306,39.47423479048233,51.921596352773264,40.64105038206007,29.924577850802628,34.774530384680666,32.001485970595624,27.807444027298978,40.09024463766961,43.55946258207095,28.082065784714402,22.824837679960527,22.41263290657144,4.924314292298099,-6.737322780229365,-0.8092185853136917,-4.413335655451745,-12.847572951666468,-7.164266502491564,-11.044397560605516,-32.914061593499454,-42.401180832003405,-44.68858560207521,-62.71492918043888,-75.87062753260898,-72.78418836281183,-76.89304513659704,-79.42328552806276,-60.25368670162641,-45.693479674522926,-49.90052864496947,-46.41425126166676,-39.20531226507385,-48.3905883991446,-52.83097156429521,-43.19166888533299,-46.151754454897755,-53.936532306749534,-42.9977643220717,-34.89590806068187,-41.27047924515887,-35.89982754396676,-24.93683701567435,-30.230225347401745,-29.8523359061943,-13.650002191317007,-9.944392835490039,-11.953418958971643,4.843799415675193,18.972993709946945,18.505891142757957,28.68071725918505,39.10138840215318,24.132802782537844,6.510267890119978,0.23368425308056828,-18.410275081658522,-40.38141254872486,-42.24296450449553,-46.7879797481511,-66.53762239588032,-74.1873502682063,-72.90837990069724,-81.3792389131614,-76.5342099997724,-50.10913389927701,-34.238606044112416,-26.864262091255917,-6.154433530756699,8.885540784242728,9.402372949218666,21.38692465642367,37.47150644598919,36.16627568764425,40.78818505209805,62.837245562608615,73.6036407886874,76.0895953107282,91.50706117246561,99.71473274569605,91.62213938718502,95.28097876978775,104.27688977556403,94.7469572801517,87.67800080142605,94.05325265715288,86.45799792757589,71.97481564952312,76.33281630165436,79.9514975220196,70.17985242504379,70.37065444459644,70.74263349596225,47.0949374842057,23.310536461295676,14.953859398127564,-1.9106488253923244,-21.51485532151652,-23.58017958784332,-30.794127490318154,-54.01565185745864,-64.87560671878984,-65.48244290773721,-75.09264825636654,-73.97407362929988,-55.7439372788129,-49.804751164048284,-49.482687056248835,-29.937172892126743,-9.538023382772083,0.9493457906097401,24.05164069676479,49.11393612788649,51.8457097779405,53.91174198567708,67.34912870065455,66.35915838152278,58.12641710357269,66.24109346373427,69.91598068386755,58.66603903684089,60.16025463650241,68.45888278300204,59.31889798258956,52.07902459706391,57.514327229770515,50.35073036823168,39.18169695540276,47.84444496933183,52.410775340414986,36.797887703178425,25.049274109230083,13.087234532668479,-17.364317086409063,-41.32716074337298,-45.45065624069275,-56.59476491721085,-71.15330507638504,-68.0147712286256,-67.31523931746122,-78.68840564294725,-74.47186546956809,-59.58782833616516,-56.89833904519423,-47.80175170650258,-24.287743943554844,-14.903235918803572,-14.404399975732504,0.5035914346704855,11.116822527914618,7.824503966264087,15.817140317137254,26.52906560376755,16.076646504118756,7.536461307141606,15.949070378027264,15.929135170878759,11.898126510524802,24.901155323199223,31.805358043113177,20.113616287724863,18.098515288715728,21.993186713299696,9.311476447652433,0.7525004374945623,6.985706005810927,-0.34124395718168365,-16.457665996525783,-17.434964118461338,-23.30639458721131,-46.42119829474915,-60.405963090099284,-69.22038107313602,-93.6815401945992,-110.66707709025033,-107.16086694053487,-110.74164897204398,-116.1683060582497,-98.7462792182661,-80.17588087749715,-76.06501547964612,-62.23628813195616,-44.20738192624006,-43.56985461696373,-36.95609278635602,-11.665720978231874,2.693735689639835,8.007135493376573,26.89882445335021,39.43391110604102,33.75312897351785,36.292409961575274,42.23950027609304,30.16127016339817,22.976063450059875,33.01307507633523,31.598833559153775,22.33576576792887,28.94081996821979,32.17011613495557,20.678204285172704,20.22005046421389,23.42236025608112,6.228341871187094,-7.856251971981268,-3.2756701013765266,-7.272362140684744,-18.538270077911122,-16.76077941583106,-22.99562250486997,-47.21999256353469,-58.70875794008767,-60.6898663367072,-78.08224151446721,-90.44700560677823,-83.60885755575566,-83.12777746216824,-83.47690981592946,-62.21246275662026,-43.15424604944644,-41.047455778952305,-29.24265674051243,-11.92064898652855,-11.614152539306657,-6.858873756038113,15.011844036357093,26.42348079878537,30.019227472294737,46.75271254517273,55.57546422051052,45.68885925552138,45.8261863187837,52.7302313190486,43.300102338786786,37.15554963031987,45.817658789502005,42.05538436282334,30.929882787336133,36.83345378844963,39.72613420522069,27.16165429093474,25.63026570969948,28.92689893692406,11.905985959554155,-4.430388543179378,-5.564335548120684,-17.559721870934748,-37.17749852805467,-42.32329801294226,-52.749972587750094,-78.51242569947178,-89.53881247434842,-87.46628080053516,-94.70793953359603,-91.91249129105499,-68.80843116671886,-54.88670349277004,-48.53780961751399,-28.391990942028997,-13.79543196278479,-14.141378155962274,-1.2722438932943847,19.301981773082343,22.584280795250656,27.423234382809717,44.83327836603523,47.33941176254464,40.0383825991354,47.97933717690461,52.89297616921808,43.38812947018108,45.731921932732206,53.81915873850274,42.497280674941265,32.23919202201156,36.891387210700636,29.90168718856799,16.272578651231886,21.678277529079818,27.33844144569991,19.516489711177442,21.70198004291094,25.447963643318108,4.92445056368825,-16.96386108337563,-21.61079568827309,-33.14629895846455,-50.168079144699306,-52.166122484776466,-57.91388199247564,-75.04164808477326,-70.81063136205407,-48.5186800608081,-39.74791428733559,-33.45760870830364,-17.87641447961969,-14.398908730876105,-13.578784792389627,9.445935853993229,31.533274137303607,35.99543145584981,48.30947554256699,64.72701228337564,60.944590294311595,56.072135629403526,64.04979950290628,60.91649327602664,53.343355489391,65.32692735426197,74.21915103242696,63.99907302669803,60.47117043438705,60.50367312856396,41.578940990956895,25.554216033590418,27.793863631624482,21.68597733604445,9.546647601602517,15.211230612487311,18.955984802274944,5.495194646849708,-0.24178731464126257,-2.608959977773403,-26.01531928112673,-48.82524695226604,-54.129542605783854,-66.79772169649112,-82.31854136267143,-75.08382940348807,-63.02230899133113,-59.59343072126587,-41.71985658887223,-18.075496589904624,-15.581832506986219,-14.484811734424031,0.5936005548340502,5.395826922418411,5.040284929568298,23.9941063191187,42.541530714232145,45.98747500421875,58.22586322274261,73.09401398901011,65.40990137326038,55.72511672394076,60.09543247790146,54.29884707437263,43.305835992555444,51.14511592234398,56.54693656443625,44.58880872375222,41.94275639786593,45.7857274656445,32.77001798015926,22.45565798894441,27.08805889615177,19.1616443853066,3.19651239376912,4.809579071244579,3.8935603103840237,-15.443482050560368,-27.291177364480756,-33.424414430544516,-55.836085340334364,-72.27436789496142,-66.51326536354904,-65.25508380141156,-67.41123572938429,-50.91873149762543,-36.81544036648006,-40.46333341441871,-35.542361229777434,-23.004600819939753,-24.726657170099887,-21.56310391490127,-1.1601556491775824,8.512748983048285,8.555761810655042,22.33028774130938,32.828786344539935,28.75646866228225,36.50883336799185,50.65073781347872,44.47102902436204,36.84278836210972,43.947427941726126,41.63740077548001,32.98698017089335,41.35209561898196,47.14082725054565,36.17527959929155,35.60999557886705,43.09661706120136,32.903193343603874,22.498019159211687,26.064133314912407,17.663993574203005,0.4843376803885304,-0.3598897977919129,-3.6660407860340016,-25.084567833001184,-40.13051130739965,-49.03062011732334,-68.21781092191813,-72.9973660617614,-50.17475157813154,-32.93958626438592,-28.57507839583635,-17.501746212591865,-13.375352967228492,-22.254473531483608,-14.717081417114628,3.7663400561153892,4.4387788251263665,4.1419398664933045,17.67986281168451,20.953088983079883,18.604438489820595,34.05385826112951,46.3270239166109,40.866486648590595,44.48310736044442,54.573086574810574,46.25691586066695,37.657632328216536,43.008668410521175,36.93266526130993,23.536305463217715,27.566374316501076,28.386733853003555,10.648256611645499,3.217801537549989,6.629920976882025,-3.8693213962643194,-12.054804703492831,-6.256574223594008,-15.214310615052165,-36.60490167385435,-43.254798548558945,-50.98542293528452,-71.54263503343718,-74.78881113213446,-60.82996493193977,-57.766256045530056,-54.51829537717953,-40.37148745052524,-39.42880986670093,-46.49954066702237,-35.815642200885826,-24.998462909149534,-28.693797407550303,-21.375531820993466,-4.547864326205135,-2.767704936606359,-0.6106212897445455,13.98291307319595,16.033687196710805,10.169055428750774,21.484858396775245,31.04065149644642,23.796684865231313,25.599726155382378,33.73794828937637,22.19806973710608,8.500751546565255,9.40566344194405,2.6747743488909093,-7.33891932462892,2.764397693954532,10.685383916189473,-2.2761905982661954,-9.880423701768796,-10.160835942198002,-25.55553866679047,-39.72513922469938,-40.63919106092833,-55.20451206044301,-79.05369275369058,-82.28123194774554,-78.04266426229893,-79.68272934870349,-64.07071726108066,-38.40442867889746,-32.269953756152546,-30.783233786614023,-18.44893259587496,-15.720105862467129,-15.587974996405503,6.454601280280199,28.97964134178835,32.9877166262125,40.930701321936375,50.89935032485998,41.356772690688224,32.86679058896769,41.139448472336426,40.761685823779246,33.738560539968525,43.74570395912017,50.79390488058901,38.2519664194402,32.291431739099,32.9512621648252,17.419858212537864,4.822512700099393,9.694134029973021,3.663876317809698,-14.07829953608216,-18.438295293525094,-23.945143246409486,-42.67752873686256,-48.598213747818704,-45.351977464946586,-60.07213071820049,-76.2477400512858,-77.72487283105924,-86.41850770102707,-96.82019829522827,-83.9349605526636,-67.3067891588548,-63.19299481077553,-47.7612997354824,-25.111905434763685,-20.218630364414608,-14.43235594308286,7.122207410361596,18.69973842346999,22.6303713718771,43.20277998873417,61.149961868308345,59.820042170510035,64.29111336640406,74.21839775388138,67.09485925241914,62.22310894269927,75.0464060692993,78.23261197407777,71.06169986615944,77.57077732089172,80.5604999717647,65.08006790382174,57.12808170069602,56.00534976284452,38.040819254915235,23.43150242593687,30.183599135511468,30.371008873966336,19.061576556363974,17.105954822836456,7.30807240325348,-22.04993737352051,-39.672586269974985,-43.58453196089895,-59.75927981770797,-71.75226022412826,-62.54065836051902,-56.53763325598347,-54.014403420976286,-33.94031093763761,-16.899001237484242,-17.806435805990443,-9.020796140051072,8.84413376642118,10.993117954659663,14.22175145745573,32.49516596679185,39.53176068365117,35.83557472037622,45.058806470689134,50.43257670926733,38.84645557313584,38.0190373148656,47.7622454981291,42.2604571732106,36.68785021761932,45.26628765223035,41.92075510877563,27.402121066604035,28.096506396094064,29.269900245561026,15.843583475441909,12.357534210659768,16.667565605168807,2.4856762550650915,-13.373816765752798,-14.905482488860514,-28.065988991804616,-51.791096843363924,-59.22440189314892,-65.73408396089194,-86.49469645539169,-95.12826908498305,-90.05837321428679,-93.14333232418794,-85.7607859724558,-55.28415532310522,-34.81342819865824,-30.11889902889847,-16.565011931938002,-6.163960922031714,-9.751477749654196,-0.060938372078021885,21.378903304397006,27.238594429786716,32.7104571264558,52.62366134808572,59.62781432808721,53.11519817511695,59.2881142394834,63.40528354366499,51.366306018951434,49.51546036959149,57.01878570468595,48.68491000718852,41.72056951104092,51.23941570344055,49.97110135058896,37.16692223450042,38.159142248578895,37.738928574660164,21.144431858495267,13.422044406707887,12.125592006493257,-9.61055543724353,-33.189408913075276,-38.401230523424964,-48.9022089495518,-65.4115456300524,-64.80699526976161,-65.46407365910618,-82.30426764342187,-85.53232639797751,-71.95231528807777,-67.15722480492784,-58.28811092588742,-34.11131179061644,-22.797227432152944,-23.41356307827285,-8.539875326115835,7.185203711252981,7.723293391395965,16.857382983133732,33.798176539733795,34.184711775629864,35.06364136620083,51.715799077371145,56.10494447307282,46.678092328559,50.790437881451005,55.71943474993145,46.859031341406734,48.23943954169738,56.82698957122217,45.34721654083706,31.20516405351904,34.19957137682006,32.989129494514074,28.148118086727173,40.1151920500399,47.07040333719156,30.142823489513738,14.51564675255041,3.4229467314430164,-23.50797057419485,-48.03818233161997,-54.752652651501826,-68.095471411309,-84.28654275556555,-75.17654389287463,-58.060694986013495,-53.54297479815017,-41.71514022242131,-25.314157259232722,-27.831223025529653,-29.55300187908441,-12.619630417549795,-3.3995445169278016,-4.204226548156406,9.638400418360707,23.665852113084004,22.594116756183464,29.93158922950868,42.84847704966315,34.207192873653796,21.130304579321557,23.947573532523396,21.54613768662496,14.194016562256488,23.404808506181105,29.144744667878925,14.983096789092293,9.504150485778567,16.32371674589306,10.512080787715286,5.119698029449182,12.51915810492251,5.5887866303138205,-14.240263689298459,-18.680865100742967,-23.20094777545176,-45.57705871711657,-60.418030761231314,-65.77781103155048,-86.15832959737375,-104.06828684536609,-100.147074018198,-98.42587138874275,-99.64976811896929,-79.164374924868,-56.376644429457514,-52.89813381636025,-45.11169108716659,-30.03581619181599,-29.706387887030353,-26.307829178883498,-3.9444116880377633,9.868379159133198,12.837048005208217,29.422984770967428,43.568127143119376,38.551436016445884,38.79487065457547,45.08126313022627,34.14326400253501,24.78097113489789,35.77751031428202,40.81943913153784,35.43769641499614,42.635195907915254,46.73939676397647,32.0630959780246,25.747514601722116,30.27505095547235,19.462984290326204,7.375598444395067,10.349938126257234,2.7117989005399092,-16.809699842014396,-21.139209255211206,-23.93219161205424,-42.26044256329485,-51.74495938036049,-50.922692454925375,-63.835533394169154,-72.04604478913836,-55.99216571438638,-42.12979351664046,-35.512395241801514,-13.84584669248581,5.293280855646099,4.107176284038631,8.073142034244658,18.842024100737195,12.39676962692283,6.394924506001652,18.128770882397273,21.072538669987196,12.318965751819096,16.339975397788105,19.729826454517685,8.774912545926513,8.335125362542358,17.345403363251286,10.535744425064502,5.021891303672632,19.156457431109253,28.78213813528645,30.297510709940212,43.95903292583044,53.1588562222725,44.08343217446222,42.947587717076544,49.74222490502559,38.78703134922486,26.026177302888364,29.48906660602393,25.882095932734455,13.78183030195705,14.711246381498396,10.607184840759803,-12.0270047819984,-22.11072393448148,-15.455505838258842,-18.608096486986906,-20.76775991480787,-10.064415685539757,-12.312722122892623,-25.5667859328819,-22.45100390843337,-18.698350151275736,-31.42462063897512,-34.989908809564334,-26.989628331948232,-32.04446624434158,-36.38608226045308,-25.34089063461735,-23.5444975222687,-30.004885877831214,-18.377945990570137,-5.074837850395049,-8.210498042322293,-2.4905170699785653,14.113426174422697,16.53511301752804,19.549150537140406,37.74383711920406,43.8932498783517,37.30346212324577,44.670984924414604,50.67227509302181,38.59461782672429,34.883032271419296,41.94641583331919,34.47554886672385,27.72084977974097,38.12285599200502,38.74973887265691,26.57671850406356,27.437342043033638,27.983293919164275,13.038882893692705,8.59256257371093,15.194571746358132,5.210883271254637,-6.749955842737514,-1.5170348238452886,-1.226111410754385,-6.147458849739728,7.476769282639416,21.923652479394473,18.9450509579518,23.552430126700923,38.10117353680957,38.008540250050146,38.177038690351544,55.03901339979319,62.81145168466087,58.44700871948688,65.91020620003543,69.76474749339108,53.4225549554441,42.595086876788486,39.481341001702425,19.140985815253956,-2.599993380333996,-7.4690731647907285,-19.72219199373499,-41.866236297624845,-50.18515091412627,-59.4940634571863,-83.36211762774353,-92.09112868250219,-82.32080018392266,-82.65689153728479,-83.60274824857234,-71.4700963612971,-70.81998851081372,-81.3813445856284,-77.90130838369683,-78.33263629348058,-100.92524366799195,-115.2434131311746,-109.86357018294501,-104.3297547189327,-87.0271653424345,-49.89487108429559,-24.982349285153088,-15.453531229382572,7.315493395691313,31.807736436402774,39.68273060415356,52.17947384626788,70.6648744547488,72.3183879482983,73.92437298825553,92.62637295754338,101.28321716701022,94.72176358992854,97.09617963915221,95.0977819969985,73.80565991745705,60.684971997393475,59.36849903020046,43.74018251352306,27.783739431886115,28.990648234917717,21.28981101796488,1.2951251357939189,-4.628298795770858,-9.249145765538483,-28.107854378438674,-35.0881222865193,-29.11965960264272,-39.554992980658035,-55.54930557814339,-59.85273295024864,-74.87498370203531,-100.97249020251719,-111.19532796651337,-117.01159758610711,-131.44761162413425,-126.5775492722899,-99.89238777548408,-80.26028652651249,-60.63662216905617,-30.311554158359492,-14.829604704261765,-13.31842937683585,2.6868894605582234,20.50815160921508,23.44836506483533,36.21102176519217,60.24100403754799,68.25300546695483,72.24408294432132,87.71218326351692,89.35039106050496,76.43527107470948,78.19616201995782,83.02283661024583,72.52465973549525,69.22505185682917,73.80310798172336,58.67479233487279,39.28147866399134,39.423262778557145,38.31898545042071,30.95388459086964,37.88751084634417,39.81516803329599,16.543217015310354,-3.836064919808048,-13.657018540260054,-38.201174104644885,-65.26213194298133,-76.7604272663768,-95.48936972457962,-120.67513151603829,-121.1956000841937,-108.26464508287481,-102.10474417585267,-82.59286626218103,-52.195358016852396,-41.65287163486399,-37.55783303499459,-17.589360979488973,-2.4726179566186777,4.396046949407653,25.623191663217174,45.14409676438469,45.176955584261016,51.68947429689454,67.18320807556019,62.941422507804305,51.70166196214913,54.81180546703787,52.64319626903093,44.78220515199984,54.506446025706396,61.99995929557023,46.210056767469275,34.668013655990954,34.70674610585937,21.7244546119827,8.830561437388198,13.74998790329433,11.587198988383413,-1.1017435159502451,1.1321241337884533,2.6869235636486035,-17.04851970490708,-33.495826899200395,-41.88546016286648,-67.24015639523348,-93.81469054031089,-98.3388213128184,-100.0998547447929,-100.87095030846037,-78.4630506686704,-52.885126818066695,-47.4314234243517,-39.0699886915799,-21.637220709805806,-16.162194178389782,-8.150469071905821,17.09385032152633,32.67727871878355,35.19037363800656,50.761261223110594,67.76985421971203,69.74298867116022,78.2510062104156,91.68118223866065,82.71366974612177,67.47423096289265,68.79086053393661,66.12733131846211,57.05813866491124,64.65640294257166,71.0136589349318,55.77216406273862,44.67057849941416,43.67585662215713,29.5635229372143,16.940280465865055,22.18655032422574,17.968319028768388,-0.7227612058828861,-8.0469635768365,-15.872863263715885,-41.44409755567206,-61.3135696001351,-72.3613580651236,-97.28891990600025,-116.69384180536132,-107.52108938427406,-94.55098223956738,-86.99170284907127,-66.5758052440398,-50.01932560585878,-52.8836469472448,-46.9620318181922,-27.439278631928794,-21.343530710055525,-18.489769767535712,-2.4694830679676203,4.637013372448137,2.7984335270747187,19.0849667932146,39.43574391034721,42.614799773594235,49.07021614092721,61.053872074885234,54.13774375179059,43.28682724754691,47.976731142225034,44.3586462819592,29.23497241857883,29.537167975095645,32.86153281435227,20.498269979654783,16.25883977438875,23.53630567500782,15.727389703953243,5.164824479544197,9.621237265729322,3.6231850488457824,-16.65553454817008,-23.30961029154791,-29.146260041882115,-54.58606030207656,-73.61789072782021,-76.00634624060427,-82.07326645780816,-77.7267021381484,-49.07407688486073,-28.834018378023394,-26.41963318117536,-14.778521630568394,-2.8366294091259814,-6.596130854331594,-1.6884760151896767,14.770952343586064,16.66982438406598,18.08381618994016,37.35252844584095,47.71615852016168,43.983586218711395,53.098928889875666,62.78077338834507,54.332729492496796,51.64529105410111,57.49488560116405,44.954007803730406,28.64304290938878,30.72128132377942,28.341175605199638,15.774488535274918,17.025140216503328,18.17120566333222,0.20101337921842788,-11.06439968487577,-9.147130633967109,-20.1178414654401,-33.43879050311237,-32.284102901888346,-41.43595415369974,-64.09791751377229,-71.1841242921557,-71.26927984899095,-80.53894017872462,-75.09908052188685,-53.36027880662511,-45.242993653063586,-41.34288319397051,-23.786401491965886,-14.947313646798527,-16.39001249988356,-0.9665808613522859,17.763777033035996,19.135159818458998,25.513746743985195,40.2446213462906,37.4891833945616,30.943132107927077,40.67030196212283,43.226445052922855,34.514220018182506,40.25178058961896,46.077561986717086,31.78849265329921,23.769997442111205,29.770463510130362,24.620102436379412,20.16555467674202,32.26896519720508,31.797223664547914,12.902101276713669,4.765975425022171,-1.760482756667681,-23.56306662733576,-36.07689210576251,-35.95523550525225,-50.40915055608037,-66.50125030844931,-62.54999961616947,-59.53859237072055,-61.602028899651174,-44.83137015872147,-24.829085379254423,-24.1832822426683,-20.986113088770892,-9.150941419463036,-10.760703071244587,-11.011465461887276,8.514173185113842,21.966131972904716,22.262065446465567,33.02608430309381,41.71132394577475,31.072079417576056,26.16940624773516,31.80799549177785,22.98178961140829,13.068674975271586,20.802994749516422,22.25447635777766,13.496573190575004,19.949359579919964,27.787236620972486,16.828700068784805,10.394260049107135,13.714522050145671,2.7538104378154546,-8.043184027002571,1.3878674252859895,7.246327230417522,4.857534178164262,19.16463027969421,34.85873142952776,29.540727540800667,26.09484428002886,31.94386112158603,25.748699149085603,21.612856417947135,35.55004284663711,38.90627102678963,24.852561452082732,21.38808378108766,20.336842357167903,5.192429411475891,-0.8872027246901846,4.62560841641803,-5.275292493589667,-17.882431884776352,-13.344138765909719,-15.321078856210256,-28.45462124972779,-26.3220459168628,-21.323899783682478,-33.44187488113669,-38.98533187291416,-32.739073120193886,-40.67525091999713,-50.629279480495576,-43.57716341303689,-44.07108312467074,-57.14933893490971,-55.490642981953705,-49.220291846522166,-56.318679849931236,-53.022615595016944,-35.413766181788375,-31.318803801190853,-29.98934053444942,-11.211120548356845,3.3743556176102008,9.088459645408475,29.12248494806179,47.666812758202795,44.35449268718499,45.16270831980182,58.27140352657193,58.708228642964016,55.475764610164845,64.20102683324748,61.82529264034119,46.870698161132864,47.14511042402575,49.14756729193812,30.67067577891138,15.275288435797766,12.01351922096973,-0.9344876953103283,-10.946086220153937,-1.321071169877814,0.45430409451411835,-12.611749861521048,-12.916295546609872,-10.409930400495744,-25.342503022708765,-36.155413006176246,-38.39061733052914,-56.390868934905235,-74.21238555666451,-67.9903586166426,-59.669564680781335,-56.26998058864906,-35.46619055760037,-12.624734080201925,-9.108291101688646,-1.2978981822206048,17.23761240353037,21.99852566794403,25.748545506815972,47.20961690079265,59.96053281882968,55.701883753692755,60.32622030352551,64.49033988944254,50.2643056717968,41.97750256222341,45.83100867499172,35.17436404546484,20.885190195792667,23.506529223256344,19.7434993334618,2.67114713633413,-1.7089390261749928,-3.4565941115129615,-21.696250135327332,-33.22102020409169,-32.4382605637408,-45.247655340339854,-59.67361339689931,-55.25554089207839,-55.06552245946509,-64.4381730032066,-56.82700420090242,-43.67058480956286,-45.61870209093288,-41.068475815139415,-25.436107531092826,-23.70312167798044,-22.903399179338653,-3.097687537407058,10.57629241123478,9.205042841183088,17.035717730976014,24.1787067651037,13.237721504381042,8.260624457912984,14.830803176421364,7.254515910871719,-2.525608222837867,5.3738771521943,6.681259861310584,-5.8363774712923115,-6.889117915492978,-6.912984944533319,-23.284133604971807,-30.022700919216394,-20.612681145767226,-22.851178094225254,-27.49027296223121,-15.898487499929853,-12.21732777479708,-22.234886147985385,-19.709437424742788,-17.453920837290855,-37.04392812772906,-53.56680655125828,-56.269097693129176,-65.99052691544041,-69.03772956570205,-47.66099299615989,-30.10017524967045,-25.624643823407045,-7.588807638671504,15.116674725179939,23.236202283177402,38.33222560038884,63.12663407029389,69.04486262678621,67.59772232352705,80.52122307945517,85.5880841559539,77.11742623982789,81.3328638003805,87.23300385936314,75.27153182636262,69.51569956722784,76.02155713668006,66.94244169967911,51.59756104780976,50.52178384618965,42.59327812590806,23.608863622263456,21.314561819089125,24.894970976293934,11.80031953493934,3.2314975285556216,5.282803525971316,-9.736044988260478,-32.791708534314154,-41.6022322166212,-55.26362682440053,-77.93970935325027,-82.26494303143923,-78.7253819977833,-88.63892400390358,-88.60109456756629,-70.11609715090297,-59.503550033080685,-49.756778659912364,-24.16812010677565,-6.340412237993688,-1.4904892743432778,17.51067783831274,39.73217032155349,43.74222868378318,51.50616444037938,68.95594262775985,69.98773999947595,65.17661355658204,74.04079545795943,73.69972298680679,59.03404797802521,56.827230070602994,55.90918036229286,35.849622882518645,20.99187457063531,20.080303571255094,8.543693509007621,-2.834491814618252,5.362424332150441,8.936845368250781,0.633052104107442,6.219972381533491,13.236258810366815,-1.644048636125076,-16.35504044051636,-22.94357862846603,-45.5637084551658,-71.19767777827023,-77.74111644699792,-87.34815211092416,-105.16300712496927,-102.97864160880097,-90.3664762490424,-88.30297547923325,-74.95961398396373,-45.36997309361918,-27.957108470392786,-14.255336865705818,14.036595040882077,33.10283622766738,37.74106808066797,55.52899548804811,75.22659359510232,73.99265610552966,72.96280709430977,79.98751284507429,72.99717881743216,66.908470843239,82.4701059094481,91.4734259764815,81.24837404776503,76.26644576696688,67.71404414218983,38.15446963497881,15.901102757070342,13.351146326315964,5.024949575957818,-1.9046966685712612,8.310491675094589,5.968674099655274,-19.5022450982811,-37.27812247186501,-49.678032986671184,-73.17998251420379,-85.80718116455293,-83.29810337875533,-93.5896052847878,-105.86507359717422,-96.58004665685195,-86.07187105972586,-82.42508092010166,-63.114257214474804,-41.499608905323036,-39.01807871957727,-31.975253654893443,-12.235678618236232,-4.843497978585974,0.6715130707628367,23.082799382467194,37.59442794495614,36.828107643334604,47.021320317526175,58.081425286773865,50.441034024516135,48.066670843249625,58.38589380428274,55.03592926913048,47.42595892190386,54.85816520539194,53.20815859699405,35.645989404772166,31.013742335109256,31.255464897107334,15.115319431895191,4.049699218324267,4.456193097572679,-9.288009893027573,-24.548235301868385,-19.38193079326634,-19.66337746056086,-37.08265803031165,-47.1609167710194,-58.73176894628403,-88.41958196622774,-107.16930326809211,-104.35278022106216,-107.36320757330441,-107.72018146718312,-85.88726791814827,-65.82009714745885,-54.60425706673313,-26.933459670440175,3.1975609925139272,11.257889455712595,19.52422727171682,37.87196939167497,43.91541059673734,49.288468834565094,71.93912634864158,85.32934593745705,80.92241329404882,85.36940300028562,90.2893919361161,77.49028797707136,71.14813114893158,77.5108289265404,68.223757831803,52.42539727017733,51.89286407890848,45.81452116514988,28.65307993112932,26.87102509426688,28.078586852342063,8.689205371432353,-7.858790212791334,-11.648884963216283,-28.074125890414795,-47.19518043280511,-48.89992524048472,-58.60945987755524,-85.27272536632776,-99.69259597668373,-106.55049764572138,-122.42351050774943,-122.54311270644725,-101.57874326387851,-90.7818576737576,-82.64093999723072,-55.051950195404714,-30.302634213024255,-18.123943776898436,5.003764015571354,28.914840634161795,34.779181186774395,46.254426294782945,69.23246861309018,75.17814065235939,72.79217513530665,84.00803695708251,88.50214776723573,79.91483176154098,83.73325968820146,89.89724957643261,78.95572120455076,73.74638630499727,79.04277513246377,66.01430791763784,45.17911437768648,41.020909562545704,34.52466353328769,19.832497779190955,21.4689514278177,24.7988221846322,5.706676386119435,-11.534308855812915,-16.44529075601373,-34.55512840986158,-57.35028772997184,-65.77475149418719,-81.83526093262273,-107.71767284912525,-111.34460958907596,-102.00976285334326,-104.58774535943739,-99.90160504771137,-80.96460114784425,-72.16604383918386,-62.38672900605073,-33.27106567357876,-12.017683976537157,-7.307992426789085,9.426939709914809,30.098629828621213,33.49652119831695,40.238659361432305,55.158981241534754,51.72447615792187,42.82049040830828,52.91141165523126,60.49984818465714,56.558945305523906,64.52852965716542,72.01045164954522,57.270829739232084,44.727171394217855,44.37508825547446,31.605809452186392,18.16854431357858,25.78100543724574,28.708787120426905,15.312641370924895,10.468132871399593,5.304751045739183,-18.897597920388293,-37.47165744576103,-43.889710444157615,-66.99038044311997,-95.2552826773607,-101.85215898347376,-105.72996052761032,-114.61314238302457,-103.94890630150324,-85.39760303781863,-80.64678041652442,-67.23220683652976,-39.899085129065924,-28.450745930989317,-24.122982614905414,-4.1847057736432935,10.945474990031233,14.835945426592204,32.82876986993351,52.84504430631152,52.75034611607654,55.63924484337542,68.39918510811171,63.51485796777774,52.499889087102034,59.0886746181885,61.337283076498956,51.882868357515164,56.59573359134173,62.77093282617686,46.83667271772815,33.7020968876061,35.82639298095486,28.83000308249679,21.124904309788572,30.689728116954473,30.826843600653678,12.18515685313784,3.594600789637603,-1.6170963215215166,-24.908690401304344,-45.477062175076746,-54.474627634505495,-75.01153338559021,-95.6445878454219,-94.95501695916242,-94.89512125247667,-101.87562304039115,-88.75056826680027,-66.31544747518231,-59.885388570564096,-52.29616770175406,-36.868733766923704,-34.63035200022745,-30.702677749205574,-4.750577626179369,16.669392380209917,23.52691992350004,42.16478510841497,64.23584028285379,68.15209400332135,72.37229402649727,81.46807478629749,71.71577989558168,58.86030153400512,67.66346699511715,73.7022824250146,64.20662895420287,62.11681615211055,58.702121457900255,36.68634462680457,22.598196283258964,26.36069595526671,21.486934214856493,15.444543243911388,25.69048743073635,25.696141886074017,5.561388854612246,-7.137295739852075,-17.850644184927965,-44.049390887430235,-63.0085581456341,-69.01445787619721,-88.10296284881443,-106.28747010303418,-97.95252396211548,-84.63697261330046,-77.27296669426636,-56.033943495558404,-35.1862238583563,-34.63314629410097,-28.71807380112198,-9.230719501495695,-3.5533717315984057,-2.903202677007319,13.734643010433999,25.048234574097318,24.69459720983565,38.63877906435095,56.25571989729953,55.973693938378304,59.294216084175524,72.72635793224156,69.87335865357811,61.08599334819496,69.0756458302159,72.61268530548402,63.08060247714463,65.58344535482718,70.66312448564832,57.34697939180941,48.3280142252612,51.040753442967,37.287439211363875,16.383501148512387,12.40254992925523,5.09692843815526,-13.77575694973975,-20.194880214483877,-26.778664743895156,-56.39024736042946,-84.33961452967863,-96.58738799531994,-112.37788876178415,-118.45554294337896,-95.55539482077882,-72.71812349621494,-65.03620095922459,-49.778899136252086,-34.51504398464236,-35.55085394673556,-27.784798869888526,-4.392012511483264,6.876413297790548,14.52062109661085,38.16385334577164,54.493032721560354,55.46717547043227,66.28237935274171,76.43936844890712,65.40829295418595,56.818789684237096,59.21650604288438,47.84266067424897,34.060486609707816,38.92155498760493,38.51868975917016,24.293055279768208,22.778265947617502,25.366369770243416,11.983179536130763,5.419551557826694,12.269183135389767,3.698233800918436,-12.546215937131606,-14.57419781381173,-22.694813241296636,-43.5507552770512,-51.773092110089365,-58.45616524851725,-83.8119222959503,-100.48770128787662,-94.86430476526627,-91.11770826708397,-83.46304943901691,-57.82061071654947,-41.26722043532048,-41.787858349235904,-31.230450533772462,-16.46280330563048,-16.58193732560987,-9.467536732863296,11.40011683788885,19.491996962348228,23.813728378302464,44.4402299905473,59.18899423497586,60.27222900799787,71.59345572145467,81.40627531549457,68.9454375182239,58.5460990359462,60.129357919751975,49.90756511748984,39.17445229050129,48.577930740735184,54.03588977843672,46.30351585088867,49.33017586566192,51.209125311332365,31.245624299511668,14.388903910208505,10.210792087571972,-7.0482107838290045,-27.961192048714015,-31.60173361164462,-40.938671906916085,-64.53668355337264,-75.63170901613097,-80.91579897715091,-97.46083988130374,-99.76752737483444,-80.17105486328705,-68.95049103296532,-62.41311452410889,-42.8059385307546,-31.433824543781736,-33.739639281442635,-21.9514115789802,-3.1733982672839076,2.9121676382498336,16.49241121581491,41.366970170990506,48.00497534569427,45.5027664365316,58.339313397910914,66.93488710078113,61.94743880414304,65.85564330264395,67.34203834867894,47.45225185174583,33.386117350668954,36.0195970829258,27.746437823787296,14.997305876356243,19.030985663792247,20.241337833171105,11.604334516238183,17.520959294149293,25.668714137521402,11.713820883589058,-2.5049876916053804,-5.731696436862503,-20.97830829819724,-39.16275818401924,-41.70877172550631,-52.68590635285824,-78.35641404608643,-87.0561397907521,-82.38574177942118,-84.22470407904234,-74.93357016097329,-54.02905657971175,-51.61384083061656,-56.33785768909523,-42.67820047146177,-29.525467391717605,-24.90426768150879,-6.109110815940929,15.064189661633874,17.36422287381402,23.385895597201234,41.63540006205924,46.3316926696464,45.668910126279194,59.71506339553705,66.90571950090018,59.377758002331056,61.64938877736118,63.79677663526553,46.114539636938446,33.67941425194911,37.59136289100993,32.618099981021764,25.377595426304325,32.75206538941842,29.73178495075181,8.588433072461697,-1.6551163734168504,-6.6303500545213625,-26.117936645935146,-39.380587910833974,-40.46778833499367,-57.30897668737002,-81.39715509786546,-88.89040282233098,-96.49395935856103,-107.45985156121112,-94.64163025404598,-70.62960937995874,-62.17597457491096,-52.405395165544434,-35.80886180835304,-35.47329012535359,-36.70095306430127,-17.028835637265864,-0.8503164454481698,2.7814407541942185,19.2502366522061,37.84488469054145,37.81871343828271,42.336185574329576,58.34289701475854,59.50290871100786,56.603047934054985,70.28800657050422,75.69513747166245,63.74703631839529,62.156010338087754,63.79599788629844,48.53955741444843,39.25442087217655,44.36400395114791,36.98744077958739,25.265257124421034,29.91067718540794,28.10712340869589,11.379924010008835,6.945302889914223,6.342170313898454,-13.448964007490424,-32.437561674248286,-42.58291588792664,-67.93912074916884,-95.12284047440006,-97.29455143937345,-93.12520770073924,-92.32512081730997,-74.12580690884678,-52.7594918027634,-51.41701502808901,-46.75914605837205,-28.54203509999452,-21.982290426443313,-18.897063171946225,0.31162397724568347,13.690555889656276,14.697762695882938,29.378338142228767,47.7507847282596,49.525895745806245,57.68207331640814,78.68998079634557,83.58197617783377,78.73204295825946,83.97679792327668,79.29176296493762,60.71753016386565,57.0325867843709,59.15830981800826,44.01066516843318,32.29516793093878,33.132449948169366,22.24296156471181,9.207818128857056,14.356100701485925,13.921619247867135,-1.5463312629442596,-5.988303350356045,-8.33224856053671,-30.758054046600428,-52.30537165219493,-63.58403007895727,-85.38601877707521,-101.84031574913087,-88.89905708420132,-71.58270762499916,-64.30287201569946,-47.6925860069844,-33.93400775369901,-41.382065545615156,-43.31284561621556,-29.394683661136874,-25.24211987713615,-22.648526009167405,-2.2021983687384994,13.840929710704689,18.03794232720635,34.8034249260722,52.93249410239732,51.75086754171404,54.60395136946086,70.19939880442291,72.55015777137983,69.02491475427458,78.29261547820423,77.63446619865755,60.65643517184179,56.05944908329797,56.28067112660142,40.5715474172855,31.966877840149706,38.911524956021765,33.394495675973204,22.06284883518208,24.905478924505555,19.48466395223626,-2.105944026339772,-13.001889800356624,-21.100721406069034,-45.35305494162138,-59.8820256994282,-53.20468596563574,-51.19584179799219,-48.376667926818435,-29.041562812333012,-18.799462492983324,-25.37454995265684,-20.64891905670065,-11.825754849584698,-17.96821851812194,-15.961547850446003,0.6637268994993546,3.4231998648181006,0.2869487420095467,13.018786511183942,21.68755504470031,19.01979145302225,28.447726383166177,37.820608744347695,25.65400201265173,16.533992228537077,21.7246119122089,15.73769886327428,5.780346482536888,11.626998009333214,11.141438046708044,-2.5124672657037417,-1.7780743956610938,3.4040154727043292,-9.85316231752385,-19.181445652541402,-16.25207863885538,-27.866759993883715,-43.87796445624159,-41.754562092855615,-45.40188546982846,-65.52841577358714,-75.79139828960759,-82.20085055933039,-99.98590681810708,-100.26194515003806,-74.17174966471079,-54.79300333706426,-41.12450646299214,-16.174281118923453,-1.7878685753845107,-2.879212404387065,9.162247222927736,25.154885452124486,23.49748684889143,27.744425129506496,47.86132574256141,57.07790092049892,60.8275038072237,76.02377440586986,78.67551925771062,62.791814267449865,58.94618841701205,61.247506731790565,48.67506541903354,41.61808220486823,46.04372339737741,34.46297792082546,16.72135744873546,15.920047706181052,10.950480872701624,-5.879605013402082,-8.585185871358366,-7.699704616711458,-25.886929829892466,-40.731768199724094,-42.50881126894584,-56.2459401096017,-72.98102139333821,-72.12408099303002,-76.70698522927356,-95.22787656015474,-99.0666757257649,-92.81391976532359,-94.81062507877354,-83.390714152608,-54.258904919423045,-38.16907631909314,-27.79360743296793,-1.1708330976783827,19.936608184092528,25.72477580185005,39.85069782467105,53.38618271507669,48.63106711760112,51.22587336792678,69.395607606663,73.2540453909958,67.66808361522071,73.535258607256,71.97034689123754,57.463814331715795,56.90636316014232,61.190060027091256,48.26761449167002,39.99920223601748,45.534203268146655,38.50603920683942,26.337792183502838,29.52327772781477,25.509311863096155,5.419166286356564,-3.5948978984737376,-8.43568864277667,-29.723208372519647,-45.81829082200045,-49.11276827797617,-67.15791943005375,-91.78358342959821,-99.708039304466,-109.00044218984401,-123.69055435369633,-114.7215051900717,-91.27104702503503,-78.2122342472926,-59.042716499432935,-30.678767283046383,-20.92492053730364,-18.896306787301924,-0.8144901799056985,13.151629975409648,15.660517464775433,31.925243380420575,51.791595068868034,53.755498617487795,59.74591308352447,77.4977317556515,79.71654485248285,74.36172897243375,83.23079208828256,84.8592565749263,70.55219524695079,66.63264253472178,64.84185827754115,44.15885666308428,28.164965677226483,27.532269431049475,16.510031757316153,3.343986704041033,9.9571224293876,14.479966912633936,6.381077724727502,8.701453212157354,10.408441222938855,-10.470236727121478,-30.771474073649067,-39.822077458640855,-61.50243814868618,-84.39326216459284,-83.38421328945203,-77.33914791295265,-75.19235826158058,-55.98543503330093,-35.478091507417226,-38.14735113675441,